3.87109375 1.1382510000000001 -0.103006 -1.241257
4.578125 1.114818 -0.060182 -1.175
5.25390625 1.074461 -0.126258 -1.200719
5.96484375 1.034713 -0.249526 -1.284239
6.64453125 1.0647490000000002 -0.195026 -1.259775
7.3046875 1.042915 -0.136842 -1.179757
8.0 1.2477550000000002 -0.045 -1.292755
8.6875 1.154688 0.078824 -1.075864
9.3828125 1.1073410000000001 0.193781 -0.91356
10.0625 1.072284 0.137014 -0.93527
10.75 1.002266 0.055 -0.947266
11.44140625 1.048473 0.014479 -1.033994
12.13671875 1.0505950000000002 -0.059003 -1.109598
12.84375 1.044733 -0.085267 -1.13
13.53125 1.049648 -0.095352 -1.145
14.22265625 1.09264 -0.082528 -1.175168
14.890625 1.072455 -0.036879 -1.109334
15.60546875 1.112914 0.02 -1.092914
16.29296875 1.09488 -0.01 -1.10488
16.96875 1.114607 -0.045393 -1.16
17.66796875 1.091975 -0.08189 -1.173865
18.359375 1.0917370000000002 -0.07245 -1.164187
19.0625 1.047662 -0.125 -1.172662
19.76953125 1.0788630000000001 -0.135052 -1.213915
20.4921875 1.0766179999999999 -0.123355 -1.199973
21.203125 1.074497 -0.140417 -1.214914
21.91015625 1.022255 -0.172617 -1.194872
22.640625 1.087072 -0.101635 -1.188707
23.34765625 1.1733799999999999 -0.00662 -1.18
24.05078125 1.156178 -0.018729 -1.174907
24.74609375 1.129956 -0.065038 -1.194994
25.46875 1.12692 -0.052321 -1.179241
26.17578125 1.05972 -0.104645 -1.164365
26.8828125 1.2141739999999999 -0.050194 -1.264368
27.61328125 1.16687 0.02187 -1.145
28.3203125 1.168711 0.144751 -1.02396
29.015625 1.134253 0.069253 -1.065
29.73046875 1.129332 0.045289 -1.084043
30.453125 1.147198 -0.036747 -1.183945
31.1640625 1.064948 -0.089437 -1.154385
31.84765625 1.095807 -0.095632 -1.191439
32.58984375 1.0671609999999998 0.063435 -1.003726
33.26953125 1.0243959999999999 0.080542 -0.943854
33.98046875 0.99 0.06 -0.93
34.6953125 1.029857 0.03 -0.999857
35.40234375 1.056735 -0.032611 -1.089346
36.109375 1.070069 -0.074629 -1.144698
36.8046875 1.081863 -0.056395 -1.138258
37.53515625 1.102262 -0.121738 -1.224
38.23046875 1.109083 -0.210006 -1.319089
38.92578125 1.067066 -0.222546 -1.289612
39.60546875 1.014014 -0.150053 -1.164067
40.29296875 1.1789500000000002 -0.079829 -1.258779
40.9921875 1.215753 -0.035872 -1.251625
41.66796875 1.222315 0.042971 -1.179344
42.390625 1.154321 0.072474 -1.081847
43.078125 1.1004029999999998 0.011116 -1.089287
43.77734375 1.1094709999999999 -0.04498 -1.154451
44.484375 1.122085 -0.077634 -1.199719
45.19140625 1.209569 -0.090967 -1.300536
45.91015625 1.222818 0.0263 -1.196518
46.609375 1.180593 0.125593 -1.055
47.31640625 1.15135 0.039319 -1.112031
48.0078125 1.125766 -0.026587 -1.152353
48.7109375 1.1611060000000002 -0.053894 -1.215
49.41796875 1.148487 -0.045378 -1.193865
50.13671875 1.109114 -0.040886 -1.15
50.8203125 1.089428 -0.065 -1.154428
51.51953125 1.164766 0.064852 -1.099914
52.22265625 1.164759 0.18002 -0.984739
52.91796875 1.141362 0.171581 -0.969781
53.625 1.159859 0.105 -1.054859
54.3125 1.131754 0.0925 -1.039254
55.01953125 1.174857 0.07995 -1.094907
55.71484375 1.193246 0.074457 -1.118789
56.4296875 1.16417 0.056578 -1.107592
57.15234375 1.169215 0.054338 -1.114877
57.87109375 1.153455 0.033172 -1.120283
58.578125 1.1736119999999999 0.133654 -1.039958
59.29296875 1.123823 0.075337 -1.048486
60.00390625 1.135205 0.008135 -1.12707
60.71484375 1.119972 -0.043096 -1.163068
61.4140625 1.154654 -0.025237 -1.179891
62.1328125 1.054755 -0.144245 -1.199
62.80859375 1.239378 -0.055299 -1.294677
63.515625 1.2773459999999999 -0.196409 -1.473755
64.2109375 1.338626 -0.2401 -1.578726
64.92578125 1.40171 -0.1914 -1.59311
65.61328125 1.4806990000000002 -0.012247 -1.492946
66.30078125 1.346382 0.01184 -1.334542
67.01171875 1.371215 0.091215 -1.28
67.6953125 1.345369 0.146425 -1.198944
68.40625 1.3909980000000002 0.238984 -1.152014
69.08984375 1.447061 0.309043 -1.138018
69.7890625 1.389649 0.289895 -1.099754
70.48046875 1.458522 0.284958 -1.173564
71.18359375 1.214505 0.239641 -0.974864
71.88671875 1.231794 0.237671 -0.994123
72.5703125 1.209324 0.094467 -1.114857
73.25 1.237845 0.105 -1.132845
73.9375 1.230143 0.072237 -1.157906
74.6328125 1.228055 0.093186 -1.134869
75.3203125 1.248329 0.103901 -1.144428
76.00390625 1.21536 0.016173 -1.199187
76.69140625 1.301336 -0.011994 -1.31333
77.3828125 1.375965 0.059361 -1.316604
78.078125 1.401766 0.361801 -1.039965
78.76171875 1.341532 0.278026 -1.063506
79.46875 1.248269 0.178269 -1.07
80.16015625 1.1945020000000002 0.029554 -1.164948
80.85546875 1.2036769999999999 0.004579 -1.199098
81.5546875 1.205046 -0.055498 -1.260544
82.25 1.345289 -0.1 -1.445289
82.9609375 1.29944 0.019898 -1.279542
83.640625 1.222175 0.093878 -1.128297
84.3359375 1.148113 0.059979 -1.088134
85.01953125 1.11515 -0.014192 -1.129342
85.7109375 1.0769659999999999 -0.076081 -1.153047
86.40234375 1.122503 -0.157364 -1.279867
87.09765625 1.243959 -0.201041 -1.445
87.7734375 1.268116 -0.207805 -1.475921
88.46484375 1.259345 -0.112277 -1.371622
89.15625 1.1866180000000002 -0.12116 -1.307778
89.84765625 1.151214 -0.163786 -1.315
90.5390625 1.174369 -0.100046 -1.274415
91.21484375 1.181987 -0.112252 -1.294239
91.8984375 1.1874040000000001 -0.102129 -1.289533
92.59375 1.2234 -0.042719 -1.266119
93.28125 1.196337 -0.082072 -1.278409
93.97265625 1.313334 -0.003639 -1.316973
94.66796875 1.3479619999999999 0.138623 -1.209339
95.34375 1.170038 0.299635 -0.870403
96.015625 1.165327 0.180529 -0.984798
96.71484375 1.219084 0.03214 -1.186944
97.390625 1.225728 -0.079272 -1.305
98.0625 1.207917 -0.206406 -1.414323
98.7421875 1.244163 -0.215488 -1.459651
99.4140625 1.281488 -0.230022 -1.51151
100.09765625 1.2581909999999998 -0.256809 -1.515
100.78515625 1.211366 -0.310634 -1.522
101.484375 1.195899 -0.311358 -1.507257
102.1796875 1.0980940000000001 -0.363422 -1.461516
102.86328125 1.1880039999999998 -0.294666 -1.48267
103.55859375 1.193848 -0.156049 -1.349897
104.26171875 1.2527659999999998 -0.080094 -1.33286
104.95703125 1.180191 -0.079809 -1.26
105.640625 1.191877 -0.025537 -1.217414
106.34375 1.174942 -0.035058 -1.21
107.05078125 1.1621299999999999 -0.04702 -1.20915
107.73828125 1.1429440000000002 -0.050895 -1.193839
108.44921875 1.2109940000000001 -0.08398 -1.294974
109.15234375 1.222219 -0.007312 -1.229531
109.8515625 1.3323509999999998 0.088817 -1.243534
110.53515625 1.389079 0.050381 -1.338698
111.25390625 1.4187560000000001 0.001656 -1.4171
111.94921875 1.348046 -0.015925 -1.363971
112.64453125 1.344414 -0.02004 -1.364454
113.34375 1.209401 -0.091645 -1.301046
114.046875 1.13703 -0.077753 -1.214783
114.75 1.119525 -0.065 -1.184525
115.43359375 1.159717 -0.030049 -1.189766
116.15625 1.1778680000000001 0.075924 -1.101944
116.84375 1.2028599999999998 0.26286 -0.94
117.5390625 1.134611 0.254611 -0.88
118.25 1.129712 0.2 -0.929712
118.94921875 1.1514950000000002 0.139083 -1.012412
119.65234375 1.1588019999999999 0.109338 -1.049464
120.328125 1.1300000000000001 0.02 -1.11
121.03515625 1.1773470000000001 -0.066884 -1.244231
121.71484375 1.260303 0.026811 -1.233492
122.4140625 1.174708 0.154708 -1.02
123.1015625 1.104051 0.04527 -1.058781
123.7890625 1.0347410000000001 -0.010076 -1.044817
124.48046875 1.0390139999999999 -0.040054 -1.079068
125.16015625 1.023723 -0.116277 -1.14
125.8828125 1.090928 -0.116932 -1.20786
126.578125 1.103454 -0.121534 -1.224988
127.26953125 1.0444429999999998 -0.120035 -1.164478
127.9609375 1.1164109999999998 -0.035206 -1.151617
128.66796875 1.120783 -0.003101 -1.123884
129.36328125 1.075264 -0.015 -1.090264
130.06640625 1.0058449999999999 -0.099155 -1.105
130.7890625 1.024864 -0.108936 -1.1338
131.49609375 0.972351 -0.142627 -1.114978
132.1953125 1.015039 -0.049552 -1.064591
132.9140625 1.049447 -0.045553 -1.095
133.63671875 1.123177 -0.002379 -1.125556
134.34375 1.14364 -0.045881 -1.189521
135.02734375 1.1417519999999999 -0.057611 -1.199363
135.75390625 1.14735 -0.130086 -1.277436
136.44921875 1.042593 -0.1815 -1.224093
137.16015625 1.0046560000000002 -0.190052 -1.194708
137.88671875 1.062182 -0.112379 -1.174561
138.59765625 1.112669 -0.027331 -1.14
139.29296875 1.057113 -0.067887 -1.125
140.0 1.068292 -0.12 -1.188292
140.734375 1.1122859999999999 -0.111553 -1.223839
141.4453125 1.1271829999999998 -0.08749 -1.214673
142.16015625 1.0732570000000001 -0.06341 -1.136667
142.87890625 1.167166 -0.07037 -1.237536
143.59375 1.167975 -0.003071 -1.171046
144.3046875 1.118727 0.004992 -1.113735
145.01953125 1.134042 -0.025107 -1.159149
145.74609375 1.112845 -0.069678 -1.182523
146.453125 1.1072499999999998 -0.123072 -1.230322
147.16015625 1.189923 -0.14841 -1.338333
147.8828125 1.261806 -0.216849 -1.478655
148.59375 1.286677 -0.158323 -1.445
149.296875 1.2639610000000001 0.059349 -1.204612
149.97265625 1.2784950000000002 0.043411 -1.235084
150.67578125 1.276608 0.167262 -1.109346
151.35546875 1.1341240000000001 0.104902 -1.029222
152.046875 1.078972 0.044704 -1.034268
152.7578125 1.088684 -6.7E-4 -1.089354
153.453125 1.2315960000000001 -0.031237 -1.262833
154.140625 1.212184 0.12748 -1.084704
154.83984375 1.17961 0.101231 -1.078379
155.54296875 1.134242 0.04818 -1.086062
156.234375 1.177589 0.048643 -1.128946
156.93359375 1.178363 0.028666 -1.149697
157.6328125 1.148414 -0.006827 -1.155241
158.33203125 1.081289 -0.074141 -1.15543
159.03125 1.147556 -0.062444 -1.21
159.73046875 1.174198 -0.005158 -1.179356
160.44921875 1.179946 0.054557 -1.125389
161.140625 1.1699970000000002 -0.006592 -1.176589
161.84375 1.151016 -0.028984 -1.18
162.546875 1.193217 -0.011549 -1.204766
163.24609375 1.146138 -0.058862 -1.205
163.953125 1.1444720000000002 -0.080404 -1.224876
164.64453125 1.1697289999999998 -0.070086 -1.239815
165.35546875 1.152987 -0.095035 -1.248022
166.0546875 1.1234199999999999 -0.110022 -1.233442
166.75390625 1.089398 -0.125602 -1.215
167.453125 1.0821189999999998 -0.072869 -1.154988
168.15625 1.0961670000000001 -0.037375 -1.133542
168.8515625 1.136743 0.01 -1.126743
169.5390625 1.199082 -0.005237 -1.204319
170.25 1.1481910000000002 -0.015 -1.163191
170.9375 1.174094 -0.019414 -1.193508
171.63671875 1.14908 -0.015895 -1.164975
172.3203125 1.138064 -0.016118 -1.154182
173.015625 1.1249879999999999 -0.031578 -1.156566
173.72265625 1.097878 -0.062122 -1.16
174.41796875 1.070553 -0.074425 -1.144978
175.1328125 1.109135 -0.050419 -1.159554
175.82421875 1.143389 0.033155 -1.110234
176.53125 1.1578000000000002 0.014258 -1.143542
177.2421875 1.15262 0.00762 -1.145
177.97265625 1.146544 0.02 -1.126544
178.69140625 1.090975 0.004286 -1.086689
179.3984375 1.1694920000000002 -0.015 -1.184492
180.1171875 1.2457310000000001 0.040796 -1.204935
180.8359375 1.198911 0.070575 -1.128336
181.5390625 1.156245 0.049978 -1.106267
182.2578125 1.130506 0.015755 -1.114751
182.97265625 1.088725 -0.076275 -1.165
183.68359375 1.264479 -0.050164 -1.314643
184.390625 1.182409 0.00867 -1.173739
185.125 1.223068 0.07 -1.153068
185.83984375 1.159368 -0.013835 -1.173203
186.55859375 1.1589440000000002 -0.06201 -1.220954
187.28125 1.18648 -0.063468 -1.249948
187.99609375 1.317652 -0.035147 -1.352799
188.7265625 1.1764569999999999 0.110423 -1.066034
189.44921875 1.168112 0.106728 -1.061384
190.18359375 1.097812 0.052834 -1.044978
190.8984375 1.080144 0.012859 -1.067285
191.61328125 1.115783 -0.019192 -1.134975
192.35546875 1.163825 -0.015121 -1.178946
193.0859375 1.173129 -0.065208 -1.238337
193.80859375 1.139235 -0.080681 -1.219916
194.51953125 1.1518030000000001 -0.060115 -1.211918
195.234375 1.1387429999999998 -0.034866 -1.173609
195.9375 1.119157 -0.067609 -1.186766
196.65234375 1.13393 -0.032174 -1.166104
197.375 1.0736839999999999 -0.06 -1.133684
198.08203125 1.024182 -0.092579 -1.116761
198.765625 1.1113279999999999 -0.068672 -1.18
199.49609375 1.130706 0.043158 -1.087548
200.19140625 1.1992500000000001 0.05946 -1.13979
200.90625 1.143721 -0.007121 -1.150842
201.59765625 1.1241240000000001 -0.067397 -1.191521
202.3203125 1.0455079999999999 -0.157833 -1.203341
203.02734375 1.121513 -0.146885 -1.268398
203.7265625 1.166856 -0.012178 -1.179034
204.45703125 1.1647459999999998 0.065575 -1.099171
205.1484375 1.098729 0.05 -1.048729
205.84765625 1.106668 0.033971 -1.072697
206.5390625 1.0984070000000001 -0.020079 -1.118486
207.24609375 1.0918700000000001 -0.069014 -1.160884
207.9375 1.138422 -0.071324 -1.209746
208.60546875 1.11761 -0.065036 -1.182646
209.3125 1.177109 0.055547 -1.121562
210.0 1.151591 0.055 -1.096591
210.69140625 1.132002 -0.020319 -1.152321
211.39453125 1.1446429999999999 -0.065155 -1.209798
212.109375 1.12419 -0.070762 -1.194952
212.8203125 1.107197 -0.112441 -1.219638
213.5234375 1.015733 -0.173723 -1.189456
214.26171875 1.108172 -0.106776 -1.214948
214.9765625 1.109383 -0.070413 -1.179796
215.6875 1.1618279999999999 0.027548 -1.13428
216.3828125 1.123811 -0.001189 -1.125
217.09375 1.109664 -0.055336 -1.165
217.8046875 1.1109040000000001 -0.070063 -1.180967
218.5078125 1.095281 -0.145438 -1.240719
219.234375 1.0466710000000001 -0.234494 -1.281165
219.9296875 1.126607 -0.247789 -1.374396
220.61328125 1.1343299999999998 -0.152076 -1.286406
221.33984375 1.145198 -0.001277 -1.146475
222.04296875 1.055604 -0.008773 -1.064377
222.74609375 1.048716 0.012276 -1.03644
223.4296875 1.037426 -0.032519 -1.069945
224.1484375 1.101957 0.037506 -1.064451
224.8515625 1.087696 0.047898 -1.039798
225.5703125 1.1135549999999999 0.039926 -1.073629
226.296875 1.058181 -0.046165 -1.104346
227.01953125 1.109786 -0.060027 -1.169813
227.7109375 1.0824829999999999 -0.015441 -1.097924
228.42578125 1.0103419999999999 -0.004512 -1.014854
229.1484375 0.9864899999999999 -0.017306 -1.003796
229.859375 1.044595 -0.055766 -1.100361
230.5546875 1.045485 -0.066225 -1.11171
231.26953125 1.099003 -0.06006 -1.159063
231.96875 1.077193 -0.061289 -1.138482
232.6796875 1.057971 -0.045 -1.102971
233.38671875 1.101028 0.003744 -1.097284
234.1171875 1.088216 0.008231 -1.079985
234.8125 1.047301 -0.066 -1.113301
235.5234375 0.990251 -0.125 -1.115251
236.26171875 1.003552 -0.173185 -1.176737
236.9921875 1.070817 -0.16179 -1.232607
237.72265625 1.046645 -0.186447 -1.233092
238.43359375 1.157107 -0.107727 -1.264834
239.1640625 1.1494980000000001 0.049662 -1.099836
239.8671875 1.1113359999999999 0.006336 -1.105
240.59765625 1.120142 0.007446 -1.112696
241.33984375 1.1116350000000002 -0.060007 -1.171642
242.0703125 1.10488 -0.11012 -1.215
242.7890625 1.294397 -0.025237 -1.319634
243.53125 1.219211 0.024844 -1.194367
244.25 1.158173 0.105 -1.053173
244.9765625 1.109985 0.039854 -1.070131
245.68359375 1.088897 -0.005967 -1.094864
246.40234375 1.072885 -0.071674 -1.144559
247.1171875 1.1682160000000001 -0.011769 -1.179985
247.82421875 1.137113 0.062113 -1.075
248.5625 1.124309 0.112262 -1.012047
249.26171875 1.060651 0.178515 -0.882136
249.98046875 1.00796 0.529935 -0.478025
250.6875 1.0102989999999998 0.575 -0.435299
251.4140625 1.022956 0.294924 -0.728032
252.11328125 1.063236 -0.036716 -1.099952
252.81640625 1.0724310000000001 -0.320714 -1.393145
253.515625 1.1034080000000002 -0.487604 -1.591012
254.2109375 1.0710359999999999 -0.590187 -1.661223
254.90234375 1.0506520000000001 -0.602528 -1.65318
255.59765625 1.0275210000000001 -0.655175 -1.682696
256.29296875 1.2432979999999998 -0.408273 -1.651571
256.9765625 1.253352 -0.106648 -1.36
257.66015625 1.35591 0.24122 -1.11469
258.36328125 1.3719830000000002 0.356475 -1.015508
259.046875 1.157971 0.153359 -1.004612
259.74609375 1.133338 0.072083 -1.061255
260.41796875 1.156866 -0.028134 -1.185
261.11328125 1.103398 -0.115 -1.218398
261.78125 1.143924 -0.120724 -1.264648
262.46875 1.188972 -0.100735 -1.289707
263.14453125 1.21367 -0.070077 -1.283747
263.828125 1.474018 0.018459 -1.455559
264.5 1.299641 -0.025 -1.324641
265.171875 1.367545 -0.08127 -1.448815
265.8671875 1.43457 -0.075412 -1.509982
266.5390625 1.419595 -0.030405 -1.45
267.23046875 1.3323829999999999 -0.030019 -1.362402
267.89453125 1.411242 0.04457 -1.366672
268.578125 1.223368 0.063421 -1.159947
269.25390625 1.073178 -0.093092 -1.16627
269.94140625 1.066982 -0.010049 -1.077031
270.6171875 1.139085 0.024106 -1.114979
271.3046875 1.193582 0.153019 -1.040563
271.97265625 1.2078389999999999 0.187755 -1.020084
272.65234375 1.220135 0.199338 -1.020797
273.34375 1.269258 0.184258 -1.085
274.0234375 1.286912 0.099486 -1.187426
274.71484375 1.273288 0.053288 -1.22
275.390625 1.294958 -0.010791 -1.305749
276.07421875 1.224806 0.096759 -1.128047
276.78515625 1.099859 0.044859 -1.055
277.484375 1.079409 0.035809 -1.0436
278.1953125 1.18493 0.035266 -1.149664
278.8828125 1.282731 0.021605 -1.261126
279.5859375 1.171308 0.03161 -1.139698
280.2734375 1.2053589999999998 0.015359 -1.19
280.984375 1.07333 -0.088516 -1.161846
281.6953125 1.033325 -0.090635 -1.12396
282.390625 0.952125 0.301071 -0.651054
283.10546875 0.988305 0.730525 -0.25778
283.79296875 1.06247 0.703605 -0.358865
284.51171875 1.028397 0.503397 -0.525
285.203125 1.078618 0.258624 -0.819994
285.92578125 1.0104609999999998 -0.002687 -1.013148
286.625 1.04 -0.18 -1.22
287.31640625 1.0987669999999998 -0.305047 -1.403814
288.03125 1.0786580000000001 -0.421131 -1.499789
288.734375 1.10757 -0.429294 -1.536864
289.43359375 1.039036 -0.41024 -1.449276
290.1015625 1.05525 -0.354905 -1.410155
290.796875 1.0862749999999999 -0.255838 -1.342113
291.47265625 1.103982 -0.156018 -1.26
292.15625 1.093589 -0.081094 -1.174683
292.8515625 1.096643 -0.113159 -1.209802
293.53125 1.09444 -0.129545 -1.223985
294.21484375 1.12089 -0.163877 -1.284767
294.88671875 1.1031840000000002 -0.167379 -1.270563
295.58203125 1.09341 -0.211481 -1.304891
296.265625 1.05959 -0.334736 -1.394326
296.9375 1.087672 -0.264375 -1.352047
297.6171875 1.125402 -0.14565 -1.271052
298.296875 1.1087060000000002 0.059438 -1.049268
298.98046875 0.9550000000000001 0.54 -0.415
299.64453125 1.1095730000000001 0.769889 -0.339684
300.3515625 1.144868 0.652024 -0.492844
301.01953125 1.044977 0.345747 -0.69923
301.69140625 1.0711600000000001 0.054346 -1.016814
302.37890625 1.041128 -0.282966 -1.324094
303.078125 1.089988 -0.435 -1.524988
303.7578125 1.164567 -0.485433 -1.65
304.41796875 1.227498 -0.322165 -1.549663
305.1171875 1.287694 -0.201713 -1.489407
305.79296875 1.142717 -0.23166 -1.374377
306.46875 1.222281 -0.332719 -1.555
307.15625 1.39381 -0.235058 -1.628868
307.859375 1.272086 0.063457 -1.208629
308.55078125 1.223101 -0.010894 -1.233995
309.23046875 1.120348 -0.044197 -1.164545
309.95703125 1.1431470000000001 -0.057556 -1.200703
310.65234375 1.1826379999999999 -0.056907 -1.239545
311.36328125 1.218621 -0.180895 -1.399516
312.046875 1.201929 -0.217436 -1.419365
312.765625 1.171618 -0.247708 -1.419326
313.46875 1.182094 -0.266186 -1.44828
314.18359375 1.169017 -0.220634 -1.389651
314.90234375 1.233846 -0.040626 -1.274472
315.609375 1.188262 0.033262 -1.155
316.3125 1.184379 0.145948 -1.038431
317.02734375 1.217398 0.242512 -0.974886
317.75 1.199355 0.32 -0.879355
318.46484375 1.2104300000000001 0.362336 -0.848094
319.15625 1.117522 0.267522 -0.85
319.875 1.198757 0.28 -0.918757
320.5703125 1.22004 0.340521 -0.879519
321.27734375 1.137003 0.353845 -0.783158
322.00390625 1.117048 0.257495 -0.859553
322.7109375 1.124817 0.246089 -0.878728
323.41015625 1.144737 0.156328 -0.988409
324.109375 1.249903 0.141016 -1.108887
324.84375 1.266189 0.156537 -1.109652
325.5546875 1.205269 0.255317 -0.949952
326.2578125 1.118425 0.248796 -0.869629
326.96875 1.024707 0.19 -0.834707
327.671875 1.01282 0.098763 -0.914057
328.37890625 1.046728 0.008369 -1.038359
329.109375 1.15 -0.125 -1.275
329.84765625 1.143155 -0.236845 -1.38
330.5546875 1.127062 -0.262445 -1.389507
331.2734375 1.132424 -0.20102 -1.333444
332.015625 1.1379839999999999 -0.118929 -1.256913
332.74609375 1.092669 -0.079938 -1.172607
333.44921875 1.227369 0.0050 -1.222369
334.17578125 1.27876 0.219557 -1.059203
334.87109375 1.2969680000000001 0.202083 -1.094885
335.5859375 1.355677 0.219527 -1.13615
336.296875 1.3927619999999998 0.259162 -1.1336
337.02734375 1.421509 0.258959 -1.16255
337.734375 1.221268 0.104238 -1.11703
338.44140625 1.17851 0.04876 -1.12975
339.15625 1.2047370000000002 0.068828 -1.135909
339.8671875 1.1520130000000002 -0.022981 -1.174994
340.5625 1.178995 -0.061302 -1.240297
341.234375 1.203931 0.008418 -1.195513
341.94921875 1.22895 0.245206 -0.983744
342.62890625 1.164828 0.209109 -0.955719
343.3203125 1.201065 0.13755 -1.063515
344.01953125 1.227763 0.149995 -1.077768
344.7265625 1.176493 0.05 -1.126493
345.4140625 1.24087 -0.005163 -1.246033
346.1171875 1.219658 -0.082016 -1.301674
346.83203125 1.142517 -0.076526 -1.219043
347.5234375 1.145975 -0.048472 -1.194447
348.2265625 1.124135 -0.067588 -1.191723
348.91015625 1.0565440000000001 -0.055643 -1.112187
349.59375 1.197821 0.077821 -1.12
350.2890625 1.252183 0.139469 -1.112714
350.97265625 1.162256 0.102256 -1.06
351.6796875 1.346493 0.151719 -1.194774
352.34765625 1.390548 0.025 -1.365548
353.03515625 1.363316 -0.066635 -1.429951
353.72265625 1.375362 -1.31E-4 -1.375493
354.4296875 1.231498 0.017378 -1.21412
355.125 1.3 0.055 -1.245
355.81640625 1.08374 -0.1 -1.18374
356.5234375 1.129393 -0.049113 -1.178506
357.1953125 1.244256 -0.005527 -1.249783
357.90625 1.3630799999999998 -0.039182 -1.402262
358.59765625 1.41439 0.11939 -1.295
359.3125 1.541521 0.16913 -1.372391
359.99609375 1.506567 0.063686 -1.442881
360.6875 1.386517 -0.144342 -1.530859
361.39453125 1.379013 -0.170006 -1.549019
362.09375 1.428714 -0.15224 -1.580954
362.79296875 1.417864 -0.094001 -1.511865
363.4765625 1.3661189999999999 -0.010914 -1.377033
364.1796875 1.493104 0.178104 -1.315
364.875 1.46971 0.245 -1.22471
365.57421875 1.493073 0.261563 -1.23151
366.28515625 1.4172369999999999 0.15 -1.267237
366.984375 1.446217 0.129343 -1.316874
367.6953125 1.2417639999999999 0.058844 -1.18292
368.38671875 1.122257 0.003312 -1.118945
369.1015625 1.179245 0.018591 -1.160654
369.796875 1.333811 0.039693 -1.294118
370.48828125 1.3775709999999999 0.080334 -1.297237
371.1875 1.2471510000000001 0.189375 -1.057776
371.86328125 1.134721 0.140138 -0.994583
372.5625 1.122468 0.074167 -1.048301
373.24609375 1.165484 -0.033812 -1.199296
373.9453125 1.308621 -0.070339 -1.37896
374.6328125 1.3868479999999999 -0.002793 -1.389641
375.30859375 1.379334 0.090845 -1.288489
376.0078125 1.3096700000000001 0.134807 -1.174863
376.703125 1.260574 0.143849 -1.116725
377.39453125 1.130784 0.050784 -1.08
378.078125 1.121106 -0.018888 -1.139994
378.76953125 1.148707 -0.055071 -1.203778
379.4609375 1.15833 -0.155857 -1.314187
380.15625 1.1491980000000002 -0.160742 -1.30994
380.859375 1.1456250000000001 -0.22 -1.365625
381.55859375 1.339561 -0.160422 -1.499983
382.26171875 1.234958 -0.014915 -1.249873
382.953125 1.1644349999999999 0.099454 -1.064981
383.65625 1.141215 0.084271 -1.056944
384.3515625 1.1372659999999999 0.034406 -1.10286
385.046875 1.16188 -0.012187 -1.174067
385.7265625 1.139683 -0.079352 -1.219035
386.421875 1.1685379999999999 -0.046029 -1.214567
387.109375 1.1247930000000002 -0.052066 -1.176859
387.796875 1.10948 -0.055091 -1.164571
388.48828125 1.2594379999999998 -0.024968 -1.284406
389.18359375 1.233915 0.089215 -1.1447
389.8671875 1.188162 0.078231 -1.109931
390.55078125 1.16486 0.104955 -1.059905
391.26171875 1.088981 0.119008 -0.969973
391.94921875 1.166677 0.29798 -0.868697
392.63671875 1.131526 0.23 -0.901526
393.33984375 1.145541 0.123945 -1.021596
394.02734375 1.1036839999999999 -0.056041 -1.159725
394.71484375 1.182079 -0.184342 -1.366421
395.40625 1.26922 -0.215729 -1.484949
396.11328125 1.184491 -0.125895 -1.310386
396.796875 1.102367 -0.150188 -1.252555
397.46484375 1.040914 -0.18063 -1.221544
398.16015625 1.036779 -0.208172 -1.244951
398.8515625 1.133341 -0.181659 -1.315
399.55078125 1.1376909999999998 -0.156316 -1.294007
400.21875 1.124935 -0.122148 -1.247083
400.92578125 1.094963 -0.123437 -1.2184
401.625 1.055 -0.085 -1.14
402.3203125 1.1815630000000001 -0.011801 -1.193364
403.03515625 1.150248 0.070299 -1.079949
403.73828125 1.157105 0.078804 -1.078301
404.4453125 1.149904 0.024904 -1.125
405.1484375 1.197546 -0.009735 -1.207281
405.88671875 1.168832 -0.009906 -1.178738
406.60546875 1.17456 -0.010012 -1.184572
407.31640625 1.122922 -0.020775 -1.143697
408.03515625 1.1375439999999999 -0.033093 -1.170637
408.75390625 1.139276 -0.038324 -1.1776
409.45703125 1.19051 0.021657 -1.168853
410.1796875 1.2059170000000001 0.136022 -1.069895
410.890625 1.1949999999999998 0.15 -1.045
411.59375 1.1566420000000002 0.124265 -1.032377
412.28515625 1.146664 0.06784 -1.078824
413.01953125 1.114418 0.034957 -1.079461
413.7265625 1.1386390000000002 0.029562 -1.109077
414.4375 1.175556 0.105259 -1.070297
415.13671875 1.1815959999999999 0.263563 -0.918033
415.85546875 1.173579 0.229577 -0.944002
416.56640625 1.164217 0.135842 -1.028375
417.28515625 1.149038 0.037691 -1.111347
418.0234375 1.1761 0.0161 -1.16
418.7421875 1.148226 -0.019245 -1.167471
419.453125 1.108976 -0.070311 -1.179287
420.19140625 1.137343 -0.080109 -1.217452
420.9140625 1.139481 -0.040353 -1.179834
421.63671875 1.184793 0.059946 -1.124847
422.33203125 1.172901 0.041086 -1.131815
423.05078125 1.158795 -0.023294 -1.182089
423.76171875 1.140552 -0.035277 -1.175829
424.4765625 1.0151050000000001 -0.019648 -1.034753
425.21875 0.999649 -0.04 -1.039649
425.9296875 1.09418 -0.067469 -1.161649
426.640625 1.068804 0.078374 -0.99043
427.36328125 1.146758 0.144727 -1.002031
428.08203125 1.0982409999999998 0.093241 -1.005
428.79296875 1.096705 0.033033 -1.063672
429.48828125 1.1394769999999999 0.00951 -1.129967
430.21484375 1.2052129999999999 0.095421 -1.109792
430.921875 1.1880659999999998 0.164572 -1.023494
431.625 1.134219 0.11 -1.024219
432.3515625 1.113522 0.089847 -1.023675
433.0625 1.056484 -0.009453 -1.065937
433.77734375 1.141449 0.003914 -1.137535
434.484375 1.126484 0.001484 -1.125
435.2109375 1.188173 0.168753 -1.01942
435.90625 1.161962 0.101962 -1.06
436.59765625 1.1743679999999999 0.094237 -1.080131
437.296875 1.177452 0.044467 -1.132985
437.99609375 1.123933 -0.035698 -1.159631
438.671875 1.152805 -0.020181 -1.172986
439.375 1.19971 0.095 -1.10471
440.06640625 1.158643 0.084195 -1.074448
440.7578125 1.159771 0.024585 -1.135186
441.44140625 1.20822 0.014008 -1.194212
442.16015625 1.143634 -0.046309 -1.189943
442.8515625 1.130111 -0.0389 -1.169011
443.546875 1.0321559999999999 -0.141553 -1.173709
444.2109375 1.1906919999999999 -0.080516 -1.271208
444.92578125 1.178444 -0.001556 -1.18
445.609375 1.23 0.067574 -1.162426
446.296875 1.1701890000000001 0.031122 -1.139067
447.0 1.18893 -0.025 -1.21393
447.69921875 1.171289 -0.037664 -1.208953
448.390625 1.109912 -0.071794 -1.181706
449.0859375 1.172077 -0.025237 -1.197314
449.8046875 1.1475229999999998 -0.002477 -1.15
450.50390625 1.1248 0.160659 -0.964141
451.2109375 1.1628990000000001 0.179596 -0.983303
451.91015625 1.182755 0.12781 -1.054945
452.61328125 1.1757520000000001 0.065244 -1.110508
453.3203125 1.142218 0.043896 -1.098322
454.03515625 1.159281 0.014281 -1.145
454.75390625 1.164882 0.053163 -1.111719
455.453125 1.176992 0.17873 -0.998262
456.1640625 1.186447 0.143947 -1.0425
456.88671875 1.226076 0.091076 -1.135
457.60546875 1.2064769999999998 -0.020045 -1.226522
458.31640625 1.18136 -0.061707 -1.243067
459.01171875 1.264408 -0.005592 -1.27
459.7265625 1.191778 0.113272 -1.078506
460.4140625 1.164439 0.079754 -1.084685
461.12109375 1.11602 0.024738 -1.091282
461.8359375 1.133976 -0.025175 -1.159151
462.5390625 1.13461 -0.055341 -1.189951
463.24609375 1.129707 -0.100293 -1.23
463.94140625 1.1127079999999998 -0.120548 -1.233256
464.671875 1.123062 -0.102881 -1.225943
465.36328125 1.200465 -0.058777 -1.259242
466.07421875 1.186996 -0.068263 -1.255259
466.765625 1.167816 -0.086953 -1.254769
467.46484375 1.154202 -0.088797 -1.242999
468.1640625 1.1598659999999998 -0.095134 -1.255
468.875 1.131162 -0.115 -1.246162
469.58984375 1.135936 -0.126425 -1.262361
470.2890625 1.099291 -0.120021 -1.219312
470.9921875 1.172872 -0.10179 -1.274662
471.69921875 1.1345399999999999 -0.114368 -1.248908
472.40625 1.113034 -0.125913 -1.238947
473.125 1.178569 -0.115 -1.293569
473.828125 1.1298460000000001 -0.155087 -1.284933
474.54296875 1.1469459999999998 -0.152443 -1.299389
475.25390625 1.2557619999999998 -0.116421 -1.372183
475.96484375 1.235821 0.0563 -1.179521
476.6875 1.2206350000000001 0.075682 -1.144953
477.39453125 1.214078 0.009893 -1.204185
478.12109375 1.2012909999999999 -0.115933 -1.317224
478.8359375 1.379339 -0.090115 -1.469454
479.578125 1.341415 0.071134 -1.270281
480.3046875 1.275965 0.164467 -1.111498
481.015625 1.186909 0.038591 -1.148318
481.73828125 1.254244 -0.041242 -1.295486
482.4453125 1.332131 -0.065055 -1.397186
483.171875 1.2971940000000002 0.128305 -1.168889
483.87890625 1.222491 0.079809 -1.142682
484.6015625 1.204942 0.023341 -1.181601
485.3046875 1.2139209999999998 -0.041079 -1.255
486.0078125 1.210146 -0.040192 -1.250338
486.7265625 1.198106 -0.088416 -1.286522
487.4453125 1.149316 -0.058825 -1.208141
488.1484375 1.11506 -0.074483 -1.189543
488.84765625 1.1631529999999999 -0.06 -1.223153
489.56640625 1.167787 8.34E-4 -1.166953
490.2734375 1.212699 0.068016 -1.144683
490.984375 1.171462 0.013708 -1.157754
491.71484375 1.2074420000000001 0.044364 -1.163078
492.421875 1.216362 -0.010412 -1.226774
493.1328125 1.1711230000000001 -0.085 -1.256123
493.859375 1.126595 -0.080801 -1.207396
494.578125 1.130582 -0.050434 -1.181016
495.29296875 1.127491 -0.032509 -1.16
495.98828125 1.121176 -0.052183 -1.173359
496.6953125 1.09531 -0.06469 -1.16
497.40625 1.08707 -0.07793 -1.165
498.11328125 1.0777709999999998 -0.090572 -1.168343
498.83203125 1.111094 -0.118303 -1.229397
499.5390625 1.091033 -0.155 -1.246033
500.24609375 1.1163290000000001 -0.133862 -1.250191
500.96484375 1.069344 -0.135656 -1.205
501.69140625 1.130929 -0.075689 -1.206618
502.41015625 1.247129 -0.042561 -1.28969
503.11328125 1.190142 0.0422 -1.147942
503.83203125 1.125631 0.067623 -1.058008
504.54296875 1.138448 0.018992 -1.119456
505.2578125 1.109273 -0.015433 -1.124706
505.98828125 1.240332 -0.020553 -1.260885
506.7109375 1.222142 -0.020146 -1.242288
507.4296875 1.1489719999999999 0.146528 -1.002444
508.140625 1.155327 0.140768 -1.014559
508.87890625 1.125 0.065 -1.06
509.60546875 1.164878 0.005557 -1.159321
510.3125 1.250046 0.017105 -1.232941
511.05078125 1.262041 0.152773 -1.109268
511.765625 1.192128 0.143175 -1.048953
512.4921875 1.199338 0.089344 -1.109994
513.234375 1.161268 0.012925 -1.148343
513.98046875 1.10351 -0.050398 -1.153908
514.72265625 1.1432570000000002 -0.021637 -1.164894
515.4609375 1.1515900000000001 0.014658 -1.136932
516.21484375 1.2182060000000001 0.013206 -1.205
516.96484375 1.2274619999999998 0.019626 -1.207836
517.671875 1.1427209999999999 -0.047279 -1.19
518.42578125 1.127281 -0.056901 -1.184182
519.15625 1.0496480000000001 -0.115352 -1.165
519.87890625 1.075437 -0.134172 -1.209609
520.62109375 1.170587 -0.110902 -1.281489
521.33984375 1.14474 0.036861 -1.107879
522.05859375 1.184571 0.024593 -1.159978
522.7734375 1.0753730000000001 -0.054352 -1.129725
523.51953125 1.054194 -0.105384 -1.159578
524.24609375 1.0304149999999999 -0.14911 -1.179525
524.95703125 0.9891449999999999 -0.198804 -1.187949
525.703125 1.169974 -0.125 -1.294974
526.42578125 1.1168989999999999 -0.002677 -1.119576
527.14453125 1.092269 0.019988 -1.072281
527.8828125 1.053 -0.051932 -1.104932
528.609375 1.1134870000000001 -0.075 -1.188487
529.3359375 1.1347129999999999 -0.105023 -1.239736
530.05859375 1.0989440000000001 -0.135886 -1.23483
530.8046875 1.063068 -0.15182 -1.214888
531.5234375 1.027825 -0.151131 -1.178956
532.2265625 1.12 -0.055 -1.175
532.953125 1.167826 -0.041361 -1.209187
533.66015625 1.1514 -0.097236 -1.248636
534.37890625 1.1511749999999998 -0.037843 -1.189018
535.1015625 1.1328150000000001 -0.091486 -1.224301
535.8203125 1.206947 -0.121857 -1.328804
536.515625 1.316743 0.022042 -1.294701
537.234375 1.182809 0.053567 -1.129242
537.953125 1.179123 -0.025778 -1.204901
538.6640625 1.154058 -0.070077 -1.224135
539.36328125 1.3385639999999999 0.063837 -1.274727
540.046875 1.157778 -0.052222 -1.21
540.7578125 1.140506 -0.109103 -1.249609
541.44140625 1.119132 -0.105109 -1.224241
542.125 1.209814 -0.09 -1.299814
542.8203125 1.165795 0.071122 -1.094673
543.5078125 1.218786 0.157891 -1.060895
544.16796875 1.2164220000000001 0.087557 -1.128865
544.859375 1.264343 0.089343 -1.175
545.55859375 1.182653 0.019145 -1.163508
546.25 1.10456 -0.06 -1.16456
546.91796875 1.19577 -0.028093 -1.223863
547.62890625 1.182324 0.092223 -1.090101
548.296875 1.1430690000000001 0.043516 -1.099553
548.9921875 1.173304 0.023318 -1.149986
549.6953125 1.170359 -0.043338 -1.213697
550.40234375 1.15915 -0.095653 -1.254803
551.08984375 1.106557 -0.117954 -1.224511
551.7734375 1.135856 -0.117976 -1.253832
552.48828125 1.1020729999999999 -0.107911 -1.209984
553.18359375 1.115705 -0.075231 -1.190936
553.8828125 1.113337 -0.031189 -1.144526
554.5625 1.060303 -0.024625 -1.084928
555.25 1.3048659999999999 0.15 -1.154866
555.9375 1.144276 0.158026 -0.98625
556.62890625 1.156632 0.132525 -1.024107
557.328125 1.175515 0.11491 -1.060605
558.03515625 1.158711 0.05014 -1.108571
558.72265625 1.216761 0.021761 -1.195
559.42578125 1.230979 0.019557 -1.211422
560.1484375 1.196834 -0.034648 -1.231482
560.8515625 1.182691 0.02 -1.162691
561.5546875 1.2244410000000001 -0.010559 -1.235
562.2578125 1.321155 0.091472 -1.229683
562.95703125 1.2321019999999998 0.1502 -1.081902
563.6484375 1.180134 0.091317 -1.088817
564.34375 1.097769 0.016992 -1.080777
565.046875 1.287997 0.074025 -1.213972
565.734375 1.202497 0.125675 -1.076822
566.41796875 1.283861 0.142918 -1.140943
567.109375 1.1874090000000002 0.017292 -1.170117
567.80859375 1.244662 0.03 -1.214662
568.49609375 1.240335 0.038996 -1.201339
569.18359375 1.232498 0.054769 -1.177729
569.88671875 1.22933 0.039557 -1.189773
570.57421875 1.217726 0.031379 -1.186347
571.26953125 1.30037 0.029894 -1.270476
571.96875 1.258108 0.143108 -1.115
572.671875 1.167334 0.142829 -1.024505
573.359375 1.1981089999999999 0.049564 -1.148545
574.05078125 1.1653 -0.033518 -1.198818
574.74609375 1.178514 -0.035 -1.213514
575.43359375 1.1589589999999999 -0.08017 -1.239129
576.12890625 1.1864219999999999 -0.068578 -1.255
576.7890625 1.2234369999999999 0.055551 -1.167886
577.48828125 1.353358 0.128379 -1.224979
578.17578125 1.369697 0.063461 -1.306236
578.8515625 1.355997 0.021191 -1.334806
579.55078125 1.3376029999999999 0.032336 -1.305267
580.234375 1.3756359999999999 0.07625 -1.299386
580.9296875 1.410525 0.114945 -1.29558
581.6171875 1.401482 0.146537 -1.254945
582.32421875 1.403475 0.114511 -1.288964
583.015625 1.419622 0.142031 -1.277591
583.71484375 1.2885339999999998 0.125411 -1.163123
584.40625 1.228602 0.08202 -1.146582
585.09765625 1.225913 0.019175 -1.206738
585.78515625 1.2400570000000002 0.059357 -1.1807
586.48828125 1.179867 0.082924 -1.096943
587.1796875 1.165041 0.150152 -1.014889
587.859375 1.098824 0.095469 -1.003355
588.5390625 1.222593 0.089899 -1.132694
589.22265625 1.291227 0.199385 -1.091842
589.9140625 1.4042489999999999 0.224602 -1.179647
590.59765625 1.233797 0.038797 -1.195
591.26171875 1.178048 0.013116 -1.164932
591.9453125 1.147167 -0.017833 -1.165
592.6171875 1.112207 -0.072328 -1.184535
593.296875 1.124273 -0.095092 -1.219365
593.984375 1.127133 -0.062565 -1.189698
594.671875 1.161864 -0.066049 -1.227913
595.35546875 1.1246150000000001 -0.095071 -1.219686
596.0390625 1.128264 -0.075417 -1.203681
596.73046875 1.079355 -0.085 -1.164355
597.42578125 1.044633 -0.088767 -1.1334
598.12890625 1.2048109999999999 -0.073344 -1.278155
598.80078125 1.1139860000000001 -0.010916 -1.124902
599.5 1.139859 0.065 -1.074859
600.17578125 1.128457 0.048683 -1.079774
600.8671875 1.179079 -0.050921 -1.23
601.56640625 1.2112150000000002 -0.107649 -1.318864
602.2578125 1.199321 -0.070423 -1.269744
602.94921875 1.242259 -0.112037 -1.354296
603.62890625 1.1071819999999999 -0.157818 -1.265
604.33984375 1.248909 -0.054431 -1.30334
605.03125 1.248513 0.102562 -1.145951
605.72265625 1.1887969999999999 0.213797 -0.975
606.4140625 1.138427 0.134427 -1.004
607.08984375 1.177493 0.08937 -1.088123
607.78515625 1.161418 -0.013582 -1.175
608.48046875 1.177405 -0.035412 -1.212817
609.19921875 1.1773449999999999 -0.062569 -1.239914
609.90234375 1.1545180000000002 -0.110825 -1.265343
610.59765625 1.1236110000000001 -0.071389 -1.195
611.3203125 1.138959 -0.016111 -1.15507
612.0234375 1.196906 -0.005438 -1.202344
612.734375 1.133781 -0.009012 -1.142793
613.40625 1.142343 0.007476 -1.134867
614.12109375 1.180311 -0.040849 -1.22116
614.8046875 1.1640890000000002 -0.018355 -1.182444
615.5 1.203136 0.015 -1.188136
616.19921875 1.197219 0.0235 -1.173719
616.90625 1.16032 -0.022031 -1.182351
617.60546875 1.1894790000000002 -0.040112 -1.229591
618.3046875 1.212149 -0.022828 -1.234977
619.02734375 1.237173 -0.022233 -1.259406
619.734375 1.1525059999999998 -0.079066 -1.231572
620.4296875 1.1701840000000001 -0.110555 -1.280739
621.13671875 1.120673 -0.145916 -1.266589
621.84375 1.042999 -0.11 -1.152999
622.5390625 1.041231 -0.019463 -1.060694
623.25 1.200156 0.0050 -1.195156
623.9609375 1.0678349999999999 0.011507 -1.056328
624.6640625 1.019589 0.119828 -0.899761
625.3515625 1.033803 0.054218 -0.979585
626.08203125 1.038925 0.071001 -0.967924
626.77734375 1.207447 0.042711 -1.164736
627.48046875 1.2343419999999998 0.144972 -1.08937
628.1640625 1.1644860000000001 0.189801 -0.974685
628.8671875 1.052414 0.084807 -0.967607
629.5625 1.094122 -0.061964 -1.156086
630.24609375 1.163097 -0.101421 -1.264518
630.96875 1.167903 0.09093 -1.076973
631.6640625 1.15907 0.153523 -1.005547
632.34765625 1.0783800000000001 0.17338 -0.905
633.0546875 1.0525229999999999 0.067523 -0.985
633.76953125 1.081512 0.069911 -1.011601
634.484375 1.098958 0.035443 -1.063515
635.16796875 1.118551 0.016847 -1.101704
635.890625 1.080074 -0.049736 -1.12981
636.58984375 1.007574 -0.101884 -1.109458
637.296875 1.1839979999999999 -0.06519 -1.249188
638.015625 1.119765 0.082326 -1.037439
638.73046875 1.1504720000000002 0.179894 -0.970578
639.421875 1.09318 0.113977 -0.979203
640.1171875 1.052433 0.064361 -0.988072
640.84375 1.0698940000000001 0.029894 -1.04
641.55078125 1.073196 0.001774 -1.071422
642.25390625 1.0493919999999999 -0.038934 -1.088326
642.94921875 1.0136779999999999 -0.046556 -1.060234
643.65625 1.036596 -0.065 -1.101596
644.34765625 1.103001 -0.021999 -1.125
645.0546875 1.118235 0.046645 -1.07159
645.765625 1.07595 0.090884 -0.985066
646.45703125 1.046291 0.051291 -0.995
647.13671875 1.069337 0.013683 -1.055654
647.84375 1.091719 0.011719 -1.08
648.55078125 1.0704280000000002 -0.058131 -1.128559
649.24609375 1.017677 -0.135914 -1.153591
649.9296875 1.172123 -0.130388 -1.302511
650.63671875 1.140504 -0.01055 -1.151054
651.32421875 1.1195579999999998 0.019564 -1.099994
652.00390625 1.162545 -0.016134 -1.178679
652.69921875 1.1372900000000001 -0.082704 -1.219994
653.3984375 1.184115 -0.130438 -1.314553
654.07421875 1.190671 -0.149588 -1.340259
654.76171875 1.164019 -0.170981 -1.335
655.4765625 1.197507 -0.122293 -1.3198
656.16015625 1.16513 -0.099759 -1.264889
656.8671875 1.1767139999999998 -0.097598 -1.274312
657.546875 1.108055 -0.080683 -1.188738
658.2578125 1.186625 0.073701 -1.112924
658.9375 1.20855 0.1188 -1.08975
659.64453125 1.1829489999999998 0.144988 -1.037961
660.33984375 1.139138 0.012551 -1.126587
661.03125 1.06345 -0.09655 -1.16
661.72265625 1.082826 -0.137174 -1.22
662.4140625 1.109057 -0.140892 -1.249949
663.125 1.112902 -0.035 -1.147902
663.80859375 1.094511 -0.105442 -1.199953
664.4921875 1.213096 -0.081814 -1.29491
665.19140625 1.243026 -0.1454 -1.388426
665.87890625 1.282954 -0.176893 -1.459847
666.56640625 1.342613 -0.141908 -1.484521
667.265625 1.389017 -0.125801 -1.514818
667.9765625 1.349694 -0.200306 -1.55
668.6640625 1.3806699999999998 -0.100127 -1.480797
669.359375 1.3649850000000001 -0.099232 -1.464217
670.07421875 1.369296 -0.04968 -1.418976
670.77734375 1.4444629999999998 0.004673 -1.43979
671.484375 1.4133559999999998 -0.024191 -1.437547
672.1640625 1.219419 0.084722 -1.134697
672.875 1.151281 0.255 -0.896281
673.5546875 1.219936 0.033199 -1.186737
674.24609375 1.346008 0.0 -1.346008
674.94140625 1.178674 0.119409 -1.059265
675.62109375 1.150512 0.024927 -1.125585
676.30078125 1.172885 0.03298 -1.139905
676.98046875 1.215292 -0.029708 -1.245
677.6796875 1.227481 -0.052519 -1.28
678.3671875 1.222972 -0.065 -1.287972
679.0625 1.211822 0.001523 -1.210299
679.7421875 1.283501 0.150807 -1.132694
680.44140625 1.385011 0.259834 -1.125177
681.14453125 1.4990109999999999 0.284886 -1.214125
681.85546875 1.457351 0.269902 -1.187449
682.5703125 1.200313 0.163856 -1.036457
683.26953125 1.3189 0.134838 -1.184062
683.9609375 1.340127 0.099453 -1.240674
684.66015625 1.3073009999999998 0.045381 -1.26192
685.3671875 1.210793 0.004908 -1.205885
0.0 0.3379239999999999 -1.0 -1.337924
686.0703125 1.327355 -0.013001 -1.340356
686.7578125 1.157262 -0.3068 -1.464062
687.44921875 1.4124349999999999 -0.217546 -1.629981
688.13671875 1.601869 -0.345634 -1.947503
0.0 1.6254849999999998 -1.0 -2.625485
0.0 1.457007 -1.0 -2.457007
690.22265625 1.429251 -0.362188 -1.791439
690.90625 1.5283550000000001 0.313355 -1.215
691.6015625 1.5614780000000001 0.677899 -0.883579
692.3125 1.4883929999999999 0.817143 -0.67125
693.03125 1.539029 0.599141 -0.939888
693.7421875 1.572025 -0.450193 -2.022218
694.44921875 1.256017 -0.083104 -1.339121
695.16015625 1.167039 0.36127 -0.805769
695.8828125 1.16399 0.679577 -0.484413
696.58984375 1.197523 0.65291 -0.544613
697.3046875 1.283843 0.634365 -0.649478
698.0 1.333624 0.635 -0.698624
698.70703125 1.2804280000000001 0.696204 -0.584224
699.41015625 1.206414 0.56276 -0.643654
700.12109375 1.199056 0.399738 -0.799318
700.84375 1.307879 0.197879 -1.11
701.55859375 1.3746619999999998 0.159949 -1.214713
702.30859375 1.3421210000000001 0.199766 -1.142355
703.05078125 1.33644 0.15857 -1.17787
703.8125 1.321882 0.091048 -1.230834
704.44140625 1.0297 -0.085724 -1.115424
705.40625 1.274072 0.109375 -1.164697
706.21484375 1.239658 -3.42E-4 -1.24
707.0546875 1.376266 0.055 -1.321266
707.84765625 1.4224970000000001 0.062497 -1.36
708.59375 1.4797069999999999 0.22 -1.259707
709.33984375 1.426134 0.162025 -1.264109
710.07421875 1.310968 0.073529 -1.237439
710.79296875 1.2522250000000001 -0.066822 -1.319047
711.515625 1.37632 -0.081058 -1.457378
712.22265625 1.469385 0.009385 -1.46
712.9453125 1.485281 0.103199 -1.382082
713.625 1.5121 0.195 -1.3171
714.36328125 1.544358 0.072639 -1.471719
715.05859375 1.45175 -0.055 -1.50675
715.76953125 1.354063 -0.095142 -1.449205
716.453125 1.314594 0.034483 -1.280111
717.16015625 1.325397 0.226203 -1.099194
717.859375 1.2744870000000001 0.333422 -0.941065
718.5546875 1.392469 0.583874 -0.808595
719.26953125 1.388263 0.784995 -0.603268
719.95703125 1.340287 0.693506 -0.646781
720.64453125 1.189375 0.319988 -0.869387
721.3359375 1.0629879999999998 -0.005022 -1.06801
722.03125 1.0811460000000002 -0.170729 -1.251875
722.7265625 1.143182 -0.279953 -1.423135
723.390625 1.141634 -0.255436 -1.39707
724.0859375 1.182568 -0.090268 -1.272836
724.7734375 1.224106 -0.069625 -1.293731
725.45703125 1.172795 -0.243524 -1.416319
726.15625 1.311655 -0.26293 -1.574585
726.85546875 1.3524429999999998 -0.235027 -1.58747
727.55078125 1.4516619999999998 -0.270204 -1.721866
728.2265625 1.351185 -0.348356 -1.699541
728.9453125 1.412031 -0.285843 -1.697874
729.6484375 1.454518 -0.343518 -1.798036
730.34375 1.382015 -0.326148 -1.708163
731.02734375 1.448406 -0.225671 -1.674077
731.7265625 1.391424 -0.231621 -1.623045
732.4140625 1.330367 -0.323936 -1.654303
733.109375 1.3522180000000001 -0.12031 -1.472528
733.81640625 1.309174 0.051606 -1.257568
734.515625 1.012014 -0.071693 -1.083707
735.1875 1.01836 -0.121532 -1.139892
735.8671875 1.15103 -0.101204 -1.252234
736.56640625 1.1564 -0.065794 -1.222194
737.2421875 1.14585 0.031986 -1.113864
737.90234375 1.0873350000000002 0.027546 -1.059789
738.59375 1.154072 -0.027115 -1.181187
739.2578125 1.1631930000000001 -0.001596 -1.164789
739.9375 1.158313 -0.016019 -1.174332
740.62109375 1.130735 -0.025073 -1.155808
741.328125 1.1288829999999999 0.01894 -1.109943
742.0078125 1.191006 0.051206 -1.1398
742.6875 1.268061 0.094028 -1.174033
743.3984375 1.20048 0.106103 -1.094377
744.08984375 1.173196 0.080965 -1.092231
744.77734375 1.11263 0.098765 -1.013865
745.44921875 1.099078 0.064084 -1.034994
746.15625 1.114438 0.030896 -1.083542
746.859375 1.1559970000000002 0.016299 -1.139698
747.55078125 1.229395 -0.024494 -1.253889
748.26171875 1.313324 -0.013492 -1.326816
748.98046875 1.457874 0.059926 -1.397948
749.671875 1.309878 -0.091859 -1.401737
750.37109375 1.189098 -0.110902 -1.3
751.08984375 1.130827 -0.077267 -1.208094
751.79296875 1.1140700000000001 -0.085 -1.19907
752.48046875 1.134682 5.31E-4 -1.134151
753.18359375 1.213994 0.048994 -1.165
753.8671875 1.294916 0.095 -1.199916
754.5625 1.435765 0.185772 -1.249993
755.25 1.4676470000000001 0.1 -1.367647
755.9453125 1.415652 -0.009049 -1.424701
756.62109375 1.3896330000000001 -0.041715 -1.431348
757.3046875 1.291045 -0.103955 -1.395
757.99609375 1.164877 -0.099126 -1.264003
758.6953125 1.216737 -0.122469 -1.339206
759.375 1.371971 -0.17 -1.541971
760.046875 1.3517279999999998 -0.037848 -1.389576
760.75 1.539738 0.115 -1.424738
761.41015625 1.4765009999999998 0.021669 -1.454832
762.09375 1.5483930000000001 0.018393 -1.53
762.78515625 1.360981 0.093814 -1.267167
763.48046875 1.2390860000000001 -0.050028 -1.289114
764.16015625 1.331974 0.080177 -1.251797
764.84375 1.273302 0.072543 -1.200759
765.546875 1.233654 0.073792 -1.159862
766.2421875 1.1989450000000001 0.26 -0.938945
766.92578125 1.402681 0.27935 -1.123331
767.59765625 1.334059 0.143785 -1.190274
768.2890625 1.421448 0.054866 -1.366582
768.9609375 1.511449 0.069584 -1.441865
769.640625 1.4257680000000001 0.076084 -1.349684
770.33203125 1.4922 0.177313 -1.314887
771.015625 1.118447 0.048447 -1.07
771.6875 1.310597 0.0 -1.310597
772.359375 1.3603210000000001 0.020934 -1.339387
773.0625 1.192934 -0.085 -1.277934
773.59375 1.4437119999999999 0.032905 -1.410807
774.41015625 1.402037 0.038383 -1.363654
775.08203125 1.3345900000000002 0.00279 -1.3318
775.78125 1.367923 0.035818 -1.332105
776.4609375 1.5759379999999998 0.169647 -1.406291
777.16796875 1.481937 0.161937 -1.32
777.875 1.449119 0.135 -1.314119
778.58203125 1.4114410000000002 0.176441 -1.235
779.2890625 1.463789 0.234563 -1.229226
779.99609375 1.567981 0.26589 -1.302091
780.7265625 1.2745090000000001 0.061665 -1.212844
781.4375 1.227741 0.115 -1.112741
782.13671875 1.34298 0.013481 -1.329499
782.84765625 1.482472 0.062472 -1.42
783.53515625 1.378638 0.11093 -1.267708
784.234375 1.225737 0.017292 -1.208445
784.9375 1.357939 0.03913 -1.318809
785.62890625 1.400768 0.091159 -1.309609
786.32421875 1.452913 0.212939 -1.239974
787.015625 1.4156849999999999 0.209242 -1.206443
787.7421875 1.6188829999999998 0.238932 -1.379951
788.43359375 1.629193 0.229193 -1.4
789.1484375 1.440318 0.176619 -1.263699
789.8359375 1.57193 0.204484 -1.367446
790.54296875 1.331666 0.022176 -1.30949
791.24609375 1.421053 0.069993 -1.35106
791.9453125 1.292529 0.113663 -1.178866
792.65625 1.196469 0.072094 -1.124375
793.3359375 1.250844 -4.21E-4 -1.251265
794.03125 1.313611 0.02 -1.293611
794.72265625 1.262543 0.102543 -1.16
795.4140625 1.2060870000000001 0.154927 -1.05116
796.10546875 1.169625 0.010557 -1.159068
796.78515625 1.1498439999999999 -0.09 -1.239844
797.46875 1.251346 -0.193654 -1.445
798.15234375 1.350911 -0.031562 -1.382473
798.84375 1.241503 -0.0189 -1.260403
799.53515625 1.2674400000000001 0.032691 -1.234749
800.2265625 1.1949999999999998 -0.11 -1.305
800.91015625 1.138726 -0.105736 -1.244462
801.59375 1.250708 -0.063145 -1.313853
802.29296875 1.172177 -0.080155 -1.252332
802.98046875 1.236733 -0.015046 -1.251779
803.671875 1.230719 -0.036553 -1.267272
804.33203125 1.191328 0.0 -1.191328
805.01953125 1.1793509999999998 0.034884 -1.144467
805.6875 1.13377 -0.02587 -1.15964
806.359375 1.3482020000000001 0.050728 -1.297474
806.65625 0.28537 -0.516719 -0.802089
807.03515625 1.239506 0.09717 -1.142336
807.71484375 1.318241 0.08003 -1.238211
808.375 1.499079 0.09 -1.409079
809.03515625 1.411201 0.111507 -1.299694
809.71484375 1.388412 0.100364 -1.288048
810.38671875 1.433222 0.089499 -1.343723
811.05859375 1.263933 0.03 -1.233933
811.71484375 1.218776 0.16291 -1.055866
812.38671875 1.3054459999999999 0.130664 -1.174782
813.0625 1.259967 0.068667 -1.1913
813.73828125 1.360273 0.180334 -1.179939
814.43359375 1.396059 0.00495 -1.391109
815.11328125 1.3753190000000002 0.007953 -1.367366
815.79296875 1.47084 0.173605 -1.297235
816.46484375 1.494261 0.154457 -1.339804
817.16796875 1.457136 0.117158 -1.339978
817.84765625 1.4594719999999999 0.024374 -1.435098
818.53125 1.244458 -0.070949 -1.315407
819.1953125 1.241994 -0.100096 -1.34209
819.8671875 1.152046 -0.198396 -1.350442
820.53125 1.224265 -0.233382 -1.457647
821.19140625 1.321502 -0.016061 -1.337563
821.87109375 1.290368 -0.028106 -1.318474
822.53515625 1.2021789999999999 -0.034618 -1.236797
823.19140625 1.4050099999999999 -0.050464 -1.455474
823.84765625 1.434003 -0.120997 -1.555
824.5234375 1.622657 0.028964 -1.593693
825.1953125 1.309512 0.037544 -1.271968
825.8515625 1.2347080000000001 -0.029359 -1.264067
826.5078125 1.358851 0.020972 -1.337879
827.16796875 1.408828 0.053828 -1.355
827.8359375 1.27054 0.148885 -1.121655
828.5 1.313742 0.355 -0.958742
829.17578125 1.2900449999999999 0.245045 -1.045
829.83984375 1.257858 0.14743 -1.110428
830.5078125 1.564934 0.358887 -1.206047
831.16796875 1.560955 0.231211 -1.329744
831.8515625 1.272975 -0.056017 -1.328992
832.5234375 1.3757130000000002 -0.07604 -1.451753
833.1875 1.270673 -0.074313 -1.344986
833.84765625 1.202014 -0.146134 -1.348148
834.52734375 1.346999 -0.14049 -1.487489
835.1953125 1.2666689999999998 -0.16745 -1.434119
835.86328125 1.420115 -0.112471 -1.532586
836.5625 1.533753 0.064138 -1.469615
837.2265625 1.4960959999999999 0.038007 -1.458089
837.8984375 1.65328 0.09328 -1.56
838.5703125 1.4986240000000002 0.035743 -1.462881
839.26953125 1.292222 -7.41E-4 -1.292963
839.93359375 1.346377 -0.02 -1.366377
840.59375 1.411855 -0.073145 -1.485
841.26953125 1.474341 0.094889 -1.379452
841.9375 1.417618 0.198712 -1.218906
842.60546875 1.395431 0.174905 -1.220526
843.26953125 1.4499799999999998 0.110542 -1.339438
843.9453125 1.477102 0.114483 -1.362619
844.60546875 1.518536 0.214892 -1.303644
845.26953125 1.5585689999999999 0.224875 -1.333694
845.9375 1.6249779999999998 0.212222 -1.412756
846.61328125 1.6376270000000002 0.2227 -1.414927
847.2890625 1.434067 0.084678 -1.349389
847.94921875 1.43425 0.114268 -1.319982
848.62109375 1.502573 0.123866 -1.378707
849.3046875 1.299149 0.073882 -1.225267
849.98828125 1.255383 0.098758 -1.156625
850.66015625 1.360026 0.187753 -1.172273
851.3515625 1.394139 0.217145 -1.176994
852.03125 1.323696 0.369658 -0.954038
852.6953125 1.268535 0.409243 -0.859292
853.375 1.254187 0.425 -0.829187
854.06640625 1.223994 0.299473 -0.924521
854.74609375 1.249128 0.274128 -0.975
855.40234375 1.266639 0.168496 -1.098143
856.09375 1.19425 0.02925 -1.165
856.765625 1.192533 -0.006174 -1.198707
857.43359375 1.234156 -0.169145 -1.403301
858.12109375 1.278768 -0.685191 -1.963959
858.8125 1.232752 -0.8442 -2.076952
859.484375 1.246447 -0.708553 -1.955
860.15234375 1.211537 -0.503271 -1.714808
860.84375 1.232321 -0.287679 -1.52
861.53125 1.118832 -0.021997 -1.140829
862.22265625 1.102613 0.066348 -1.036265
862.88671875 1.51141 0.356028 -1.155382
863.58203125 1.408977 0.322247 -1.08673
864.26171875 1.373735 0.500847 -0.872888
864.9375 1.307069 0.580446 -0.726623
865.62890625 1.24556 0.446936 -0.798624
866.32421875 1.527456 0.267456 -1.26
867.0 1.4325640000000002 0.235 -1.197564
867.69140625 1.332517 0.369753 -0.962764
868.390625 1.326973 0.348387 -0.978586
869.0859375 1.480842 0.191101 -1.289741
869.76953125 1.60914 0.37491 -1.23423
870.44140625 1.5927760000000002 0.239753 -1.353023
871.13671875 1.5011269999999999 0.231178 -1.269949
871.8125 1.3508410000000002 0.133698 -1.217143
872.5 1.333125 0.095 -1.238125
873.20703125 1.332953 -0.029733 -1.362686
873.890625 1.5219909999999999 0.039138 -1.482853
874.5859375 1.491546 0.109922 -1.381624
875.265625 1.475464 0.240801 -1.234663
875.97265625 1.398152 0.2 -1.198152
876.65625 1.400905 0.151429 -1.249476
877.33203125 1.471813 0.043843 -1.42797
878.0234375 1.506314 0.08141 -1.424904
878.7109375 1.436827 0.235 -1.201827
879.390625 1.376016 0.261016 -1.115
880.078125 1.339434 0.224483 -1.114951
880.78125 1.3461530000000002 0.121466 -1.224687
881.46875 1.332303 0.085 -1.247303
882.1640625 1.294406 0.034927 -1.259479
882.875 1.2926 -0.09 -1.3826
883.5859375 1.369766 -0.150234 -1.52
884.28515625 1.3430360000000001 0.020364 -1.322672
884.984375 1.376757 0.15 -1.226757
885.6953125 1.3556599999999999 0.146707 -1.208953
886.40625 1.3513089999999999 0.156591 -1.194718
887.1171875 1.2563220000000002 0.101374 -1.154948
887.84375 1.393827 0.157117 -1.23671
888.5546875 1.4018739999999998 0.351921 -1.049953
889.26953125 1.4208340000000002 0.55988 -0.860954
889.9765625 1.431407 0.587643 -0.843764
890.7109375 1.506093 0.484807 -1.021286
891.4140625 1.502081 0.363947 -1.138134
892.12109375 1.476226 0.196226 -1.28
892.83203125 1.4591230000000002 0.113096 -1.346027
893.53515625 1.2919500000000002 -0.022903 -1.314853
894.24609375 1.206538 -0.118166 -1.324704
894.953125 1.3947669999999999 -0.120184 -1.514951
895.67578125 1.342236 -0.006845 -1.349081
896.37109375 1.342068 0.137068 -1.205
897.0703125 1.344685 0.13483 -1.209855
897.79296875 1.309564 0.063331 -1.246233
898.49609375 1.268856 -0.039768 -1.308624
899.21875 1.284933 -0.098145 -1.383078
899.9140625 1.373706 -0.115047 -1.488753
900.62890625 1.278887 0.031139 -1.247748
901.328125 1.2322309999999999 0.075 -1.157231
902.0390625 1.28989 0.030571 -1.259319
902.75390625 1.260351 0.023143 -1.237208
903.44921875 1.234607 0.029669 -1.204938
904.14453125 1.190864 -0.034224 -1.225088
904.85546875 1.2327100000000002 -0.090083 -1.322793
905.5625 1.314877 -0.089615 -1.404492
906.27734375 1.268447 0.058971 -1.209476
906.96484375 1.281177 0.1264 -1.154777
907.6796875 1.293533 0.112306 -1.181227
908.37890625 1.299728 0.097803 -1.201925
909.09765625 1.261259 0.033345 -1.227914
909.8203125 1.190839 -0.042694 -1.233533
910.546875 1.177997 -0.101078 -1.279075
911.2578125 1.1064930000000002 -0.09848 -1.204973
911.97265625 1.238148 -0.130137 -1.368285
912.6875 1.293347 0.010484 -1.282863
913.4140625 1.2879230000000002 0.159515 -1.128408
914.109375 1.332156 0.12354 -1.208616
914.81640625 1.2802419999999999 0.047273 -1.232969
915.50390625 1.2941019999999999 -0.016858 -1.31096
916.2109375 1.279977 -0.045023 -1.325
916.92578125 1.268926 -0.065579 -1.334505
917.63671875 1.206812 -0.141485 -1.348297
918.3515625 1.124074 -0.201645 -1.325719
919.05078125 1.062301 -0.241471 -1.303772
919.78515625 1.155691 -0.16288 -1.318571
920.48828125 1.128308 -0.187076 -1.315384
921.19921875 1.327775 -0.10589 -1.433665
921.8984375 1.231576 0.042847 -1.188729
922.60546875 1.280564 0.100564 -1.18
923.3046875 1.2616969999999998 0.101719 -1.159978
924.01953125 1.2298660000000001 0.004866 -1.225
924.73046875 1.226831 -0.075005 -1.301836
925.4375 1.236066 -0.101667 -1.337733
926.1484375 1.140355 -0.075 -1.215355
926.8671875 1.2595699999999999 0.044355 -1.215215
927.5703125 1.259252 -0.005843 -1.265095
928.2890625 1.293229 0.014926 -1.278303
928.98828125 1.1843169999999998 -0.088178 -1.272495
929.703125 1.1928789999999998 -0.082059 -1.274938
930.41796875 1.176907 -0.063093 -1.24
931.12890625 1.153976 -0.096842 -1.250818
931.84765625 1.119865 -0.200135 -1.32
932.55859375 1.26787 -0.196939 -1.464809
933.26171875 1.27685 -0.123126 -1.399976
933.9765625 1.246247 -0.011029 -1.257276
934.6875 1.271493 -0.022738 -1.294231
935.40625 1.221274 -0.05755 -1.278824
936.09375 1.2202009999999999 -0.114799 -1.335
936.81640625 1.247646 -0.155303 -1.402949
937.51953125 1.1837469999999999 -0.215081 -1.398828
938.234375 1.228085 -0.235 -1.463085
938.94921875 1.160771 -0.289494 -1.450265
939.671875 1.1387669999999999 -0.330316 -1.469083
940.36328125 1.2073 -0.355261 -1.562561
941.0546875 1.295762 -0.328039 -1.623801
941.7734375 1.28559 -0.086485 -1.372075
942.48046875 1.278904 -0.005072 -1.283976
943.16796875 1.301491 -0.013328 -1.314819
943.859375 1.262953 -0.068672 -1.331625
944.55859375 1.206438 -0.143394 -1.349832
945.26171875 1.11113 -0.183141 -1.294271
945.97265625 1.223033 -0.186966 -1.409999
946.6796875 1.206963 -0.148374 -1.355337
947.38671875 1.172136 -0.075 -1.247136
948.07421875 1.234008 -0.095986 -1.329994
948.78125 1.26515 -0.082072 -1.347222
949.484375 1.285055 -0.0643 -1.349355
950.1953125 1.234031 -0.109734 -1.343765
950.875 1.273993 -0.06 -1.333993
951.58203125 1.2549080000000001 -0.043246 -1.298154
952.27734375 1.257418 -0.077582 -1.335
952.9765625 1.2252 -0.120938 -1.346138
953.6875 1.1822519999999999 -0.156319 -1.338571
954.390625 1.202782 -0.175752 -1.378534
955.08203125 1.3183129999999998 -0.096607 -1.41492
955.78125 1.254987 0.069987 -1.185
956.49609375 1.284297 0.029585 -1.254712
957.203125 1.298594 -0.006904 -1.305498
957.89453125 1.2187700000000001 -0.039475 -1.258245
958.61328125 1.166337 -0.042998 -1.209335
959.31640625 1.318125 0.104074 -1.214051
960.0234375 1.275158 0.046738 -1.22842
960.734375 1.3784619999999999 0.035988 -1.342474
961.4609375 1.4083990000000002 0.034655 -1.373744
962.15625 1.354263 0.039263 -1.315
962.85546875 1.309147 0.099972 -1.209175
963.56640625 1.275274 0.148926 -1.126348
964.2734375 1.312596 0.136467 -1.176129
964.98046875 1.552934 0.279981 -1.272953
965.66796875 1.373662 0.218635 -1.155027
966.3828125 1.327309 0.278186 -1.049123
967.078125 1.220529 0.10415 -1.116379
967.7734375 1.090593 -0.042805 -1.133398
968.48828125 1.10887 0.010138 -1.098732
969.1875 1.186798 0.188981 -0.997817
969.87890625 1.155103 0.175828 -0.979275
970.578125 1.079933 0.17 -0.909933
971.2890625 1.113763 0.24982 -0.863943
971.98828125 1.0820699999999999 0.127166 -0.954904
972.67578125 1.08206 0.004419 -1.077641
973.375 1.064063 -0.085 -1.149063
974.07421875 1.022667 -0.156471 -1.179138
974.765625 1.043131 -0.195537 -1.238668
975.46875 0.996273 -0.224799 -1.221072
976.18359375 0.998814 -0.255923 -1.254737
976.875 0.9913289999999999 -0.25 -1.241329
977.5625 1.075942 -0.18267 -1.258612
978.28125 1.057955 -0.206136 -1.264091
978.98046875 1.0345520000000001 -0.240036 -1.274588
979.6953125 1.0375130000000001 -0.226101 -1.263614
980.38671875 0.988237 -0.235895 -1.224132
981.12109375 0.9685849999999999 -0.20128 -1.169865
981.83984375 1.041577 -0.204845 -1.246422
982.5703125 1.051132 -0.253868 -1.305
983.3125 1.076463 -0.267813 -1.344276
984.0390625 1.0244929999999999 -0.245457 -1.26995
984.765625 0.9692239999999999 -0.200776 -1.17
985.5078125 0.9751850000000001 -0.156697 -1.131882
986.25390625 0.977735 -0.196258 -1.173993
986.98046875 0.880439 -0.065299 -0.945738
987.69140625 1.0100609999999999 0.034606 -0.975455
988.4296875 1.0293670000000001 -0.025559 -1.054926
989.14453125 1.048623 -0.169725 -1.218348
989.86328125 1.061168 -0.28353 -1.344698
990.6015625 1.0656320000000001 -0.390955 -1.456587
991.328125 1.036374 -0.496393 -1.532767
992.04296875 0.969058 -0.484046 -1.453104
992.76953125 1.12806 -0.325036 -1.453096
993.5234375 1.131365 -0.400117 -1.531482
994.25 1.0760459999999998 -0.435 -1.511046
994.9609375 1.106643 -0.465082 -1.571725
995.6953125 1.241188 -0.287519 -1.528707
996.40625 1.405663 -0.124286 -1.529949
997.1328125 1.322686 -0.155202 -1.477888
997.86328125 1.294151 -0.180091 -1.474242
998.5703125 1.355723 -0.26552 -1.621243
999.2734375 1.3283559999999999 -0.23036 -1.558716
999.9765625 1.219095 -0.227357 -1.446452
1000.6953125 1.222813 -0.222366 -1.445179
1001.37890625 1.277088 0.001076 -1.276012
1002.0703125 1.378657 0.134234 -1.244423
1002.76953125 1.393637 0.144932 -1.248705
1003.45703125 1.370732 0.114586 -1.256146
1004.15234375 1.319458 0.114988 -1.20447
1004.86328125 1.2846989999999998 0.067168 -1.217531
1005.58203125 1.30693 0.117616 -1.189314
1006.28515625 1.263677 0.084055 -1.179622
1006.9921875 1.2581229999999999 0.028123 -1.23
1007.7265625 1.21099 -0.042291 -1.253281
1008.43359375 1.1593820000000001 -0.150618 -1.31
1009.16015625 1.1420709999999998 -0.154929 -1.297
1009.8515625 1.334733 -0.074611 -1.409344
1010.56640625 1.357286 0.034626 -1.32266
1011.2578125 1.372597 0.013231 -1.359366
1011.96875 1.336018 0.01 -1.326018
1012.67578125 1.361583 -0.027989 -1.389572
1013.34765625 1.403759 0.198845 -1.204914
1014.0390625 1.436571 0.27 -1.166571
1014.7421875 1.4921 0.087157 -1.404943
1015.4375 1.443889 0.173889 -1.27
1016.140625 1.387954 0.117977 -1.269977
1016.81640625 1.263572 0.009266 -1.254306
1017.53125 1.154265 -0.155735 -1.31
1018.21875 1.095 -0.23 -1.325
1018.921875 1.166679 -0.073902 -1.240581
1019.625 1.238942 -0.055 -1.293942
1020.32421875 1.187818 -0.028403 -1.216221
1021.01953125 1.336063 0.124959 -1.211104
1021.7109375 1.407708 0.253963 -1.153745
1022.4375 1.43331 0.267187 -1.166123
1023.12109375 1.3751790000000002 0.242738 -1.132441
1023.828125 1.297929 0.193284 -1.104645
1024.51953125 1.2298360000000002 0.119836 -1.11
1025.21875 1.246196 0.121196 -1.125
1025.93359375 1.209832 0.094617 -1.115215
1026.65625 1.2928009999999999 0.121962 -1.170839
1027.375 1.3003790000000002 0.09 -1.210379
1028.08984375 1.350458 0.134344 -1.216114
1028.8046875 1.319773 0.104937 -1.214836
1029.55078125 1.267595 0.058494 -1.209101
1030.26171875 1.28965 0.079401 -1.210249
1030.9921875 1.362161 0.12751 -1.234651
1031.6953125 1.275725 0.096921 -1.178804
1032.3984375 1.2521859999999998 0.015 -1.237186
1033.109375 1.1826130000000001 -0.164272 -1.346885
1033.81640625 1.3835989999999998 -0.150875 -1.534474
1034.53515625 1.372858 -0.131712 -1.50457
1035.2421875 1.31324 -0.031366 -1.344606
1035.94140625 1.292801 -0.074161 -1.366962
1036.64453125 1.419119 -0.075026 -1.494145
1037.3515625 1.418933 0.043933 -1.375
1038.078125 1.4190580000000002 0.23873 -1.180328
1038.76953125 1.413175 0.149316 -1.263859
1039.4921875 1.493079 0.133107 -1.359972
1040.21875 1.444409 0.239409 -1.205
1040.9453125 1.451651 0.266796 -1.184855
1041.6875 1.419265 0.1538 -1.265465
1042.4140625 1.513054 0.168407 -1.344647
1043.15234375 1.5055619999999998 0.298765 -1.206797
1043.8828125 1.5627620000000002 0.298161 -1.264601
1044.6171875 1.534461 0.249541 -1.28492
1045.36328125 1.498851 0.1246 -1.374251
1046.07421875 1.319345 -0.025933 -1.345278
1046.8046875 1.36613 -0.03 -1.39613
1047.52734375 1.357632 -0.001447 -1.359079
1048.25390625 1.2898129999999999 0.002157 -1.287656
1048.98046875 1.392316 0.034955 -1.357361
1049.69921875 1.3988969999999998 0.055 -1.343897
1050.41796875 1.363054 0.09 -1.273054
1051.1328125 1.297994 0.035897 -1.262097
1051.85546875 1.286887 0.074639 -1.212248
1052.5703125 1.244461 0.074473 -1.169988
1053.27734375 1.177657 -0.036484 -1.214141
1053.984375 1.3600450000000002 -0.044215 -1.40426
1054.69921875 1.360454 0.015488 -1.344966
1055.40625 1.3609419999999999 0.096677 -1.264265
1056.109375 1.410763 0.119245 -1.291518
1056.8203125 1.342592 0.029708 -1.312884
1057.515625 1.3436299999999999 -0.01608 -1.35971
1058.2109375 1.3273359999999998 -0.09518 -1.422516
1058.92578125 1.229643 -0.220265 -1.449908
1059.6171875 1.41657 -0.106409 -1.522979
1060.3125 1.418907 -0.045625 -1.464532
1061.0 1.413636 0.065 -1.348636
1061.6953125 1.393126 0.046751 -1.346375
1062.390625 1.3584720000000001 0.042396 -1.316076
1063.08203125 1.273729 0.055248 -1.218481
1063.796875 1.3059660000000002 0.097131 -1.208835
1064.4921875 1.282299 0.034572 -1.247727
1065.1875 1.429533 0.182461 -1.247072
1065.89453125 1.455828 0.164923 -1.290905
1066.609375 1.4647260000000002 0.146084 -1.318642
1067.3203125 1.384418 0.08745 -1.296968
1068.0078125 1.35629 -0.041422 -1.397712
1068.7109375 1.4303260000000002 -0.010282 -1.440608
1069.41796875 1.3726619999999998 0.025464 -1.347198
1070.125 1.4387610000000002 0.08 -1.358761
1070.8359375 1.4992640000000002 0.049527 -1.449737
1071.55859375 1.432801 0.023202 -1.409599
1072.26171875 1.285123 -0.087712 -1.372835
1072.95703125 1.222427 -0.061167 -1.283594
1073.6953125 1.334388 -0.045757 -1.380145
1074.40234375 1.253481 -0.135425 -1.388906
1075.109375 1.239166 -0.246816 -1.485982
1075.80078125 1.452194 -0.151317 -1.603511
1076.51953125 1.4685439999999998 0.049918 -1.418626
1077.22265625 1.433262 0.059866 -1.373396
1077.92578125 1.4236630000000001 0.034421 -1.389242
1078.6484375 1.349553 5.34E-4 -1.349019
1079.34765625 1.349546 -0.130454 -1.48
1080.03125 1.4441670000000002 -0.0775 -1.521667
1080.74609375 1.505389 0.148587 -1.356802
1081.4609375 1.457414 0.145577 -1.311837
1082.16796875 1.5121740000000001 0.126441 -1.385733
1082.8515625 1.511995 0.117799 -1.394196
1083.56640625 1.4533399999999999 0.019048 -1.434292
1084.26171875 1.3995700000000002 -0.015278 -1.414848
1084.95703125 1.436691 -0.011652 -1.448343
1085.66796875 1.4931290000000002 0.072569 -1.42056
1086.3828125 1.562436 0.157862 -1.404574
1087.0859375 1.431405 0.079799 -1.351606
1087.78125 1.453776 0.037928 -1.415848
1088.51953125 1.544905 0.259989 -1.284916
1089.23046875 1.5482 0.27998 -1.26822
1089.9453125 1.501878 0.153396 -1.348482
1090.66796875 1.316087 0.009926 -1.306161
1091.3828125 1.232151 -0.137849 -1.37
1092.08984375 1.2123089999999999 -0.142244 -1.354553
1092.8046875 1.222801 -0.123241 -1.346042
1093.53515625 1.387561 -0.0050 -1.392561
1094.23828125 1.352849 0.038615 -1.314234
1094.9375 1.3386790000000002 -0.015 -1.353679
1095.6640625 1.409287 -0.04 -1.449287
1096.37109375 1.3601480000000001 0.051803 -1.308345
1097.08203125 1.371727 -0.023273 -1.395
1097.76953125 1.2689750000000002 -0.015027 -1.284002
1098.484375 1.4189999999999998 -0.020609 -1.439609
1099.1796875 1.5615700000000001 0.177378 -1.384192
1099.88671875 1.554199 0.178152 -1.376047
1100.609375 1.565531 0.087676 -1.477855
1101.3203125 1.560637 -0.077456 -1.638093
1102.015625 1.463162 -0.096406 -1.559568
1102.73046875 1.524272 -0.070158 -1.59443
1103.4453125 1.37954 -0.182723 -1.562263
1104.15625 1.218889 -0.215 -1.433889
1104.84375 1.225308 -0.081262 -1.30657
1105.5625 1.224097 0.072037 -1.15206
1106.25390625 1.19133 0.031969 -1.159361
1106.953125 1.17403 -0.035838 -1.209868
1107.65625 1.3545120000000002 0.035719 -1.318793
1108.37109375 1.2727009999999999 0.072504 -1.200197
1109.06640625 1.235995 0.028061 -1.207934
1109.7578125 1.1965210000000002 -0.025599 -1.22212
1110.49609375 1.186908 -0.058092 -1.245
1111.19140625 1.111445 -0.175055 -1.2865
1111.90234375 1.3384260000000001 -0.106096 -1.444522
1112.61328125 1.282561 -0.063394 -1.345955
1113.32421875 1.285449 -0.103372 -1.388821
1114.03515625 1.231649 -0.105643 -1.337292
1114.76953125 1.230177 -0.115005 -1.345182
1115.515625 1.180146 -0.139672 -1.319818
1116.23046875 1.096076 -0.225028 -1.321104
1116.95703125 0.9973200000000001 -0.298693 -1.296013
1117.71484375 0.9903520000000001 -0.285688 -1.27604
1118.4375 1.289097 -0.176339 -1.465436
1119.171875 1.29325 -0.095851 -1.389101
1119.8984375 1.2749030000000001 -0.15152 -1.426423
1120.609375 1.29325 -0.098155 -1.391405
1121.328125 1.2393509999999999 -0.085288 -1.324639
1122.0546875 1.194135 -0.081409 -1.275544
1122.796875 1.142925 -0.128915 -1.27184
1123.51171875 1.156004 -0.16 -1.316004
1124.2421875 1.193521 -0.101466 -1.294987
1124.9921875 1.251985 -0.02567 -1.277655
1125.71484375 1.2393569999999998 -0.025643 -1.265
1126.4453125 1.2238939999999998 -0.04021 -1.264104
1127.16796875 1.221002 -0.058087 -1.279089
1127.89453125 1.1722130000000002 -0.10502 -1.277233
1128.609375 1.3687040000000001 0.0057 -1.363004
1129.3515625 1.270246 -0.019056 -1.289302
1130.08203125 1.297516 -0.05 -1.347516
1130.796875 1.229256 -0.122584 -1.35184
1131.51953125 1.200626 -0.080058 -1.280684
1132.2578125 1.146662 -0.12771 -1.274372
1132.9765625 1.166721 -0.11768 -1.284401
1133.69921875 1.307414 -0.052061 -1.359475
1134.4375 1.30139 0.003636 -1.297754
1135.1484375 1.3005829999999998 -0.011014 -1.311597
1135.87109375 1.255705 -0.118954 -1.374659
1136.609375 1.2089889999999999 -0.180725 -1.389714
1137.34375 1.14215 -0.225619 -1.367769
1138.078125 1.189028 -0.215851 -1.404879
1138.8046875 1.198291 -0.25157 -1.449861
1139.55859375 1.096912 -0.304152 -1.401064
1140.27734375 1.336201 -0.172876 -1.509077
1141.00390625 1.212037 -0.125848 -1.337885
1141.7265625 1.275463 -0.097559 -1.373022
1142.43359375 1.2167880000000002 -0.145177 -1.361965
1143.15234375 1.189251 -0.135227 -1.324478
1143.87890625 1.194151 -0.130068 -1.324219
1144.6015625 1.1951209999999999 -0.088993 -1.284114
1145.31640625 1.226678 -0.050394 -1.277072
1146.03125 1.1124020000000001 -0.116129 -1.228531
1146.76171875 1.375013 0.024422 -1.350591
1147.48046875 1.301531 0.00992 -1.291611
1148.1953125 1.2996869999999998 -0.010096 -1.309783
1148.90625 1.24972 -0.080013 -1.329733
1149.62109375 1.231835 -0.105 -1.336835
1150.34375 1.159498 -0.127072 -1.28657
1151.078125 1.200536 -0.116393 -1.316929
1151.8125 1.16104 -0.179554 -1.340594
1152.53125 1.3186559999999998 -0.150859 -1.469515
1153.25 1.221071 -0.125 -1.346071
1153.98828125 1.2679779999999998 -0.084553 -1.352531
1154.70703125 1.211516 -0.060284 -1.2718
1155.4296875 1.204793 -0.074615 -1.279408
1156.12890625 1.204167 -0.070246 -1.274413
1156.83984375 1.184748 -0.136354 -1.321102
1157.55078125 1.195792 -0.137695 -1.333487
1158.26953125 1.094815 -0.1601 -1.254915
1158.99609375 1.301383 -0.127486 -1.428869
1159.7109375 1.217445 -0.084425 -1.30187
1160.41796875 1.2162039999999998 -0.088796 -1.305
1161.140625 1.2174420000000001 -0.076641 -1.294083
1161.875 1.1733630000000002 -0.12 -1.293363
1162.609375 1.201134 -0.134471 -1.335605
1163.32421875 1.21738 -0.202674 -1.420054
1164.0546875 1.247633 -0.211168 -1.458801
1164.77734375 1.238786 -0.208629 -1.447415
1165.5078125 1.291651 -0.126911 -1.418562
1166.23828125 1.216463 -0.06527 -1.281733
1166.9609375 1.342402 -0.105 -1.447402
1167.67578125 1.262612 -0.063518 -1.32613
1168.390625 1.260823 -0.097718 -1.358541
1169.109375 1.212695 -0.028984 -1.241679
1169.828125 1.368134 -0.066764 -1.434898
1170.53125 1.317546 -0.100344 -1.41789
1171.25390625 1.3588049999999998 -0.108324 -1.467129
1171.97265625 1.351098 -0.098902 -1.45
1172.69140625 1.2285249999999999 -0.255775 -1.4843
1173.41796875 1.439903 -0.15242 -1.592323
1174.15625 1.350359 -0.104464 -1.454823
1174.87890625 1.368624 -0.085 -1.453624
1175.58984375 1.3399750000000001 -0.106337 -1.446312
1176.328125 1.31883 -0.121049 -1.439879
1177.046875 1.233092 -0.160866 -1.393958
1177.765625 1.344027 -0.116553 -1.46058
1178.48046875 1.298353 0.009994 -1.288359
1179.19921875 1.3195370000000002 -0.003348 -1.322885
1179.9140625 1.270942 0.001542 -1.2694
1180.63671875 1.304511 -0.005015 -1.309526
1181.375 1.326468 0.035 -1.291468
1182.08984375 1.187941 -0.033371 -1.221312
1182.81640625 1.223627 -0.008433 -1.23206
1183.5546875 1.245718 0.021425 -1.224293
1184.28125 1.367248 0.033019 -1.334229
1185.0078125 1.2971579999999998 -0.01679 -1.313948
1185.7265625 1.269523 -0.024735 -1.294258
1186.46484375 1.286154 -0.0048 -1.290954
1187.1875 1.2497969999999998 -0.034453 -1.28425
1187.91796875 1.2068839999999998 -0.088116 -1.295
1188.65625 1.208114 -0.1039 -1.312014
1189.3828125 1.370609 -0.002328 -1.372937
1190.10546875 1.247072 -0.035337 -1.282409
1190.83984375 1.298535 -0.035585 -1.33412
1191.56640625 1.289129 -0.045177 -1.334306
1192.28515625 1.259344 -0.045656 -1.305
1193.00390625 1.257833 -0.063154 -1.320987
1193.734375 1.234303 -0.063553 -1.297856
1194.45703125 1.206428 -0.082185 -1.288613
1195.1875 1.261524 -0.036328 -1.297852
1195.9375 1.2113440000000002 -0.124375 -1.335719
1196.6640625 1.1471179999999999 -0.10559 -1.252708
1197.37890625 1.2581639999999998 -0.056094 -1.314258
1198.125 1.327543 0.03 -1.297543
1198.859375 1.3096459999999999 0.005623 -1.304023
1199.58203125 1.2913299999999999 -0.00367 -1.295
1200.3046875 1.250686 -0.051221 -1.301907
1201.03125 1.189892 -0.099861 -1.289753
1201.75390625 1.364899 -0.041134 -1.406033
1202.484375 1.32031 0.038483 -1.281827
1203.21875 1.347389 0.09125 -1.256139
1203.9375 1.266473 0.028594 -1.237879
1204.64453125 1.218415 -0.050019 -1.268434
1205.39453125 1.258696 -0.005121 -1.263817
1206.125 1.2791919999999999 -0.01 -1.289192
1206.86328125 1.2812199999999998 0.032671 -1.248549
1207.58984375 1.258401 -0.004762 -1.263163
1208.33203125 1.281697 0.020575 -1.261122
1209.0703125 1.2166679999999999 -0.036917 -1.253585
1209.8046875 1.1609189999999998 -0.114081 -1.275
1210.5625 1.318412 -0.075952 -1.394364
1211.296875 1.267829 -0.016843 -1.284672
1212.015625 1.286926 -0.051509 -1.338435
1212.7578125 1.331613 -0.032894 -1.364507
1213.4921875 1.306931 -0.048049 -1.35498
1214.21875 1.2537230000000001 -0.097295 -1.351018
1214.94921875 1.153464 -0.125581 -1.279045
1215.6796875 1.0547929999999999 -0.175 -1.229793
1216.39453125 1.054788 -0.16503 -1.219818
1217.12109375 1.29876 -0.060529 -1.359289
1217.86328125 1.262656 0.033047 -1.229609
1218.58203125 1.304276 0.003098 -1.301178
1219.29296875 1.3038049999999999 -0.001157 -1.304962
1220.04296875 1.292713 0.008291 -1.284422
1220.76171875 1.2698720000000001 -0.011229 -1.281101
1221.4921875 1.14705 -0.10295 -1.25
1222.2109375 1.141765 -0.100117 -1.241882
1222.94140625 1.130893 -0.050108 -1.181001
1223.66015625 1.2156770000000001 -0.043923 -1.2596
1224.37890625 1.2550000000000001 -0.015 -1.27
1225.12109375 1.2764270000000002 0.002034 -1.274393
1225.83203125 1.2435129999999999 0.025 -1.218513
1226.55078125 1.133065 -0.08316 -1.216225
1227.28125 1.376686 -0.010328 -1.387014
1228.01171875 1.214333 -0.025259 -1.239592
1228.7265625 1.242961 -0.017436 -1.260397
1229.4375 1.233864 -0.045 -1.278864
1230.16796875 1.213882 -0.099676 -1.313558
1230.890625 1.183608 -0.131592 -1.3152
1231.625 1.1927750000000001 -0.12 -1.312775
1232.3671875 1.1144079999999998 -0.164854 -1.279262
1233.08984375 1.2703330000000002 -0.106499 -1.376832
1233.8125 1.2510119999999998 -0.001413 -1.252425
1234.55859375 1.285206 -0.060053 -1.345259
1235.2890625 1.243943 -0.075313 -1.319256
1236.01171875 1.26307 -0.081229 -1.344299
1236.72265625 1.180523 -0.139062 -1.319585
1237.44921875 1.201949 -0.148403 -1.350352
1238.1640625 1.13934 -0.175208 -1.314548
1238.88671875 1.1259080000000001 -0.153141 -1.279049
1239.62109375 1.106324 -0.133197 -1.239521
1240.328125 1.248624 -0.105674 -1.354298
1241.03515625 1.2798589999999999 -0.035141 -1.315
1241.765625 1.24598 -0.056794 -1.302774
1242.48046875 1.285662 -0.045053 -1.330715
1243.203125 1.213959 -0.080927 -1.294886
1243.91015625 1.168583 -0.121364 -1.289947
1244.63671875 1.1756149999999999 -0.144956 -1.320571
1245.35546875 1.136773 -0.150054 -1.286827
1246.08203125 1.0859139999999998 -0.158303 -1.244217
1246.83203125 1.21148 -0.081485 -1.292965
1247.54296875 1.222994 -0.09497 -1.317964
1248.2578125 1.21302 -0.12193 -1.33495
1248.9921875 1.2378550000000001 -0.127168 -1.365023
1249.72265625 1.193093 -0.171907 -1.365
1250.4453125 1.174843 -0.208016 -1.382859
1251.15625 1.1233119999999999 -0.218984 -1.342296
1251.8984375 1.193874 -0.178458 -1.372332
1252.61328125 1.107241 -0.217379 -1.32462
1253.34765625 1.158501 -0.160293 -1.318794
1254.09765625 1.217068 -0.132932 -1.35
1254.83203125 1.229115 -0.135852 -1.364967
1255.5625 1.1865 -0.13 -1.3165
1256.3125 1.1752259999999999 -0.208636 -1.383862
1257.05859375 1.351011 -0.118493 -1.469504
1257.8046875 1.2331820000000002 -0.13166 -1.364842
1258.53515625 1.24581 -0.100007 -1.345817
1259.27734375 1.172642 -0.161794 -1.334436
1260.0 1.146172 -0.145 -1.291172
1260.72265625 1.269368 -0.085632 -1.355
1261.45703125 1.34782 -0.003849 -1.351669
1262.16796875 1.272879 0.080324 -1.192555
1262.88671875 1.3131309999999998 0.038771 -1.27436
1263.609375 1.265338 0.017864 -1.247474
1264.33203125 1.191979 -0.056883 -1.248862
1265.046875 1.2755969999999999 -0.055805 -1.331402
1265.75390625 1.2730700000000001 0.03807 -1.235
1266.48046875 1.306505 0.054913 -1.251592
1267.19140625 1.294624 0.039445 -1.255179
1267.91796875 1.198215 -0.04 -1.238215
1268.65625 1.221477 -0.058038 -1.279515
1269.375 1.193942 -0.085 -1.278942
1270.09765625 1.169866 -0.120134 -1.29
1270.82421875 1.404029 -0.035966 -1.439995
1271.5625 1.311782 -0.019052 -1.330834
1272.28125 1.307707 -0.044342 -1.352049
1272.984375 1.267072 -0.094375 -1.361447
1273.71875 1.219078 -0.14404 -1.363118
1274.4296875 1.242473 -0.134327 -1.3768
1275.15625 1.2141220000000001 -0.13993 -1.354052
1275.87890625 1.198096 -0.158027 -1.356123
1276.59765625 1.1787940000000001 -0.111206 -1.29
1277.3125 1.29146 -0.064643 -1.356103
1278.02734375 1.251278 -0.038378 -1.289656
1278.76953125 1.303369 -0.039443 -1.342812
1279.48046875 1.242345 -0.075005 -1.31735
1280.19921875 1.2155310000000001 -0.097772 -1.313303
1280.90625 1.1983929999999998 -0.076607 -1.275
1281.62109375 1.241606 -0.055891 -1.297497
1282.33984375 1.198287 -0.055342 -1.253629
1283.06640625 1.148288 -0.116924 -1.265212
1283.7890625 1.2943799999999999 -0.054437 -1.348817
1284.50390625 1.304023 0.033127 -1.270896
1285.21484375 1.2680580000000001 -0.0050 -1.273058
1285.94921875 1.241403 -0.029818 -1.271221
1286.6640625 1.233591 -0.043537 -1.277128
1287.38671875 1.2295539999999998 -0.060256 -1.28981
1288.08984375 1.220865 -0.087267 -1.308132
1288.80859375 1.129568 -0.102305 -1.231873
1289.52734375 1.118568 -0.115464 -1.234032
1290.24609375 1.21519 0.030828 -1.184362
1290.984375 1.258398 0.038398 -1.22
1291.6953125 1.245509 -0.007755 -1.253264
1292.41796875 1.1932779999999998 -0.075522 -1.2688
1293.1484375 1.213415 -0.091055 -1.30447
1293.87890625 1.186215 -0.087566 -1.273781
1294.62109375 1.218679 -0.060487 -1.279166
1295.328125 1.182012 -0.070674 -1.252686
1296.0625 1.207105 -0.072895 -1.28
1296.78515625 1.160141 -0.115643 -1.275784
1297.515625 1.0997460000000001 -0.139066 -1.238812
1298.25390625 1.372733 -0.04 -1.412733
1298.9765625 1.2679559999999999 -0.008993 -1.276949
1299.6953125 1.275307 0.05258 -1.222727
1300.4140625 1.299718 0.069867 -1.229851
1301.140625 1.225732 -0.012066 -1.237798
1301.86328125 1.182811 -0.032076 -1.214887
1302.56640625 1.38693 0.024406 -1.362524
1303.29296875 1.310105 0.090105 -1.22
1304.01953125 1.305655 0.13957 -1.166085
1304.73828125 1.28267 0.115 -1.16767
1305.48046875 1.309028 0.08993 -1.219098
1306.2109375 1.230895 0.039258 -1.191637
1306.9453125 1.1595550000000001 -0.01182 -1.171375
1307.68359375 1.210944 0.021606 -1.189338
1308.4296875 1.218876 0.09 -1.128876
1309.16796875 1.309308 0.086369 -1.222939
1309.88671875 1.327997 0.073047 -1.25495
1310.62890625 1.302284 0.046034 -1.25625
1311.359375 1.310516 -0.006358 -1.316874
1312.09375 1.3135999999999999 -0.017228 -1.330828
1312.8359375 1.2736210000000001 -0.060349 -1.33397
1313.58203125 1.23942 -0.119809 -1.359229
1314.31640625 1.0529579999999998 -0.215594 -1.268552
1315.0703125 1.00587 -0.228621 -1.234491
1315.8203125 1.121089 -0.153203 -1.274292
1316.5625 1.2240140000000002 -0.064412 -1.288426
1317.296875 1.238916 -0.077858 -1.316774
1318.05078125 1.290418 -0.05884 -1.349258
1318.80078125 1.293523 -0.047596 -1.341119
1319.546875 1.273534 -0.101129 -1.374663
1320.31640625 1.2059760000000002 -0.151096 -1.357072
1321.05859375 1.126656 -0.120172 -1.246828
1321.7890625 1.1581929999999998 -0.070048 -1.228241
1322.5546875 1.2341520000000001 -5.27E-4 -1.234679
1323.2890625 1.3029309999999998 0.025 -1.277931
1324.01953125 1.246254 -0.019711 -1.265965
1324.75 1.228657 -0.065 -1.293657
1325.4765625 1.237458 -0.056067 -1.293525
1326.203125 1.368811 -0.011078 -1.379889
1326.9375 1.275519 0.0175 -1.258019
1327.6796875 1.296426 0.017593 -1.278833
1328.40625 1.315582 0.037556 -1.278026
1329.125 1.2452889999999999 -0.03 -1.275289
1329.88671875 1.2374749999999999 -0.017408 -1.254883
1330.63671875 1.2882740000000001 -0.0028 -1.291074
1331.36328125 1.279776 -0.060895 -1.340671
1332.11328125 1.250545 -0.064968 -1.315513
1332.84375 1.23707 -0.09793 -1.335
1333.57421875 1.31355 -0.03543 -1.34898
1334.3125 1.314932 -0.007759 -1.322691
1335.046875 1.2950009999999998 -0.05 -1.345001
1335.765625 1.254477 -0.118871 -1.373348
1336.48046875 1.219807 -0.125 -1.344807
1337.2265625 1.25548 -0.153586 -1.409066
1337.94921875 1.1606400000000001 -0.208343 -1.368983
1338.66015625 1.234288 -0.136712 -1.371
1339.390625 1.276719 -0.09 -1.366719
1340.10546875 1.322187 -0.080036 -1.402223
1340.81640625 1.252749 -0.095865 -1.348614
1341.54296875 1.29182 -0.094425 -1.386245
1342.28125 1.282006 -0.092457 -1.374463
1343.0078125 1.1974120000000001 -0.135419 -1.332831
1343.71484375 1.202237 -0.087344 -1.289581
1344.45703125 1.251395 0.029568 -1.221827
1345.17578125 1.3433599999999999 0.046271 -1.297089
1345.88671875 1.322516 0.027671 -1.294845
1346.60546875 1.2863609999999999 -0.055109 -1.34147
1347.32421875 1.2797230000000002 -0.050436 -1.330159
1348.0390625 1.2781339999999999 -0.065107 -1.343241
1348.765625 1.196889 -0.114115 -1.311004
1349.5078125 1.264392 -0.055679 -1.320071
1350.21875 1.289837 0.008462 -1.281375
1350.9375 1.287426 -0.026 -1.313426
1351.6875 1.3028 -0.048333 -1.351133
1352.42578125 1.324623 -0.088131 -1.412754
1353.15234375 1.347173 -0.092718 -1.439891
1353.890625 1.2486860000000002 -0.144232 -1.392918
1354.62890625 1.251083 -0.131046 -1.382129
1355.3515625 1.403337 -0.051663 -1.455
1356.08984375 1.348925 0.004364 -1.344561
1356.82421875 1.328234 -0.027037 -1.355271
1357.53515625 1.301783 -0.078672 -1.380455
1358.25390625 1.3031270000000001 -0.151873 -1.455
1358.99609375 1.3029410000000001 -0.174845 -1.477786
1359.7109375 1.235028 -0.225077 -1.460105
1360.41015625 1.479529 -0.156993 -1.636522
1361.1171875 1.3643480000000001 -0.084441 -1.448789
1361.828125 1.423254 -0.006657 -1.429911
1362.53515625 1.335474 -0.09401 -1.429484
1363.24609375 1.331339 -0.115 -1.446339
1363.98828125 1.327133 -0.128394 -1.455527
1364.6953125 1.351171 -0.127005 -1.478176
1365.421875 1.321554 -0.150195 -1.471749
1366.16015625 1.2575 -0.17 -1.4275
1366.88671875 1.255562 -0.125 -1.380562
1367.609375 1.346491 -0.003482 -1.349973
1368.3125 1.4156149999999998 -0.007778 -1.423393
1369.04296875 1.378619 -0.042443 -1.421062
1369.75390625 1.351391 -0.080328 -1.431719
1370.48046875 1.2918020000000001 -0.085063 -1.376865
1371.21484375 1.2216010000000002 -0.12 -1.341601
1371.9375 1.289279 -0.056288 -1.345567
1372.6484375 1.316003 -0.066689 -1.382692
1373.390625 1.331286 -0.083714 -1.415
1374.12109375 1.299647 -0.114085 -1.413732
1374.86328125 1.317854 -0.112021 -1.429875
1375.5859375 1.199443 -0.185 -1.384443
1376.32421875 1.3431369999999998 -0.102151 -1.445288
1377.0546875 1.279424 -0.056156 -1.33558
1377.80078125 1.3310710000000001 -0.028929 -1.36
1378.5546875 1.3127680000000002 -0.105697 -1.418465
1379.27734375 1.239487 -0.158675 -1.398162
1380.00390625 1.437914 -0.074907 -1.512821
1380.73828125 1.3196070000000002 -0.015 -1.334607
1381.4765625 1.361596 0.023971 -1.337625
1382.19921875 1.364051 -0.001301 -1.365352
1382.9140625 1.3018850000000002 -0.040363 -1.342248
1383.63671875 1.259335 -0.11055 -1.369885
1384.34375 1.3015100000000002 -0.047524 -1.349034
1385.05859375 1.28369 -0.039149 -1.322839
1385.79296875 1.319495 -0.051154 -1.370649
1386.515625 1.3287410000000002 -0.021459 -1.3502
1387.23046875 1.313242 -0.060028 -1.37327
1387.9609375 1.273622 -0.100023 -1.373645
1388.69140625 1.258013 -0.121074 -1.379087
1389.42578125 1.1924910000000002 -0.15 -1.342491
1390.13671875 1.332329 -0.102329 -1.434658
1390.87890625 1.302049 -0.024943 -1.326992
1391.59375 1.2850000000000001 -0.065 -1.35
1392.3125 1.2829110000000001 -0.076339 -1.35925
1393.05078125 1.275425 -0.112866 -1.388291
1393.78125 1.269456 -0.109855 -1.379311
1394.515625 1.2627819999999998 -0.121517 -1.384299
1395.24609375 1.263482 -0.125246 -1.388728
1395.984375 1.2443929999999999 -0.128424 -1.372817
1396.71484375 1.232895 -0.117105 -1.35
1397.4375 1.206012 -0.154741 -1.360753
1398.17578125 1.1938440000000001 -0.145425 -1.339269
1398.89453125 1.178018 -0.115041 -1.293059
1399.62109375 1.2575290000000001 -0.065902 -1.323431
1400.36328125 1.2373480000000001 -0.092639 -1.329987
1401.08984375 1.180364 -0.139636 -1.32
1401.828125 1.217737 -0.095778 -1.313515
1402.55859375 1.263859 -0.055105 -1.318964
1403.3046875 1.2922069999999999 -0.05674 -1.348947
1404.046875 1.3243690000000001 -0.07019 -1.394559
1404.765625 1.219275 -0.160537 -1.379812
1405.51953125 1.2031429999999999 -0.180681 -1.383824
1406.2421875 1.342965 -0.093319 -1.436284
1406.984375 1.293145 -0.020484 -1.313629
1407.7265625 1.324363 -0.044689 -1.369052
1408.45703125 1.281453 -0.080328 -1.361781
1409.19140625 1.237094 -0.066049 -1.303143
1409.9296875 1.286773 -0.022779 -1.309552
1410.6796875 1.310324 0.013817 -1.296507
1411.41796875 1.337415 -0.025 -1.362415
1412.1484375 1.259945 -0.104598 -1.364543
1412.88671875 1.1699320000000002 -0.139409 -1.309341
1413.625 1.106329 -0.175 -1.281329
1414.3671875 1.072953 -0.161932 -1.234885
1415.12109375 1.1761380000000001 -0.123862 -1.3
1415.86328125 1.23167 -0.115268 -1.346938
1416.59375 1.242237 -0.117763 -1.36
1417.33984375 1.250458 -0.099542 -1.35
1418.0859375 1.277395 -0.105368 -1.382763
1418.8359375 1.222716 -0.130317 -1.353033
1419.5546875 1.176704 -0.170096 -1.3468
1420.29296875 1.202529 -0.112471 -1.315
1421.0234375 1.231101 -0.125527 -1.356628
1421.75390625 1.221807 -0.14537 -1.367177
1422.5 1.2532809999999999 -0.13 -1.383281
1423.2265625 1.225477 -0.131659 -1.357136
1423.9609375 1.3841809999999999 -0.064434 -1.448615
1424.6953125 1.25644 -0.055 -1.31144
1425.43359375 1.379626 -0.040353 -1.419979
1426.17578125 1.261768 -0.125436 -1.387204
1426.88671875 1.208148 -0.204823 -1.412971
1427.62109375 1.326801 -0.099172 -1.425973
1428.33984375 1.27085 -0.027244 -1.298094
1429.0703125 1.299588 -0.039913 -1.339501
1429.796875 1.298727 -0.090692 -1.389419
1430.51953125 1.264635 -0.110077 -1.374712
1431.2421875 1.197935 -0.122059 -1.319994
1431.96875 1.232002 -0.07907 -1.311072
1432.69921875 1.249246 -0.031488 -1.280734
1433.42578125 1.300446 -0.070431 -1.370877
1434.12890625 1.259025 -0.088031 -1.347056
1434.8515625 1.239034 -0.140527 -1.379561
1435.57421875 1.223357 -0.149312 -1.372669
1436.29296875 1.217543 -0.167457 -1.385
1437.02734375 1.2377850000000001 -0.171695 -1.40948
1437.75390625 1.244789 -0.130351 -1.37514
1438.48046875 1.257725 -0.100012 -1.357737
1439.21875 1.281071 -0.073929 -1.355
1439.95703125 1.244817 -0.126196 -1.371013
1440.6953125 1.217142 -0.160249 -1.377391
1441.40625 1.226314 -0.119229 -1.345543
1442.13671875 1.256846 -0.058154 -1.315
1442.87109375 1.283805 -0.044606 -1.328411
1443.58984375 1.225774 -0.082209 -1.307983
1444.328125 1.2539230000000001 -0.136072 -1.389995
1445.05078125 1.185375 -0.139564 -1.324939
1445.765625 1.449755 -0.093871 -1.543626
1446.5 1.306412 -0.06 -1.366412
1447.22265625 1.312564 -0.022436 -1.335
1447.95703125 1.330123 -0.013328 -1.343451
1448.6484375 1.2580019999999998 -0.10152 -1.359522
1449.375 1.255 -0.06 -1.315
1450.09375 1.245956 -0.001719 -1.247675
1450.8203125 1.313335 0.013844 -1.299491
1451.55078125 1.296671 0.016271 -1.2804
1452.27734375 1.2666920000000002 -0.072342 -1.339034
1452.9921875 1.2141689999999998 -0.070831 -1.285
1453.71484375 1.212856 -0.075402 -1.288258
1454.45703125 1.232273 -0.020243 -1.252516
1455.1875 1.266603 -0.026354 -1.292957
1455.89453125 1.253703 -0.065075 -1.318778
1456.625 1.237091 -0.07 -1.307091
1457.35546875 1.224417 -0.084709 -1.309126
1458.08203125 1.243136 -0.084829 -1.327965
1458.83203125 1.231745 -0.063175 -1.29492
1459.57421875 1.1787180000000002 -0.076439 -1.255157
1460.30859375 1.229074 -0.040926 -1.27
1461.046875 1.228635 -0.05627 -1.284905
1461.80859375 1.229057 -0.075775 -1.304832
1462.55859375 1.235573 -0.07215 -1.307723
1463.28125 1.185119 -0.110729 -1.295848
1464.04296875 1.182265 -0.102489 -1.284754
1464.77734375 1.2448290000000002 -0.061346 -1.306175
1465.515625 1.263834 -0.009066 -1.2729
1466.26953125 1.289914 -0.020086 -1.31
1467.0078125 1.2003730000000001 -0.100447 -1.30082
1467.73046875 1.2815260000000002 -0.070096 -1.351622
1468.47265625 1.277476 -0.022524 -1.3
1469.2109375 1.343251 -0.010394 -1.353645
1469.94140625 1.2474020000000001 -0.081735 -1.329137
1470.65234375 1.2264599999999999 -0.047876 -1.274336
1471.390625 1.254229 0.009229 -1.245
1472.12109375 1.2895590000000001 0.009559 -1.28
1472.8359375 1.243063 -0.085021 -1.328084
1473.58984375 1.262091 -0.037221 -1.299312
1474.3203125 1.285858 0.004476 -1.281382
1475.05078125 1.277523 -0.026435 -1.303958
1475.796875 1.2738809999999998 -0.030917 -1.304798
1476.5390625 1.2325940000000002 -0.065149 -1.297743
1477.2890625 1.214926 -0.035074 -1.25
1478.0078125 1.2309560000000002 -0.011982 -1.242938
1478.7578125 1.275144 0.024561 -1.250583
1479.4921875 1.231071 -0.011697 -1.242768
1480.21875 1.2319289999999998 -0.033071 -1.265
1480.96875 1.228548 -0.006691 -1.235239
1481.70703125 1.281979 0.029463 -1.252516
1482.4375 1.2532839999999998 -0.019516 -1.2728
1483.1875 1.2086459999999999 -0.094 -1.302646
1483.9375 1.194706 -0.0812 -1.275906
1484.671875 1.177631 -0.060674 -1.238305
1485.40234375 1.2572640000000002 -0.033378 -1.290642
1486.16015625 1.2400259999999999 -0.067236 -1.307262
1486.8984375 1.2097879999999999 -0.10291 -1.312698
1487.640625 1.343825 -0.072505 -1.41633
1488.40234375 1.3074649999999999 0.014867 -1.292598
1489.1328125 1.313344 -0.029245 -1.342589
1489.8671875 1.3167769999999999 -0.079908 -1.396685
1490.609375 1.425645 -0.074355 -1.5
1491.33984375 1.366089 -0.037094 -1.403183
1492.07421875 1.350073 0.014564 -1.335509
1492.78125 1.295772 -0.071172 -1.366944
1493.51953125 1.1928539999999999 -0.100087 -1.292941
1494.23046875 1.3165689999999999 -0.050073 -1.366642
1494.96484375 1.275583 -0.026041 -1.301624
1495.70703125 1.3101699999999998 -0.040299 -1.350469
1496.41796875 1.278328 -0.094676 -1.373004
1497.1484375 1.223809 -0.115073 -1.338882
1497.89453125 1.201584 -0.14502 -1.346604
1498.640625 1.259029 -0.112045 -1.371074
1499.3828125 1.247438 -0.14232 -1.389758
1500.10546875 1.2449249999999998 -0.135075 -1.38
1500.8515625 1.2095980000000002 -0.150402 -1.36
1501.57421875 1.190652 -0.120095 -1.310747
1502.31640625 1.2114150000000001 -0.100051 -1.311466
1503.07421875 1.278665 -0.087668 -1.366333
1503.796875 1.2494210000000001 -0.135087 -1.384508
1504.52734375 1.205176 -0.172321 -1.377497
1505.28515625 1.2311830000000001 -0.16783 -1.399013
1506.03125 1.212391 -0.1875 -1.399891
1506.78515625 1.20304 -0.120636 -1.323676
1507.52734375 1.2233969999999998 -0.105682 -1.329079
1508.26953125 1.2413020000000001 -0.104463 -1.345765
1509.01953125 1.2539220000000002 -0.080067 -1.333989
1509.7890625 1.254606 -0.110345 -1.364951
1510.55859375 1.223247 -0.13215 -1.355397
1511.29296875 1.218049 -0.086513 -1.304562
1512.03515625 1.229349 -0.082984 -1.312333
1512.80078125 1.2097570000000002 -0.1038 -1.313557
1513.5390625 1.21231 -0.100105 -1.312415
1514.28515625 1.1875550000000001 -0.106129 -1.293684
1515.03125 1.168869 -0.091131 -1.26
1515.7578125 1.276189 -0.034103 -1.310292
1516.4921875 1.252068 0.01209 -1.239978
1517.23046875 1.305421 0.029908 -1.275513
1517.96875 1.2724739999999999 -6.61E-4 -1.273135
1518.69921875 1.195973 -0.008929 -1.204902
1519.42578125 1.139124 -0.035789 -1.174913
1520.1875 1.1932989999999999 -0.00767 -1.200969
1520.921875 1.2290809999999999 0.024813 -1.204268
1521.65625 1.214949 -0.035 -1.249949
1522.41015625 1.224697 -0.030052 -1.254749
1523.12890625 1.2057710000000001 -0.005529 -1.2113
1523.87109375 1.287646 -0.021895 -1.309541
1524.625 1.264649 -0.04 -1.304649
1525.36328125 1.2222940000000002 -0.098275 -1.320569
1526.09765625 1.236335 -0.085638 -1.321973
1526.84765625 1.1639709999999999 -0.151029 -1.315
1527.58984375 1.1811340000000001 -0.099929 -1.281063
1528.328125 1.231015 -0.023884 -1.254899
1529.05859375 1.2786819999999999 0.013974 -1.264708
1529.796875 1.280144 0.004915 -1.275229
1530.53125 1.273987 -0.035833 -1.30982
1531.27734375 1.230407 -0.075 -1.305407
1532.03125 1.209894 -0.044637 -1.254531
1532.76953125 1.206523 -0.010071 -1.216594
1533.51171875 1.254575 -0.031621 -1.286196
1534.26171875 1.26308 -0.046838 -1.309918
1535.0078125 1.190936 -0.103436 -1.294372
1535.74609375 1.1848260000000002 -0.041912 -1.226738
1536.45703125 1.225578 0.001369 -1.224209
1537.19140625 1.2728979999999999 0.01416 -1.258738
1537.90625 1.22 -0.045 -1.265
1538.640625 1.1731230000000001 -0.04364 -1.216763
1539.37109375 1.1994390000000001 0.040785 -1.158654
1540.09375 1.2376550000000002 0.044585 -1.19307
1540.80859375 1.267724 0.044951 -1.222773
1541.55078125 1.2325 -0.032154 -1.264654
1542.28515625 1.2009310000000002 -0.054655 -1.255586
1543.0234375 1.199892 -0.046348 -1.24624
1543.74609375 1.211288 -0.046421 -1.257709
1544.484375 1.2425549999999999 -0.066683 -1.309238
1545.21484375 1.2239440000000001 -0.075597 -1.299541
1545.9609375 1.171436 -0.160022 -1.331458
1546.70703125 1.156813 -0.118379 -1.275192
1547.43359375 1.2392859999999999 -0.015047 -1.254333
1548.17578125 1.262888 -0.03702 -1.299908
1548.90625 1.233017 -0.042683 -1.2757
1549.6484375 1.1760769999999998 -0.106348 -1.282425
1550.390625 1.188246 -0.098691 -1.286937
1551.10546875 1.255277 0.009965 -1.245312
1551.83984375 1.274457 -0.005543 -1.28
1552.55859375 1.3263859999999998 -0.045306 -1.371692
1553.29296875 1.2455500000000002 -0.118175 -1.363725
1554.03515625 1.196964 -0.107267 -1.304231
1554.76171875 1.194572 -0.069915 -1.264487
1555.48828125 1.225907 -0.043987 -1.269894
1556.23046875 1.258995 -0.030028 -1.289023
1556.96484375 1.1900819999999999 -0.08841 -1.278492
1557.703125 1.1986659999999998 -0.051624 -1.25029
1558.421875 1.2242309999999998 -0.015311 -1.239542
1559.15625 1.222589 -0.069078 -1.291667
1559.87890625 1.1600489999999999 -0.151858 -1.311907
1560.609375 1.1718359999999999 -0.119431 -1.291267
1561.34765625 1.227418 -0.067582 -1.295
1562.06640625 1.2769119999999998 -0.106016 -1.382928
1562.7890625 1.234445 -0.135 -1.369445
1563.51953125 1.201379 -0.175044 -1.376423
1564.2421875 1.198607 -0.166893 -1.3655
1564.97265625 1.207068 -0.147932 -1.355
1565.68359375 1.284059 -0.125865 -1.409924
1566.40625 1.2292779999999999 -0.193038 -1.422316
1567.1328125 1.169163 -0.193014 -1.362177
1567.8515625 1.24333 -0.10104 -1.34437
1568.5859375 1.272389 -0.065282 -1.337671
1569.3046875 1.274119 -0.145859 -1.419978
1570.01953125 1.243349 -0.145043 -1.388392
1570.75 1.1823730000000001 -0.12 -1.302373
1571.46484375 1.1943570000000001 -0.082244 -1.276601
1572.19921875 1.2575859999999999 -0.057695 -1.315281
1572.890625 1.273 -0.056578 -1.329578
1573.625 1.2489709999999998 -0.08 -1.328971
1574.3359375 1.151896 -0.130086 -1.281982
1575.05078125 1.183022 -0.045925 -1.228947
1575.76953125 1.191406 -0.015084 -1.20649
1576.484375 1.2375150000000001 -0.041543 -1.279058
1577.19921875 1.201524 -0.06345 -1.264974
1577.9140625 1.179899 -0.125101 -1.305
1578.64453125 1.214586 -0.090012 -1.304598
1579.3671875 1.151454 -0.103436 -1.25489
1580.0703125 1.208415 -0.035441 -1.243856
1580.7890625 1.274026 -0.045022 -1.319048
1581.51171875 1.263527 -0.080268 -1.343795
1582.23046875 1.2077689999999999 -0.090006 -1.297775
1582.9609375 1.177705 -0.075048 -1.252753
1583.68359375 1.158324 -0.077666 -1.23599
1584.41015625 1.180954 -0.026376 -1.20733
1585.1171875 1.2527469999999998 -0.005972 -1.258719
1585.859375 1.277965 -0.022035 -1.3
1586.5859375 1.204443 -0.11 -1.314443
1587.296875 1.192164 -0.090288 -1.282452
1588.01171875 1.159551 -0.114956 -1.274507
1588.7265625 1.221642 -0.05 -1.271642
1589.4453125 1.21851 -0.060441 -1.278951
1590.15234375 1.2038360000000001 -0.102461 -1.306297
1590.88671875 1.192476 -0.13 -1.322476
1591.58984375 1.1558860000000002 -0.126464 -1.28235
1592.296875 1.146982 -0.076553 -1.223535
1593.02734375 1.215323 -0.027366 -1.242689
1593.74609375 1.2163169999999999 -0.06 -1.276317
1594.46484375 1.198472 -0.089701 -1.288173
1595.17578125 1.084587 -0.16085 -1.245437
1595.89453125 1.169052 -0.079719 -1.248771
1596.609375 1.2235669999999998 -0.051433 -1.275
1597.328125 1.1981849999999998 -0.078915 -1.2771
1598.0625 1.2109809999999999 -0.129342 -1.340323
1598.7890625 1.134065 -0.159449 -1.293514
1599.5 1.1589 -0.085 -1.2439
1600.234375 1.220605 -0.049395 -1.27
1600.953125 1.239474 -0.090546 -1.33002
1601.68359375 1.164352 -0.135626 -1.299978
1602.3828125 1.215038 -0.10791 -1.322948
1603.1171875 1.219689 -0.07019 -1.289879
1603.83203125 1.2873569999999999 -0.07 -1.357357
1604.54296875 1.205867 -0.151157 -1.357024
1605.2734375 1.1754550000000001 -0.179023 -1.354478
1605.984375 1.2999939999999999 -0.136953 -1.436947
1606.69921875 1.225506 -0.149494 -1.375
1607.4140625 1.298447 -0.105278 -1.403725
1608.14453125 1.292929 -0.125124 -1.418053
1608.85546875 1.211799 -0.180037 -1.391836
1609.55859375 1.1956390000000001 -0.13547 -1.331109
1610.28125 1.245513 -0.085346 -1.330859
1610.99609375 1.230321 -0.154328 -1.384649
1611.703125 1.1692129999999998 -0.190692 -1.359905
1612.43359375 1.131367 -0.225325 -1.356692
1613.14453125 1.092464 -0.219722 -1.312186
1613.86328125 1.1546910000000001 -0.185585 -1.340276
1614.58203125 1.188239 -0.141513 -1.329752
1615.3203125 1.231755 -0.120578 -1.352333
1616.04296875 1.230846 -0.126709 -1.357555
1616.74609375 1.2267489999999999 -0.131004 -1.357753
1617.48828125 1.22723 -0.088154 -1.315384
1618.2109375 1.284456 -0.03 -1.314456
1618.9375 1.222237 -0.117763 -1.34
1619.671875 1.178868 -0.175674 -1.354542
1620.40625 1.171436 -0.16616 -1.337596
1621.12890625 1.187619 -0.091631 -1.27925
1621.859375 1.266375 -0.024325 -1.2907
1622.60546875 1.305453 -0.045106 -1.350559
1623.3203125 1.219346 -0.103575 -1.322921
1624.03125 1.198265 -0.100977 -1.299242
1624.75390625 1.370956 0.001308 -1.369648
1625.47265625 1.2658070000000001 0.026572 -1.239235
1626.17578125 1.349175 0.044268 -1.304907
1626.90234375 1.29242 0.002389 -1.290031
1627.61328125 1.2601099999999998 -0.008331 -1.268441
1628.3203125 1.265442 0.026265 -1.239177
1629.03515625 1.261413 0.011947 -1.249466
1629.7734375 1.3206769999999999 0.049254 -1.271423
1630.49609375 1.251157 -0.001808 -1.252965
1631.203125 1.204839 0.01 -1.194839
1631.9453125 1.210839 0.044464 -1.166375
1632.66015625 1.220987 2.99E-4 -1.220688
1633.38671875 1.24399 -0.04183 -1.28582
1634.12109375 1.2315960000000001 -0.06794 -1.299536
1634.8515625 1.2001510000000002 -0.04425 -1.244401
1635.57421875 1.238448 -0.026552 -1.265
1636.3046875 1.190734 -0.059124 -1.249858
1637.05078125 1.233922 -0.04089 -1.274812
1637.77734375 1.24201 -0.082301 -1.324311
1638.49609375 1.1729580000000002 -0.101967 -1.274925
1639.234375 1.236074 -0.039395 -1.275469
1639.95703125 1.2460309999999999 0.001884 -1.244147
1640.6796875 1.311019 -0.011492 -1.322511
1641.41796875 1.277285 -0.02 -1.297285
1642.1484375 1.202157 -0.031736 -1.233893
1642.8671875 1.277664 0.003089 -1.274575
1643.6015625 1.212852 0.005442 -1.20741
1644.34375 1.3047920000000002 9.6E-4 -1.303832
1645.0546875 1.2248800000000002 -1.2E-4 -1.225
1645.7578125 1.228491 0.061914 -1.166577
1646.48828125 1.235485 0.0896 -1.145885
1647.1953125 1.2773510000000001 0.073247 -1.204104
1647.8984375 1.277097 0.054562 -1.222535
1648.62890625 1.226284 -0.002555 -1.228839
1649.33984375 1.198615 0.004357 -1.194258
1650.05859375 1.262857 0.014004 -1.248853
1650.7734375 1.270206 0.008319 -1.261887
1651.515625 1.2415 -0.063477 -1.304977
1652.23828125 1.158977 -0.070562 -1.229539
1652.9453125 1.199052 -0.038472 -1.237524
1653.68359375 1.282516 -0.03 -1.312516
1654.3984375 1.250722 -0.02 -1.270722
1655.12890625 1.2380129999999998 -0.033087 -1.2711
1655.87890625 1.202223 -0.097917 -1.30014
1656.609375 1.167918 -0.061816 -1.229734
1657.33984375 1.201482 -0.002238 -1.20372
1658.0625 1.264386 0.043947 -1.220439
1658.81640625 1.214891 0.024891 -1.19
1659.52734375 1.20685 0.078069 -1.128781
1660.24609375 1.1722739999999998 0.102361 -1.069913
1660.97265625 1.239982 0.093959 -1.146023
1661.68359375 1.298959 0.034154 -1.264805
1662.41015625 1.205171 0.014354 -1.190817
1663.140625 1.226462 0.029343 -1.197119
1663.87890625 1.213042 0.066323 -1.146719
1664.59375 1.3145529999999999 0.073375 -1.241178
1665.32421875 1.2474100000000001 -0.03259 -1.28
1666.07421875 1.21597 -0.001996 -1.217966
1666.80078125 1.22571 0.033558 -1.192152
1667.52734375 1.2683499999999999 0.02345 -1.2449
1668.2578125 1.25267 0.003163 -1.249507
1668.97265625 1.301379 0.031379 -1.27
1669.69921875 1.225643 -0.017668 -1.243311
1670.4296875 1.1878520000000001 -0.040258 -1.22811
1671.15625 1.26777 0.012821 -1.254949
1671.8671875 1.2855880000000002 -0.054374 -1.339962
1672.578125 1.250578 -0.081938 -1.332516
1673.3203125 1.225253 -0.103868 -1.329121
1674.0390625 1.1937609999999999 -0.078958 -1.272719
1674.7578125 1.213768 -0.051204 -1.264972
1675.484375 1.232907 -0.020762 -1.253669
1676.19921875 1.289643 -0.070331 -1.359974
1676.921875 1.18373 -0.18127 -1.365
1677.65625 1.203191 -0.182857 -1.386048
1678.390625 1.2175420000000001 -0.119562 -1.337104
1679.11328125 1.28996 -0.095 -1.38496
1679.828125 1.265883 -0.142059 -1.407942
1680.578125 1.232404 -0.156579 -1.388983
1681.29296875 1.189807 -0.115155 -1.304962
1682.015625 1.319553 -0.01031 -1.329863
1682.73046875 1.293631 -0.005013 -1.298644
1683.4375 1.319694 -0.007857 -1.327551
1684.15625 1.277925 -0.040742 -1.318667
1684.87109375 1.191051 -0.10292 -1.293971
1685.59765625 1.2848629999999999 -0.040137 -1.325
1686.3046875 1.209715 -0.006144 -1.215859
1687.0234375 1.2414830000000001 -0.016014 -1.257497
1687.74609375 1.227981 -0.061555 -1.289536
1688.46484375 1.1790900000000002 -0.064701 -1.243791
1689.19140625 1.18675 -0.035583 -1.222333
1689.90234375 1.260088 -0.057651 -1.317739
1690.625 1.2787380000000002 -0.045 -1.323738
1691.34375 1.233091 -0.098468 -1.331559
1692.06640625 1.1676799999999998 -0.146424 -1.314104
1692.79296875 1.176626 -0.111607 -1.288233
1693.5078125 1.237778 -0.126814 -1.364592
1694.22265625 1.24752 -0.11748 -1.365
1694.94140625 1.242065 -0.16018 -1.402245
1695.6484375 1.209621 -0.131929 -1.34155
1696.3671875 1.187304 -0.07265 -1.259954
1697.05078125 1.2836720000000001 -0.035429 -1.319101
1697.765625 1.2341989999999998 -0.040801 -1.275
1698.47265625 1.1998069999999998 -0.097962 -1.297769
1699.1875 1.213393 -0.115 -1.328393
1699.91015625 1.179166 -0.163053 -1.342219
1700.62890625 1.18341 -0.153027 -1.336437
1701.35546875 1.140098 -0.149483 -1.289581
1702.0703125 1.141333 -0.056978 -1.198311
1702.80859375 1.232482 -0.020247 -1.252729
1703.54296875 1.209621 -0.063265 -1.272886
1704.24609375 1.2230860000000001 -0.086631 -1.309717
1704.96875 1.225751 -0.140267 -1.366018
1705.6875 1.1527479999999999 -0.14 -1.292748
1706.40625 1.129926 -0.086 -1.215926
1707.1328125 1.2083359999999999 0.023456 -1.18488
1707.85546875 1.293243 0.049956 -1.243287
1708.57421875 1.262326 -0.017668 -1.279994
1709.28125 1.184223 -0.071625 -1.255848
1710.0234375 1.1656659999999999 -0.033381 -1.199047
1710.7421875 1.141832 -0.028168 -1.17
1711.46484375 1.147003 0.012097 -1.134906
1712.1875 1.143473 -0.066667 -1.21014
1712.8984375 1.132377 -0.1062 -1.238577
1713.62890625 1.129781 -0.095529 -1.22531
1714.3515625 1.217967 -0.035 -1.252967
1715.09765625 1.2576880000000001 0.072688 -1.185
1715.81640625 1.3311330000000001 0.07 -1.261133
1716.52734375 1.292242 0.023982 -1.26826
1717.26953125 1.218016 -0.030344 -1.24836
1717.99609375 1.199897 -0.075038 -1.274935
1718.71875 1.2139 -0.061027 -1.274927
1719.43359375 1.1987930000000002 -0.063384 -1.262177
1720.16015625 1.171376 -0.073172 -1.244548
1720.8828125 1.209389 0.014581 -1.194808
1721.62109375 1.223262 0.034993 -1.188269
1722.36328125 1.262877 0.053629 -1.209248
1723.09375 1.288021 0.002928 -1.285093
1723.82421875 1.269553 -0.025447 -1.295
1724.58203125 1.2355660000000002 -0.056215 -1.291781
1725.328125 1.21987 -0.05 -1.26987
1726.0703125 1.189716 -0.00776 -1.197476
1726.81640625 1.259137 -0.010724 -1.269861
1727.5546875 1.238442 -0.075 -1.313442
1728.2890625 1.247309 -0.120022 -1.367331
1729.03125 1.233393 -0.151607 -1.385
1729.77734375 1.260821 -0.085296 -1.346117
1730.51171875 1.2868199999999999 -0.01313 -1.29995
1731.2421875 1.2919509999999998 -0.013049 -1.305
1732.0 1.3 -0.02 -1.32
1732.73828125 1.206615 -0.062739 -1.269354
1733.44921875 1.24814 -0.042154 -1.290294
1734.203125 1.274439 -0.020422 -1.294861
1734.93359375 1.303404 -0.015477 -1.318881
1735.6640625 1.2408350000000001 -0.075567 -1.316402
1736.40234375 1.202154 -0.097202 -1.299356
1737.12890625 1.229574 -0.075808 -1.305382
1737.8671875 1.259273 -0.040679 -1.299952
1738.59375 1.30384 -0.06616 -1.37
1739.33984375 1.249422 -0.118377 -1.367799
1740.0703125 1.220726 -0.098171 -1.318897
1740.765625 1.216035 -0.118965 -1.335
1741.5078125 1.2582609999999999 -0.100921 -1.359182
1742.21875 1.2421659999999999 -0.100977 -1.343143
1742.94140625 1.193827 -0.080052 -1.273879
1743.66015625 1.206714 -0.007267 -1.213981
1744.3828125 1.278557 6.97E-4 -1.27786
1745.0859375 1.231242 -0.080322 -1.311564
1745.8046875 1.193844 -0.161156 -1.355
1746.53125 1.1973580000000001 -0.102642 -1.3
1747.2578125 1.2736260000000001 -0.061697 -1.335323
1747.95703125 1.270465 -0.033593 -1.304058
1748.6953125 1.253965 -0.077567 -1.331532
1749.4140625 1.208383 -0.090047 -1.29843
1750.1328125 1.2237040000000001 -0.115419 -1.339123
1750.87890625 1.267673 -0.101421 -1.369094
1751.60546875 1.300414 -0.155069 -1.455483
1752.33203125 1.2703259999999998 -0.208039 -1.478365
1753.0546875 1.190776 -0.191183 -1.381959
1753.80078125 1.205806 -0.099955 -1.305761
1754.5390625 1.213667 -0.070363 -1.28403
1755.2421875 1.285623 -0.06291 -1.348533
1755.98828125 1.2919319999999999 -0.091385 -1.383317
1756.70703125 1.197552 -0.123631 -1.321183
1757.42578125 1.196406 -0.08643 -1.282836
1758.1640625 1.263334 -0.050845 -1.314179
1758.890625 1.284531 -0.068625 -1.353156
1759.609375 1.17699 -0.173516 -1.350506
1760.33203125 1.233993 -0.115231 -1.349224
1761.07421875 1.211741 -0.105 -1.316741
1761.80078125 1.267513 -0.095431 -1.362944
1762.51171875 1.2493649999999998 -0.142686 -1.392051
1763.25 1.2123940000000002 -0.14 -1.352394
1763.97265625 1.184704 -0.090296 -1.275
1764.69921875 1.238004 -0.021996 -1.26
1765.44140625 1.254888 -0.074158 -1.329046
1766.17578125 1.19161 -0.102485 -1.294095
1766.89453125 1.19441 -0.040028 -1.234438
1767.62109375 1.221226 -0.058774 -1.28
1768.3671875 1.287315 -0.052679 -1.339994
1769.08984375 1.277733 -0.097267 -1.375
1769.8046875 1.19964 -0.168204 -1.367844
1770.5390625 1.221572 -0.120048 -1.34162
1771.265625 1.215811 -0.057708 -1.273519
1771.9921875 1.262927 -0.097598 -1.360525
1772.73046875 1.287737 -0.155038 -1.442775
1773.46484375 1.171705 -0.240141 -1.411846
1774.18359375 1.1908949999999998 -0.210325 -1.40122
1774.9140625 1.184074 -0.17 -1.354074
1775.66015625 1.261022 -0.104603 -1.365625
1776.3828125 1.271869 -0.140204 -1.412073
1777.0859375 1.198578 -0.180368 -1.378946
1777.8203125 1.21879 -0.092585 -1.311375
1778.54296875 1.237714 -0.063148 -1.300862
1779.25 1.252705 -0.09 -1.342705
1779.98046875 1.188549 -0.095075 -1.283624
1780.6953125 1.171832 -0.072486 -1.244318
1781.41015625 1.231896 -0.01776 -1.249656
1782.11328125 1.180028 -0.063394 -1.243422
1782.859375 1.240324 -0.0445 -1.284824
1783.56640625 1.190992 -0.090111 -1.281103
1784.2734375 1.159585 -0.097637 -1.257222
1784.99609375 1.171121 -0.060263 -1.231384
1785.7109375 1.213706 -0.020022 -1.233728
1786.42578125 1.189085 -0.087715 -1.2768
1787.1484375 1.187173 -0.071984 -1.259157
1787.890625 1.215916 -0.052045 -1.267961
1788.6015625 1.222014 -0.04152 -1.263534
1789.32421875 1.234176 -0.072772 -1.306948
1790.0703125 1.202348 -0.051144 -1.253492
1790.7890625 1.181059 -0.108444 -1.289503
1791.5078125 1.223719 -0.040656 -1.264375
1792.22265625 1.248757 -0.056243 -1.305
1792.9375 1.205357 -0.105 -1.310357
1793.6484375 1.142895 -0.131697 -1.274592
1794.37109375 1.1931669999999999 -0.09048 -1.283647
1795.109375 1.24456 -0.046641 -1.291201
1795.8203125 1.18384 -0.100625 -1.284465
1796.53125 1.174876 -0.109799 -1.284675
1797.2734375 1.190715 -0.062183 -1.252898
1797.9921875 1.237201 -0.026219 -1.26342
1798.72265625 1.1891919999999998 -0.065808 -1.255
1799.4375 1.170754 -0.046333 -1.217087
1800.1640625 1.15026 -0.043513 -1.193773
1800.890625 1.165984 -0.01143 -1.177414
1801.6171875 1.1680949999999999 -0.060208 -1.228303
1802.35546875 1.153022 -0.130101 -1.283123
1803.0703125 1.17476 -0.118825 -1.293585
1803.78515625 1.189506 -0.095385 -1.284891
1804.515625 1.244426 -0.05017 -1.294596
