4.48046875 1.511714 0.88958 -0.622134
5.3046875 1.498684 0.918719 -0.579965
6.11328125 1.527778 0.950466 -0.577312
6.91015625 1.227393 0.750289 -0.477104
7.7265625 0.9945090000000001 0.724593 -0.269916
8.53125 1.267907 0.857907 -0.41
9.3671875 1.3297729999999999 0.758782 -0.570991
10.25390625 1.38098 0.665779 -0.715201
11.1015625 1.481417 0.772061 -0.709356
11.91015625 1.4033060000000002 0.755313 -0.647993
12.71484375 1.392017 0.67335 -0.718667
13.51171875 1.127017 0.562896 -0.564121
14.34375 1.363205 0.888265 -0.47494
15.1796875 1.50633 0.876362 -0.629968
16.01953125 1.4181300000000001 0.729856 -0.688274
16.8984375 1.371549 0.773413 -0.598136
17.72265625 1.428331 0.853542 -0.574789
18.51171875 1.41988 0.829372 -0.590508
19.30859375 1.3432279999999999 0.750811 -0.592417
20.11328125 1.501611 0.892167 -0.609444
20.96875 1.249501 0.692557 -0.556944
21.8203125 1.2412450000000002 0.790749 -0.450496
22.6640625 1.112638 0.863615 -0.249023
23.53515625 1.114616 0.669616 -0.445
24.33984375 1.299935 0.653402 -0.646533
25.1171875 1.481925 0.823544 -0.658381
25.921875 1.485302 0.808444 -0.676858
26.75 1.392792 0.7 -0.692792
27.609375 1.374569 0.695263 -0.679306
28.45703125 1.404088 0.672981 -0.731107
29.28515625 1.192262 0.547262 -0.645
30.12109375 1.107533 0.507555 -0.599978
30.91796875 0.9938819999999999 0.583882 -0.41
31.703125 1.253883 0.609132 -0.644751
32.5234375 1.219927 0.607915 -0.612012
33.3828125 1.385573 0.725573 -0.66
34.25 1.429732 0.76 -0.669732
35.08984375 1.36873 0.755382 -0.613348
35.90625 1.34184 0.762689 -0.579151
36.7265625 1.204002 0.737311 -0.466691
37.52734375 1.14185 0.805925 -0.335925
38.32421875 1.30605 0.781015 -0.525035
39.16015625 1.485137 0.855137 -0.63
40.0234375 1.348644 0.761887 -0.586757
40.8828125 1.356608 0.828275 -0.528333
41.69921875 1.296782 0.78768 -0.509102
42.5 1.244813 0.72 -0.524813
43.328125 0.951586 0.629532 -0.322054
44.13671875 1.358244 0.84566 -0.512584
44.953125 1.490294 0.829465 -0.660829
45.80859375 1.388508 0.80154 -0.586968
46.671875 1.416696 0.768832 -0.647864
47.51953125 1.3439510000000001 0.644528 -0.699423
48.3125 1.121944 0.684421 -0.437523
49.109375 1.19829 0.683388 -0.514902
49.94140625 1.0979780000000001 0.664518 -0.43346
50.7578125 1.250785 0.761685 -0.4891
51.58984375 1.512022 0.890226 -0.621796
52.4375 1.398711 0.6 -0.798711
53.2890625 1.437957 0.707957 -0.73
54.109375 1.4275980000000001 0.77341 -0.654188
54.90234375 1.376375 0.694018 -0.682357
55.70703125 1.228565 0.663565 -0.565
56.55078125 1.241 0.780751 -0.460249
57.39453125 1.4428079999999999 0.674883 -0.767925
58.234375 1.437822 0.742822 -0.695
59.07421875 1.470366 0.790366 -0.68
59.90625 1.396853 0.701853 -0.695
60.7109375 1.478974 0.899159 -0.579815
61.50390625 1.35676 0.867519 -0.489241
62.31640625 1.104309 0.684856 -0.419453
63.17578125 1.387456 0.643269 -0.744187
64.02734375 1.437894 0.743836 -0.694058
64.859375 1.317284 0.816964 -0.50032
65.68359375 1.290079 0.624801 -0.665278
66.5078125 1.34067 0.713107 -0.627563
67.3125 1.442189 0.84912 -0.593069
68.11328125 1.278731 0.718956 -0.559775
68.95703125 1.181324 0.686905 -0.494419
69.82421875 1.319799 0.838093 -0.481706
70.66796875 1.319837 0.734837 -0.585
71.48828125 1.297869 0.76675 -0.531119
72.2890625 1.367049 0.802983 -0.564066
73.1015625 1.540257 0.856532 -0.683725
73.90625 1.301531 0.745 -0.556531
74.71875 1.325659 0.731611 -0.594048
75.58203125 1.4745309999999998 0.863733 -0.610798
76.44921875 0.746387 0.609168 -0.137219
77.27734375 0.961175 0.724572 -0.236603
78.08984375 1.009716 0.839716 -0.17
78.890625 1.121162 0.688874 -0.432288
79.7109375 1.379685 0.853943 -0.525742
80.52734375 1.555043 1.151427 -0.403616
81.31640625 0.76 0.28 -0.48
82.171875 0.855113 0.349081 -0.506032
83.0 0.864905 0.47 -0.394905
83.78515625 0.782154 0.419298 -0.362856
84.5546875 0.8767039999999999 0.386675 -0.490029
85.32421875 0.908264 0.463376 -0.444888
86.109375 0.941506 0.578154 -0.363352
86.9140625 0.799974 0.384974 -0.415
87.73828125 0.916585 0.4468 -0.469785
88.5625 0.868857 0.475 -0.393857
89.390625 0.811887 0.368203 -0.443684
90.18359375 0.911646 0.404507 -0.507139
90.9296875 0.86154 0.432931 -0.428609
91.6953125 0.840352 0.469451 -0.370901
92.4921875 0.8596459999999999 0.459792 -0.399854
93.3203125 0.8877919999999999 0.500728 -0.387064
94.12109375 0.868688 0.43872 -0.429968
94.6875 1.171066 -0.229111 -1.400177
95.484375 1.125222 0.838463 -0.286759
96.296875 1.177378 0.718106 -0.459272
97.08203125 1.108935 0.604404 -0.504531
97.8828125 1.35716 0.78765 -0.56951
98.7109375 1.350452 0.759757 -0.590695
99.57421875 1.2516129999999999 0.716522 -0.535091
100.421875 1.244459 0.639491 -0.604968
101.25390625 1.249289 0.7887 -0.460589
102.09375 0.9815480000000001 0.807278 -0.17427
102.89453125 0.981317 0.719873 -0.261444
103.68359375 0.9899290000000001 0.696759 -0.29317
104.5 1.1300000000000001 0.8 -0.33
105.33984375 1.231352 0.785727 -0.445625
106.2109375 1.513444 1.08832 -0.425124
107.05078125 1.6743100000000002 1.301344 -0.372966
107.84375 0.904443 0.45325 -0.451193
108.65625 0.803438 0.373438 -0.43
109.4453125 0.925 0.505 -0.42
110.23046875 0.9529779999999999 0.55497 -0.398008
111.05078125 0.889696 0.469696 -0.42
111.890625 0.882835 0.437864 -0.444971
112.74609375 0.927508 0.468088 -0.45942
113.5546875 0.858304 0.488304 -0.37
114.32421875 0.82673 0.39673 -0.43
115.13671875 1.542709 1.212709 -0.33
115.921875 0.9415260000000001 0.464365 -0.477161
116.70703125 0.818292 0.363324 -0.454968
117.54296875 1.474767 1.065639 -0.409128
118.37890625 0.8898889999999999 0.383033 -0.506856
119.2109375 0.849325 0.394368 -0.454957
120.0078125 0.808395 0.303701 -0.504694
120.78125 0.87707 0.38707 -0.49
121.578125 0.787568 0.368975 -0.418593
122.37890625 0.771864 0.270131 -0.501733
123.19921875 0.8533 0.4083 -0.445
124.03125 0.835712 0.464219 -0.371493
124.84765625 0.838075 0.434638 -0.403437
125.67578125 0.8655360000000001 0.481161 -0.384375
126.44921875 0.797225 0.437281 -0.359944
127.22265625 0.832943 0.408067 -0.424876
128.0234375 0.856282 0.466282 -0.39
128.8359375 0.785 0.385 -0.4
129.6640625 0.836682 0.369877 -0.466805
130.4921875 0.833646 0.440559 -0.393087
131.3046875 0.785469 0.347921 -0.437548
132.11328125 0.873239 0.383669 -0.48957
132.890625 0.873877 0.45892 -0.414957
133.66015625 0.808361 0.3252 -0.483161
134.45703125 0.885417 0.417279 -0.468138
135.30078125 0.8706320000000001 0.461245 -0.409387
136.125 0.814805 0.345 -0.469805
136.92578125 0.885464 0.344019 -0.541445
137.71875 0.888577 0.368577 -0.52
138.49609375 0.801544 0.341544 -0.46
139.28515625 0.894055 0.344055 -0.55
140.05078125 0.880316 0.375 -0.505316
140.83984375 0.7885599999999999 0.37356 -0.415
141.703125 0.828405 0.296052 -0.532353
142.53515625 0.866231 0.391692 -0.474539
143.328125 0.8588309999999999 0.319007 -0.539824
144.1171875 0.8573709999999999 0.332848 -0.524523
144.890625 0.8621 0.412172 -0.449928
145.671875 0.774365 0.309542 -0.464823
146.45703125 0.869888 0.42 -0.449888
147.25390625 0.814659 0.455127 -0.359532
148.10546875 0.804578 0.404949 -0.399629
148.9296875 0.8468519999999999 0.468688 -0.378164
149.703125 0.8200000000000001 0.425 -0.395
150.484375 0.878017 0.470909 -0.407108
151.25390625 0.892013 0.514513 -0.3775
152.03515625 0.8675930000000001 0.527593 -0.34
152.8359375 0.794962 0.4 -0.394962
153.65234375 0.865612 0.444119 -0.421493
154.49609375 0.8200419999999999 0.475042 -0.345
155.3125 0.758995 0.3575 -0.401495
156.08984375 0.848919 0.438536 -0.410383
156.859375 0.867207 0.507207 -0.36
157.62109375 0.8135840000000001 0.430954 -0.38263
158.4296875 0.86728 0.46728 -0.4
159.25 0.864182 0.5 -0.364182
160.0625 0.818462 0.423462 -0.395
160.89453125 0.8770279999999999 0.479994 -0.397034
161.70703125 0.899189 0.537683 -0.361506
162.47265625 0.8460540000000001 0.411301 -0.434753
163.23828125 0.912792 0.4918 -0.420992
164.01171875 0.9257820000000001 0.528946 -0.396836
164.8203125 0.8546830000000001 0.479683 -0.375
165.6640625 0.854789 0.454789 -0.4
166.48046875 0.938366 0.539946 -0.39842
167.2890625 0.849975 0.459975 -0.39
168.09765625 0.875244 0.438994 -0.43625
168.86328125 0.936916 0.511223 -0.425693
169.6171875 0.851522 0.436522 -0.415
170.4140625 0.873043 0.439848 -0.433195
171.2421875 0.8795360000000001 0.508572 -0.370964
172.078125 0.85866 0.479382 -0.379278
172.89453125 0.8369770000000001 0.434956 -0.402021
173.6953125 0.8989800000000001 0.529445 -0.369535
174.515625 0.780308 0.850308 0.07
175.3125 1.400657 0.905793 -0.494864
176.10546875 1.2796 0.9396 -0.34
176.9375 1.231671 0.862417 -0.369254
177.8046875 1.273965 0.763981 -0.509984
178.671875 1.361326 0.812948 -0.548378
179.49609375 1.348837 0.79279 -0.556047
180.296875 1.153483 0.724919 -0.428564
181.12109375 1.204575 0.714307 -0.490268
181.92578125 1.243099 0.793538 -0.449561
182.72265625 1.218148 0.828148 -0.39
183.56640625 1.325315 0.821841 -0.503474
184.43359375 1.264449 0.810618 -0.453831
185.28125 1.199328 0.782065 -0.417263
186.08203125 1.611869 0.88662 -0.725249
186.88671875 1.200059 0.755094 -0.444965
187.71484375 1.1814550000000001 0.76692 -0.414535
188.53125 1.26606 0.7613 -0.50476
189.3671875 1.194466 0.790173 -0.404293
190.21484375 1.051614 0.691674 -0.35994
191.07421875 1.203344 0.757276 -0.446068
191.8984375 1.0474649999999999 0.729331 -0.318134
192.68359375 1.034805 0.724805 -0.31
193.48828125 1.147147 0.768081 -0.379066
194.31640625 1.033535 0.693535 -0.34
195.14453125 1.0942530000000001 0.744097 -0.350156
195.9921875 1.377477 0.727477 -0.65
196.8359375 1.199475 0.632002 -0.567473
197.67578125 1.275385 0.711362 -0.564023
198.48828125 1.542941 0.873683 -0.669258
199.28515625 1.309548 0.849028 -0.46052
200.09765625 1.351548 0.821878 -0.52967
200.94921875 1.200679 0.828854 -0.371825
201.79296875 1.033051 0.708051 -0.325
202.63671875 1.199978 0.855978 -0.344
203.46484375 1.421271 0.706271 -0.715
204.28515625 1.436822 0.751548 -0.685274
205.0859375 1.375032 0.76776 -0.607272
205.8828125 1.356857 0.753045 -0.603812
206.71484375 1.498602 0.851102 -0.6475
207.58203125 1.186545 0.855228 -0.331317
208.421875 1.377447 0.966138 -0.411309
209.2578125 1.2978140000000002 1.033192 -0.264622
210.07421875 1.0923800000000001 0.746218 -0.346162
210.88671875 1.3250929999999999 0.711031 -0.614062
211.69140625 1.449341 0.852591 -0.59675
212.5 1.208812 0.82 -0.388812
213.359375 1.375135 0.742482 -0.632653
214.21875 1.618186 0.901071 -0.717115
215.05078125 1.409574 0.794649 -0.614925
215.87109375 1.226186 0.801389 -0.424797
216.66796875 1.156004 0.748384 -0.40762
217.484375 1.1027470000000001 0.877747 -0.225
218.2890625 1.3868179999999999 0.767834 -0.618984
219.12109375 1.214969 0.740219 -0.47475
219.99609375 1.354433 0.751425 -0.603008
220.85546875 1.284341 0.791681 -0.49266
221.67578125 1.291687 0.891714 -0.399973
222.48046875 1.201845 0.891929 -0.309916
223.27734375 1.161045 0.893391 -0.267654
224.1015625 1.018467 0.765086 -0.253381
224.93359375 1.43873 0.837202 -0.601528
225.76953125 1.3845139999999998 0.759871 -0.624643
226.640625 1.241253 0.73653 -0.504723
227.484375 1.336953 0.714929 -0.622024
228.2734375 1.130924 0.722621 -0.408303
229.0703125 1.083385 0.732585 -0.3508
229.875 1.064465 0.74 -0.324465
230.72265625 1.30626 0.676534 -0.629726
231.5703125 1.241589 0.681589 -0.56
232.41015625 1.175128 0.715128 -0.46
233.28515625 1.273293 0.683293 -0.59
234.1015625 1.133638 0.664103 -0.469535
234.8828125 1.041235 0.71773 -0.323505
235.6875 1.2343089999999999 0.786059 -0.44825
236.50390625 1.2951009999999998 0.731417 -0.563684
237.3671875 1.240348 0.746633 -0.493715
238.2109375 1.232701 0.774517 -0.458184
239.0390625 1.307239 0.684831 -0.622408
239.88671875 1.126454 0.776738 -0.349716
240.69140625 1.165881 0.820881 -0.345
241.48046875 1.127165 0.909884 -0.217281
242.296875 1.324805 0.82626 -0.498545
243.140625 1.4053550000000001 0.857012 -0.548343
244.015625 1.344746 0.730596 -0.61415
244.859375 1.2434020000000001 0.689395 -0.554007
245.671875 1.361497 0.727408 -0.634089
246.5 1.21 0.77 -0.44
247.30078125 1.176698 0.756705 -0.419993
248.09375 1.20214 0.88214 -0.32
248.921875 1.354272 0.85 -0.504272
249.7734375 1.217596 0.739024 -0.478572
250.6484375 1.1704219999999999 0.742219 -0.428203
251.46875 1.2662360000000001 0.798398 -0.467838
252.26171875 1.28903 0.85061 -0.43842
253.09375 1.201858 0.827045 -0.374813
253.90234375 1.320218 0.895218 -0.425
254.7109375 1.339303 0.971119 -0.368184
255.5625 1.2380019999999998 0.89887 -0.339132
256.4140625 1.1572909999999998 0.797291 -0.36
257.2734375 1.198852 0.841752 -0.3571
258.07421875 1.090185 0.812832 -0.277353
258.859375 1.240825 0.854805 -0.38602
259.6875 1.093527 0.749062 -0.344465
260.50390625 1.109213 0.765912 -0.343301
261.328125 1.446426 0.916426 -0.53
262.1796875 1.189328 0.789343 -0.399985
263.03125 1.154755 0.769755 -0.385
263.86328125 1.3254329999999999 0.795531 -0.529902
264.6640625 1.0877059999999998 0.713876 -0.37383
265.4609375 1.143611 0.649303 -0.494308
266.296875 1.323912 0.790438 -0.533474
267.140625 1.178095 0.748095 -0.43
267.9765625 1.2843849999999999 0.804958 -0.479427
268.8203125 1.400174 0.825863 -0.574311
269.65625 1.327117 0.882117 -0.445
270.46484375 1.206026 0.836026 -0.37
271.2578125 1.3965 0.901855 -0.494645
272.0546875 1.268388 0.865043 -0.403345
272.9140625 1.508138 0.973138 -0.535
273.7734375 0.987302 0.875815 -0.111487
274.59765625 1.054125 0.88776 -0.166365
275.4296875 1.108853 0.839288 -0.269565
276.25390625 1.0824639999999999 0.732464 -0.35
277.0625 0.9703489999999999 0.685349 -0.285
277.85546875 1.0445790000000001 0.539853 -0.504726
278.6875 1.18527 0.645676 -0.539594
279.5546875 1.257504 0.632213 -0.625291
280.40234375 1.329707 0.71 -0.619707
281.2265625 1.362787 0.855007 -0.50778
282.03515625 1.342342 0.756476 -0.585866
282.84375 1.4047200000000002 0.753476 -0.651244
283.64453125 1.362406 0.788402 -0.574004
284.453125 1.496224 0.876224 -0.62
285.30859375 1.451882 0.833814 -0.618068
286.1796875 1.261336 0.771336 -0.49
287.01953125 1.251661 0.829489 -0.422172
287.8359375 1.338802 0.853533 -0.485269
288.63671875 1.1079599999999998 0.679263 -0.428697
289.44921875 1.032364 0.662427 -0.369937
290.265625 1.1740460000000001 0.765745 -0.408301
291.09375 1.07403 0.781915 -0.292115
291.95703125 1.029416 0.769611 -0.259805
292.81640625 1.047336 0.802392 -0.244944
293.6328125 1.006316 0.701345 -0.304971
294.4296875 1.03989 0.664909 -0.374981
295.2265625 0.9732369999999999 0.593405 -0.379832
296.05078125 0.829137 0.700584 -0.128553
296.88671875 1.042488 0.718808 -0.32368
297.73046875 1.238529 0.82951 -0.409019
298.6015625 1.201628 0.718052 -0.483576
299.44921875 1.222499 0.697802 -0.524697
300.2421875 1.352252 0.772833 -0.579419
301.03515625 1.4004120000000002 0.873689 -0.526723
301.83984375 1.260733 0.708307 -0.552426
302.67578125 1.3254700000000001 0.73431 -0.59116
303.5234375 1.348499 0.7605 -0.587999
304.359375 1.297692 0.683223 -0.614469
305.22265625 1.389093 0.751906 -0.637187
306.03515625 1.178241 0.723241 -0.455
306.82421875 1.320829 0.838167 -0.482662
307.62890625 1.232073 0.847073 -0.385
308.44921875 1.185791 0.854587 -0.331204
309.31640625 1.201899 0.882013 -0.319886
310.16796875 1.355399 0.885463 -0.469936
311.00390625 1.239259 0.850728 -0.388531
311.84375 1.13857 0.789924 -0.348646
312.6484375 1.257639 0.78966 -0.467979
313.4375 1.165153 0.747083 -0.41807
314.25 1.176773 0.805 -0.371773
315.08203125 1.162754 0.848541 -0.314213
315.95703125 1.1066639999999999 0.75181 -0.354854
316.8046875 1.15029 0.76529 -0.385
317.61328125 1.175014 0.845014 -0.33
318.44140625 0.864233 0.779329 -0.084904
319.25 1.0020069999999999 0.74 -0.262007
320.046875 1.125176 0.75261 -0.372566
320.8828125 1.075584 0.73463 -0.340954
321.7421875 1.009793 0.654917 -0.354876
322.609375 1.233624 0.879814 -0.35381
323.43359375 1.393482 0.919578 -0.473904
324.22265625 1.223995 0.933995 -0.29
325.046875 1.612866 1.012305 -0.600561
325.85546875 1.283329 0.909434 -0.373895
326.6640625 1.415683 0.890829 -0.524854
327.515625 1.357474 0.889671 -0.467803
328.3671875 1.3542480000000001 0.834337 -0.519911
329.22265625 1.315465 0.851715 -0.46375
330.02734375 1.165252 0.692646 -0.472606
330.81640625 1.074701 0.725421 -0.34928
331.6484375 1.0044089999999999 0.624409 -0.38
332.47265625 0.9754800000000001 0.578694 -0.396786
333.30859375 1.2593670000000001 0.737927 -0.52144
334.16015625 1.4098060000000001 0.805795 -0.604011
335.0078125 1.238353 0.758353 -0.48
335.84375 1.344379 0.712577 -0.631802
336.6328125 1.2983500000000001 0.830828 -0.467522
337.41796875 1.128987 0.756565 -0.372422
338.25390625 1.213828 0.784147 -0.429681
339.09765625 1.357934 0.817137 -0.540797
339.94140625 1.32531 0.878404 -0.446906
340.78515625 1.295667 0.802573 -0.493094
341.6171875 1.266456 0.841772 -0.424684
342.4453125 1.027975 0.71334 -0.314635
343.234375 0.9376490000000001 0.715817 -0.221832
344.03125 1.249223 0.799223 -0.45
344.89453125 1.255755 0.809846 -0.445909
345.74609375 1.405883 0.816098 -0.589785
346.57421875 1.281742 0.851215 -0.430527
347.40234375 1.308897 0.750668 -0.558229
348.2109375 1.1751390000000002 0.763877 -0.411262
349.01953125 1.243351 0.7749 -0.468451
349.81640625 1.13409 0.871434 -0.262656
350.6328125 1.295824 0.835846 -0.459978
351.515625 1.243013 0.751111 -0.491902
352.3671875 1.115141 0.685818 -0.429323
353.19140625 1.400592 0.746184 -0.654408
354.0078125 1.254944 0.803555 -0.451389
354.81640625 1.2063519999999999 0.797817 -0.408535
355.625 1.1433849999999999 0.76 -0.383385
356.4375 1.07406 0.78531 -0.28875
357.28125 1.148646 0.751 -0.397646
358.15234375 1.293094 0.772256 -0.520838
358.9921875 1.123128 0.673354 -0.449774
359.80078125 1.263316 0.72452 -0.538796
360.59375 1.31486 0.825483 -0.489377
361.40625 1.23143 0.748397 -0.483033
362.22265625 1.204831 0.832501 -0.37233
363.0546875 1.132042 0.86237 -0.269672
363.91796875 1.221456 0.906456 -0.315
364.7890625 1.1986189999999999 0.779567 -0.419052
365.6171875 1.278066 0.843331 -0.434735
366.40625 1.295968 0.850102 -0.445866
367.19921875 1.3736869999999999 0.823701 -0.549986
368.01953125 1.273323 0.919552 -0.353771
368.8515625 1.2490489999999999 0.891995 -0.357054
369.69140625 1.178209 0.914908 -0.263301
370.55078125 1.221324 0.826331 -0.394993
371.40234375 1.34884 0.820782 -0.528058
372.19921875 1.261129 0.796896 -0.464233
372.98828125 1.355968 0.747469 -0.608499
373.79296875 1.368966 0.745012 -0.623954
374.6328125 1.393665 0.847393 -0.546272
375.484375 1.171251 0.694053 -0.477198
376.328125 1.119484 0.807794 -0.31169
377.18359375 1.511884 0.923521 -0.588363
378.0078125 1.3265609999999999 0.762324 -0.564237
378.79296875 1.252885 0.770188 -0.482697
379.58984375 1.52394 0.849159 -0.674781
380.40234375 1.584003 0.899003 -0.685
381.26171875 1.131999 0.768712 -0.363287
382.1171875 1.106624 0.67346 -0.433164
382.953125 1.172473 0.79054 -0.381933
383.78515625 1.135336 0.796801 -0.338535
384.6015625 1.1940790000000001 0.702034 -0.492045
385.390625 1.344166 0.729179 -0.614987
386.203125 1.231897 0.741897 -0.49
387.04296875 1.293024 0.713024 -0.58
387.921875 1.320676 0.758313 -0.562363
388.76953125 1.344527 0.814813 -0.529714
389.58203125 1.198161 0.794326 -0.403835
390.40625 1.117613 0.701894 -0.415719
391.2109375 0.9536610000000001 0.619936 -0.333725
392.0 0.985884 0.71 -0.275884
392.82421875 1.306355 0.670818 -0.635537
393.67578125 1.165 0.6 -0.565
394.54296875 1.1286990000000001 0.6245 -0.504199
395.375 1.4376820000000001 0.71 -0.727682
396.171875 1.3190849999999998 0.751216 -0.567869
396.99609375 1.351077 0.715937 -0.63514
397.8046875 1.168974 0.762522 -0.406452
398.62109375 1.388436 0.746717 -0.641719
399.4765625 1.053578 0.673825 -0.379753
400.328125 1.179182 0.779649 -0.399533
401.1875 1.312743 0.763037 -0.549706
401.9921875 1.223603 0.744821 -0.478782
402.77734375 1.259169 0.824169 -0.435
403.6015625 1.225408 0.763704 -0.461704
404.421875 0.9743870000000001 0.639387 -0.335
405.25390625 1.256787 0.743412 -0.513375
406.11328125 1.1575039999999999 0.80806 -0.349444
406.9609375 1.189505 0.769505 -0.42
407.8046875 0.956055 0.646091 -0.309964
408.6015625 0.935665 0.659318 -0.276347
409.38671875 1.27255 0.623719 -0.648831
410.2265625 1.177141 0.652035 -0.525106
411.07421875 1.278521 0.674613 -0.603908
411.91015625 1.2919559999999999 0.641956 -0.65
412.7578125 1.2114829999999999 0.747786 -0.463697
413.5859375 1.227745 0.833637 -0.394108
414.40625 1.133083 0.750038 -0.383045
415.19140625 1.100506 0.770936 -0.32957
415.984375 1.171001 0.696695 -0.474306
416.84765625 1.299911 0.735017 -0.564894
417.70703125 1.292141 0.73941 -0.552731
418.54296875 1.274531 0.756446 -0.518085
419.3828125 1.529319 0.807614 -0.721705
420.1953125 1.342119 0.682119 -0.66
421.0078125 1.131481 0.641084 -0.490397
421.80078125 1.201051 0.721332 -0.479719
422.61328125 1.187811 0.914676 -0.273135
423.4921875 1.253203 0.793227 -0.459976
424.34375 1.2915429999999999 0.8194 -0.472143
425.16796875 1.216482 0.727285 -0.489197
425.98046875 1.384733 0.76 -0.624733
426.77734375 1.23691 0.83869 -0.39822
427.59375 1.2027269999999999 0.743271 -0.459456
428.40234375 1.007239 0.692239 -0.315
429.2421875 1.255016 0.734915 -0.520101
430.1328125 1.277459 0.734231 -0.543228
430.98046875 1.442258 0.761424 -0.680834
431.78515625 1.632879 0.897879 -0.735
432.58203125 1.3125520000000002 0.782607 -0.529945
433.38671875 1.3779949999999999 0.763357 -0.614638
434.2109375 1.415226 0.818297 -0.596929
435.0390625 1.29209 0.830597 -0.461493
435.890625 1.174302 0.788533 -0.385769
436.765625 1.005038 0.728812 -0.276226
437.5859375 1.118041 0.789278 -0.328763
438.3671875 1.323508 0.825152 -0.498356
439.1640625 1.363033 0.878033 -0.485
439.98046875 1.367415 0.879518 -0.487897
440.8203125 1.284692 0.869829 -0.414863
441.671875 1.208711 0.833711 -0.375
442.52734375 1.137979 0.844294 -0.293685
443.37890625 1.05538 0.799672 -0.255708
444.1796875 1.253598 0.90346 -0.350138
444.96484375 1.394473 0.896441 -0.498032
445.765625 1.323546 0.813546 -0.51
446.60546875 1.431802 0.809567 -0.622235
447.453125 1.307395 0.788418 -0.518977
448.29296875 1.162716 0.749271 -0.413445
449.1484375 1.241239 0.808391 -0.432848
449.97265625 1.166237 0.897061 -0.269176
450.76171875 1.178878 0.774582 -0.404296
451.5625 1.345348 0.887304 -0.458044
452.37890625 1.202235 0.789849 -0.412386
453.24609375 1.1469079999999998 0.767963 -0.378945
454.10546875 1.4474740000000001 0.83496 -0.612514
454.93359375 1.376318 0.868098 -0.50822
455.76953125 1.1685889999999999 0.849945 -0.318644
456.58203125 1.034982 0.683185 -0.351797
457.3671875 1.056424 0.809158 -0.247266
458.171875 1.231205 0.779363 -0.451842
459.00390625 1.223501 0.775917 -0.447584
459.87890625 1.166342 0.758956 -0.407386
460.72265625 1.150538 0.779741 -0.370797
461.53515625 1.403697 0.823697 -0.58
462.3671875 1.372208 0.922426 -0.449782
463.1796875 1.152161 0.88 -0.272161
463.97265625 1.150798 0.851424 -0.299374
464.8046875 1.285691 0.942675 -0.343016
465.66015625 1.240902 0.783112 -0.45779
466.5234375 1.290133 0.790894 -0.499239
467.3515625 1.275714 0.853741 -0.421973
468.140625 1.434839 0.909314 -0.525525
468.9609375 1.1740249999999999 0.81665 -0.357375
469.76953125 1.354923 0.894923 -0.46
470.578125 1.165058 0.842922 -0.322136
471.42578125 1.1211259999999998 0.770612 -0.350514
472.28125 1.006386 0.801386 -0.205
473.14453125 1.091876 0.721967 -0.369909
473.95703125 1.143221 0.841515 -0.301706
474.74609375 1.172989 0.813166 -0.359823
475.57421875 1.2907060000000001 0.796285 -0.494421
476.39453125 1.334145 0.819773 -0.514372
477.2265625 1.3140100000000001 0.83401 -0.48
478.078125 1.447552 0.877794 -0.569758
478.921875 1.329655 0.932472 -0.397183
479.765625 1.184665 0.816478 -0.368187
480.55859375 1.1505109999999998 0.870524 -0.279987
481.33984375 1.125837 0.88338 -0.242457
482.1796875 1.214716 0.782685 -0.432031
483.01953125 1.320439 0.804423 -0.516016
483.85546875 1.402405 0.854903 -0.547502
484.70703125 1.229124 0.774124 -0.455
485.5390625 1.321299 0.878964 -0.442335
486.359375 1.3081269999999998 0.868682 -0.439445
487.15625 1.1970649999999998 0.900229 -0.296836
487.94921875 1.279925 1.015177 -0.264748
488.80859375 1.195749 0.925804 -0.269945
489.65625 1.197752 0.863351 -0.334401
490.48828125 1.261844 0.832519 -0.429325
491.32421875 1.344147 0.786522 -0.557625
492.13671875 1.217099 0.772446 -0.444653
492.9453125 1.2487460000000001 0.693746 -0.555
493.7421875 1.2302119999999999 0.816797 -0.413415
494.55859375 1.150784 0.852375 -0.298409
495.4375 0.9264840000000001 0.645 -0.281484
496.296875 1.3373119999999998 0.788813 -0.548499
497.125 1.385107 0.885 -0.500107
497.94140625 1.154579 0.723139 -0.43144
498.74609375 1.392034 0.738592 -0.653442
499.55859375 1.17194 0.671706 -0.500234
500.3671875 1.294423 0.754423 -0.54
501.203125 1.3784070000000002 0.858407 -0.52
502.0859375 1.152612 0.633286 -0.519326
502.93359375 1.273617 0.691291 -0.582326
503.73046875 1.204489 0.794781 -0.409708
504.52734375 1.2179229999999999 0.7422 -0.475723
505.33984375 1.090046 0.76994 -0.320106
506.15625 1.053738 0.713738 -0.34
506.98828125 1.039656 0.837437 -0.202219
507.85546875 1.124832 0.829938 -0.294894
508.73046875 1.04614 0.60114 -0.445
509.5546875 1.22134 0.692696 -0.528644
510.34375 1.371922 0.795351 -0.576571
511.13671875 1.132851 0.709222 -0.423629
511.953125 1.313221 0.754742 -0.558479
512.78515625 1.400985 0.920985 -0.48
513.625 1.262452 0.96 -0.302452
514.484375 1.13483 0.905263 -0.229567
515.3359375 1.062081 0.844937 -0.217144
516.13671875 1.1449829999999999 0.889983 -0.255
516.9296875 1.212402 0.812692 -0.39971
517.73046875 1.275862 0.784545 -0.491317
518.57421875 1.157299 0.656748 -0.500551
519.4296875 1.347363 0.692078 -0.655285
520.2734375 1.311708 0.847322 -0.464386
521.12890625 1.2553779999999999 0.871173 -0.384205
521.953125 1.285517 0.88564 -0.399877
522.73828125 0.9869829999999999 0.685036 -0.301947
523.53125 1.105681 0.844 -0.261681
524.33984375 1.111642 0.747944 -0.363698
525.203125 1.137883 0.754428 -0.383455
526.05859375 1.308847 0.789021 -0.519826
526.890625 1.339238 0.77427 -0.564968
527.73046875 1.2245 0.7445 -0.48
528.546875 1.22291 0.643825 -0.579085
529.33203125 1.5337809999999998 0.803781 -0.73
530.14453125 1.245846 0.792529 -0.453317
530.984375 1.49776 0.937822 -0.559938
531.85546875 1.332837 0.874924 -0.457913
532.69921875 1.363962 0.824218 -0.539744
533.51171875 1.168134 0.82603 -0.342104
534.3359375 1.182416 0.692919 -0.489497
535.13671875 1.076499 0.682671 -0.393828
535.92578125 1.292918 0.734595 -0.558323
536.75390625 1.4538419999999999 0.840417 -0.613425
537.60546875 1.376617 0.924384 -0.452233
538.4765625 1.465653 0.83791 -0.627743
539.30859375 1.378521 0.858521 -0.52
540.109375 1.3972410000000002 0.827814 -0.569427
540.93359375 1.1962059999999999 0.826525 -0.369681
541.7421875 1.268622 0.768859 -0.499763
542.5546875 1.282626 0.862447 -0.420179
543.40625 1.344211 0.914462 -0.429749
544.25390625 1.492204 0.818563 -0.673641
545.1171875 1.249384 0.719601 -0.529783
545.92578125 1.3700519999999998 0.759473 -0.610579
546.703125 1.4869729999999999 0.827253 -0.65972
547.53125 1.367789 0.874806 -0.492983
548.3515625 1.2276669999999998 0.845154 -0.382513
549.17578125 1.135005 0.833677 -0.301328
550.03125 1.343462 0.878462 -0.465
550.87890625 1.218508 0.750153 -0.468355
551.72265625 1.319038 0.699242 -0.619796
552.51953125 1.188477 0.714511 -0.473966
553.30859375 1.183423 0.847013 -0.33641
554.1484375 1.092806 0.826058 -0.266748
554.984375 1.1820439999999999 0.748532 -0.433512
555.8203125 1.136786 0.799833 -0.336953
556.6640625 1.449668 0.869668 -0.58
557.5 1.304706 0.8 -0.504706
558.30859375 1.222296 0.725882 -0.496414
559.1015625 1.088711 0.716438 -0.372273
559.90234375 1.01359 0.649005 -0.364585
560.7578125 0.9843230000000001 0.709366 -0.274957
561.609375 1.17388 0.66939 -0.50449
562.44921875 1.259159 0.687094 -0.572065
563.28515625 1.334684 0.789028 -0.545656
564.10546875 1.404387 0.794717 -0.60967
564.9140625 1.17116 0.673041 -0.498119
565.7109375 1.359759 0.844759 -0.515
566.53125 1.2329940000000001 0.872994 -0.36
567.3984375 0.9999420000000001 0.735674 -0.264268
568.24609375 1.086708 0.67866 -0.408048
569.078125 1.215269 0.84048 -0.374789
569.88671875 1.327155 1.002707 -0.324448
570.6953125 1.260305 0.815204 -0.445101
571.5078125 1.108894 0.82559 -0.283304
572.31640625 1.4054 0.931259 -0.474141
573.16796875 1.159295 0.826917 -0.332378
574.046875 1.23726 0.857275 -0.379985
574.88671875 1.10691 0.776929 -0.329981
575.69921875 1.1836 0.726746 -0.456854
576.5 1.244889 0.7 -0.544889
577.06640625 1.232035 0.199599 -1.032436
577.8984375 1.149664 0.779889 -0.369775
578.71875 1.222403 0.762776 -0.459627
579.5625 0.9626060000000001 0.777606 -0.185
580.44140625 1.254244 0.863619 -0.390625
581.27734375 1.272771 0.890599 -0.382172
582.0703125 1.309017 0.825111 -0.483906
582.87109375 1.094934 0.690868 -0.404066
583.68359375 1.169974 0.699056 -0.470918
584.515625 1.435797 0.868301 -0.567496
585.359375 1.179991 0.795668 -0.384323
586.21484375 1.104293 0.719161 -0.385132
587.078125 1.108015 0.893138 -0.214877
587.89453125 1.4739399999999998 0.864802 -0.609138
588.67578125 1.208803 0.663818 -0.544985
589.47265625 1.305063 0.711497 -0.593566
590.30078125 1.3866589999999999 0.77169 -0.614969
591.14453125 1.219587 0.834587 -0.385
591.98828125 1.3002 0.887402 -0.412798
592.84375 1.208089 0.754627 -0.453462
593.6875 1.153404 0.778903 -0.374501
594.48828125 1.2473619999999999 0.811201 -0.436161
595.27734375 1.374889 0.796008 -0.578881
596.0859375 1.005869 0.655925 -0.349944
596.94140625 1.145371 0.746732 -0.398639
597.796875 1.473619 0.843291 -0.630328
598.6328125 1.316097 0.842877 -0.47322
599.48046875 1.3890799999999999 0.794827 -0.594253
600.296875 1.503971 0.889943 -0.614028
601.0859375 1.445558 0.871176 -0.574382
601.8828125 1.152481 0.795575 -0.356906
602.703125 1.191674 0.892165 -0.299509
603.5703125 1.27974 0.808297 -0.471443
604.42578125 1.250662 0.800698 -0.449964
605.25390625 1.327374 0.799922 -0.527452
606.08203125 1.292951 0.712951 -0.58
606.89453125 1.368833 0.75891 -0.609923
607.68359375 1.173216 0.787948 -0.385268
608.5078125 1.16533 0.81 -0.35533
609.3515625 1.07295 0.788445 -0.284505
610.21875 1.190684 0.875684 -0.315
611.06640625 1.299022 0.873163 -0.425859
611.87109375 1.2700719999999999 0.7513 -0.518772
612.6796875 1.161802 0.713538 -0.448264
613.48828125 1.3066559999999998 0.7 -0.606656
614.2890625 1.4831349999999999 0.789107 -0.694028
615.1328125 1.1914690000000001 0.663702 -0.527767
615.98828125 1.085167 0.661783 -0.423384
616.859375 1.027119 0.652042 -0.375077
617.68359375 1.27746 0.716076 -0.561384
618.47265625 1.297084 0.785502 -0.511582
619.296875 1.12239 0.652754 -0.469636
620.109375 1.090468 0.646218 -0.44425
620.9296875 1.21772 0.77772 -0.44
621.78125 1.133883 0.713883 -0.42
622.6328125 0.9751730000000001 0.696489 -0.278684
623.47265625 1.1090339999999999 0.693807 -0.415227
624.2734375 1.1251039999999999 0.64021 -0.484894
625.0546875 1.1786379999999999 0.717814 -0.460824
625.88671875 1.1939579999999999 0.623647 -0.570311
626.71875 1.13743 0.762544 -0.374886
627.55859375 1.216425 0.757909 -0.458516
628.41796875 0.959933 0.707817 -0.252116
629.2578125 1.2833649999999999 0.764501 -0.518864
630.0859375 1.347803 0.874619 -0.473184
630.87109375 1.258994 0.76655 -0.492444
631.6640625 1.2852389999999998 0.720239 -0.565
632.51171875 1.362706 0.849942 -0.512764
633.359375 1.290234 0.866113 -0.424121
634.1953125 1.149375 0.816719 -0.332656
635.03515625 1.128814 0.841877 -0.286937
635.85546875 1.1971829999999999 0.784978 -0.412205
636.66796875 1.157212 0.807212 -0.35
637.4609375 1.4219089999999999 0.863413 -0.558496
638.265625 1.177884 0.762911 -0.414973
639.140625 0.902425 0.60887 -0.293555
640.00390625 0.927937 0.574296 -0.353641
640.82421875 1.318408 0.916611 -0.401797
641.6484375 1.111345 0.826794 -0.284551
642.4609375 1.371742 0.95893 -0.412812
643.26953125 1.335659 0.815 -0.520659
644.06640625 1.3386339999999999 0.923775 -0.414859
644.8984375 1.55859 0.936715 -0.621875
645.77734375 1.419722 0.951704 -0.468018
646.625 1.205992 0.855 -0.350992
647.4375 1.176239 0.836239 -0.34
648.23828125 1.191597 0.980487 -0.21111
649.05078125 1.408761 0.978667 -0.430094
649.86328125 1.329258 0.919004 -0.410254
650.68359375 1.364788 0.844826 -0.519962
651.54296875 1.533765 0.889058 -0.644707
652.4140625 1.341024 0.919959 -0.421065
653.24609375 1.426866 1.017686 -0.40918
654.046875 1.159054 0.79029 -0.368764
654.8359375 0.962247 0.77498 -0.187267
655.6484375 1.265953 0.912539 -0.353414
656.47265625 1.406155 0.921155 -0.485
657.3125 1.124165 0.680769 -0.443396
658.16796875 1.019404 0.673956 -0.345448
659.03125 1.357391 0.857391 -0.5
659.84375 1.167586 0.820442 -0.347144
660.63671875 1.091031 0.772023 -0.319008
661.4375 1.269622 0.820733 -0.448889
662.26953125 1.208664 0.869899 -0.338765
663.12109375 1.282552 0.919115 -0.363437
663.9609375 1.290604 0.807387 -0.483217
664.82421875 1.110588 0.735737 -0.374851
665.66015625 1.246802 0.75972 -0.487082
666.44921875 1.109858 0.750377 -0.359481
667.23828125 1.211975 0.881146 -0.330829
668.04296875 1.4232040000000001 0.874148 -0.549056
668.88671875 1.174497 0.879497 -0.295
669.7421875 1.19824 0.803415 -0.394825
670.5859375 1.192783 0.788292 -0.404491
671.43359375 1.0794730000000001 0.7198 -0.359673
672.25 1.406258 0.855 -0.551258
673.0390625 1.248122 0.809402 -0.43872
673.84765625 1.0970280000000001 0.727601 -0.369427
674.67578125 1.072602 0.670834 -0.401768
675.546875 1.133476 0.891894 -0.241582
676.39453125 1.284345 0.929959 -0.354386
677.22265625 1.2601 0.8216 -0.4385
678.05078125 1.14308 0.768939 -0.374141
678.8515625 1.077344 0.806707 -0.270637
679.640625 1.440613 0.880909 -0.559704
680.46484375 1.06027 0.749253 -0.311017
681.3125 1.0396290000000001 0.840137 -0.199492
682.1875 1.2974519999999998 0.990362 -0.30709
683.03125 1.1739920000000001 0.788039 -0.385953
683.8359375 1.342073 0.829266 -0.512807
684.66015625 1.4765199999999998 0.88152 -0.595
685.46875 1.16361 0.75861 -0.405
686.265625 1.31298 0.79298 -0.52
687.11328125 1.114273 0.832248 -0.282025
687.9609375 1.256545 0.873108 -0.383437
688.828125 1.045392 0.85231 -0.193082
689.64453125 1.377614 0.839803 -0.537811
690.4296875 1.3680949999999998 0.722734 -0.645361
691.26171875 1.19634 0.617124 -0.579216
692.0703125 1.362717 0.760187 -0.60253
692.890625 1.460293 0.771992 -0.688301
693.75 1.253711 0.615 -0.638711
694.60546875 1.208747 0.804559 -0.404188
695.453125 1.163671 0.728115 -0.435556
696.25390625 1.134789 0.801746 -0.333043
697.0390625 1.151592 0.813713 -0.337879
697.87109375 1.223303 0.680541 -0.542762
698.69921875 1.1756600000000001 0.763669 -0.411991
699.53515625 1.350221 0.707198 -0.643023
700.38671875 1.386466 0.740685 -0.645781
701.22265625 1.186201 0.729326 -0.456875
702.046875 1.445849 0.876506 -0.569343
702.8359375 1.407305 0.817739 -0.589566
703.62890625 1.257905 0.85 -0.407905
704.48046875 1.080392 0.774776 -0.305616
705.33203125 1.2881559999999999 0.803646 -0.48451
706.17578125 1.019118 0.744132 -0.274986
707.015625 1.1554820000000001 0.832237 -0.323245
707.83984375 1.344387 0.715 -0.629387
708.65625 1.225894 0.682888 -0.543006
709.4453125 1.265188 0.675327 -0.589861
710.25 1.4125510000000001 0.705 -0.707551
711.1171875 1.2243369999999998 0.609215 -0.615122
711.96875 1.3077990000000002 0.661317 -0.646482
712.79296875 1.217744 0.732744 -0.485
713.609375 1.110509 0.622109 -0.4884
714.42578125 0.9770700000000001 0.649113 -0.327957
715.234375 1.319517 0.74487 -0.574647
716.0390625 1.217756 0.598651 -0.619105
716.87109375 1.2060110000000002 0.705003 -0.501008
717.75390625 1.072965 0.51876 -0.554205
718.59765625 1.221448 0.656821 -0.564627
719.4140625 1.099026 0.679026 -0.42
720.21875 1.195115 0.702045 -0.49307
721.02734375 1.158043 0.714965 -0.443078
721.83984375 1.192539 0.752539 -0.44
722.65234375 1.405435 0.798026 -0.607409
723.5078125 1.2201110000000002 0.667294 -0.552817
724.375 1.255589 0.66 -0.595589
725.2109375 1.10368 0.619354 -0.484326
726.015625 1.325713 0.616226 -0.709487
726.8125 1.163987 0.698987 -0.465
727.63671875 1.0856810000000001 0.735746 -0.349935
728.4609375 1.478266 0.758709 -0.719557
729.296875 1.4119570000000001 0.919726 -0.492231
730.16015625 1.304544 0.850595 -0.453949
731.01953125 1.557979 0.839779 -0.7182
731.828125 1.4161320000000002 0.721156 -0.694976
732.6171875 1.3098990000000001 0.765 -0.544899
733.4140625 1.478739 0.823739 -0.655
734.2421875 1.232129 0.627207 -0.604922
735.078125 1.3727589999999998 0.869649 -0.50311
735.91796875 1.428959 0.784398 -0.644561
736.7890625 1.2029670000000001 0.693327 -0.50964
737.625 1.172019 0.815 -0.357019
738.41796875 1.287828 0.758805 -0.529023
739.22265625 1.188098 0.796751 -0.391347
740.02734375 1.169195 0.883418 -0.285777
740.87890625 1.153289 0.729154 -0.424135
741.73046875 0.960663 0.635591 -0.325072
742.5625 1.28711 0.682418 -0.604692
743.41796875 1.30237 0.633568 -0.668802
744.2265625 1.236355 0.736406 -0.499949
745.01171875 1.2535180000000001 0.655659 -0.597859
745.81640625 1.298356 0.694125 -0.604231
746.63671875 1.452351 0.887463 -0.564888
747.5078125 1.190937 0.725949 -0.464988
748.36328125 1.018964 0.740816 -0.278148
749.19140625 1.370031 0.865826 -0.504205
750.03125 1.418418 0.911822 -0.506596
750.8359375 1.3967640000000001 0.833682 -0.563082
751.625 1.283474 0.92 -0.363474
752.4453125 1.324819 0.830184 -0.494635
753.29296875 1.509789 0.936272 -0.573517
754.1640625 1.217754 0.849651 -0.368103
755.00390625 1.126835 0.820489 -0.306346
755.8046875 1.115186 0.905186 -0.21
756.6328125 1.344582 0.900932 -0.44365
757.43359375 1.2200920000000002 0.836694 -0.383398
758.2265625 1.396175 0.816316 -0.579859
759.06640625 1.445599 0.972339 -0.47326
759.9296875 1.2672080000000001 0.762963 -0.504245
760.7890625 1.300797 0.710797 -0.59
761.61328125 1.287074 0.767999 -0.519075
762.41015625 1.072679 0.728046 -0.344633
763.234375 1.262925 0.723474 -0.539451
764.0390625 1.033652 0.733652 -0.3
764.85546875 1.1720700000000002 0.71979 -0.45228
765.70703125 1.439838 0.692117 -0.747721
766.5625 1.228014 0.748333 -0.479681
767.41015625 1.086881 0.623237 -0.463644
768.203125 1.374871 0.724745 -0.650126
768.99609375 1.375966 0.826188 -0.549778
769.828125 1.139141 0.757552 -0.381589
770.65625 1.160078 0.639293 -0.520785
771.49609375 0.9470959999999999 0.600838 -0.346258
772.3515625 1.216222 0.882276 -0.333946
773.20703125 1.233938 0.697886 -0.536052
774.02734375 1.1904240000000001 0.836713 -0.353711
774.81640625 1.257691 0.712691 -0.545
775.61328125 1.323891 0.665168 -0.658723
776.4609375 1.160449 0.779795 -0.380654
777.3046875 1.188934 0.721131 -0.467803
778.1328125 1.420037 0.801029 -0.619008
778.9765625 1.264741 0.794741 -0.47
779.80859375 1.186522 0.721241 -0.465281
780.61328125 1.180492 0.787937 -0.392555
781.40625 1.165615 0.628993 -0.536622
782.2265625 1.080268 0.762949 -0.317319
783.09375 1.2808229999999998 0.701266 -0.579557
783.9453125 1.1999339999999998 0.634934 -0.565
784.77734375 1.0460829999999999 0.657223 -0.38886
785.6015625 1.339227 0.669627 -0.6696
786.41796875 1.174231 0.795853 -0.378378
787.21484375 1.155772 0.713112 -0.44266
788.01171875 1.24029 0.831401 -0.408889
788.85546875 1.043757 0.765591 -0.278166
789.72265625 1.10576 0.836191 -0.269569
790.56640625 1.180964 0.737214 -0.44375
791.390625 1.134713 0.694757 -0.439956
792.1953125 1.2630409999999999 0.753854 -0.509187
793.015625 1.3314110000000001 0.741152 -0.590259
793.82421875 1.171082 0.741331 -0.429751
794.640625 1.244079 0.799091 -0.444988
795.51171875 1.389881 0.864902 -0.524979
796.37109375 1.289108 0.899037 -0.390071
797.19921875 1.000548 0.780616 -0.219932
798.0078125 1.240736 0.836063 -0.404673
798.80078125 1.008155 0.733155 -0.275
799.6171875 1.2095859999999998 0.864586 -0.345
800.4375 1.304627 0.671393 -0.633234
801.265625 1.191982 0.743665 -0.448317
802.140625 1.262517 0.80562 -0.456897
802.99609375 1.422324 0.852324 -0.57
803.8046875 1.469096 0.963825 -0.505271
804.60546875 1.102527 0.859365 -0.243162
805.41015625 1.12744 0.73744 -0.39
806.23828125 1.223924 0.938683 -0.285241
807.078125 1.080649 0.680649 -0.4
807.91015625 1.340387 0.760387 -0.58
808.78515625 1.326412 0.722377 -0.604035
809.61328125 1.272061 0.817061 -0.455
810.3984375 1.276624 0.719622 -0.557002
811.19921875 1.323953 0.708023 -0.61593
812.00390625 1.5227330000000001 0.878919 -0.643814
812.85546875 1.395891 0.871152 -0.524739
813.69921875 1.161708 0.824446 -0.337262
814.5390625 1.177139 0.805302 -0.371837
815.40625 1.063147 0.858147 -0.205
816.21875 1.249773 0.787321 -0.462452
817.0078125 1.360497 0.710497 -0.65
817.8125 1.2964829999999998 0.721505 -0.574978
818.63671875 1.329922 0.827426 -0.502496
819.50390625 1.53288 0.958586 -0.574294
820.34765625 1.1011929999999999 0.795492 -0.305701
821.17578125 1.313086 0.947481 -0.365605
822.015625 1.357712 0.852863 -0.504849
822.81640625 1.235672 0.946742 -0.28893
823.59765625 1.042851 0.74827 -0.294581
824.41015625 1.059758 0.739758 -0.32
825.265625 1.250878 0.751728 -0.49915
826.13671875 1.41056 0.866637 -0.543923
826.97265625 1.264877 0.709599 -0.555278
827.79296875 1.335095 0.841052 -0.494043
828.625 1.345829 0.885 -0.460829
829.41796875 1.344403 0.8521 -0.492303
830.2109375 1.19566 0.93665 -0.25901
831.046875 1.046965 0.903554 -0.143411
831.90625 1.1639869999999999 0.868987 -0.295
832.7578125 1.168682 0.978682 -0.19
833.578125 1.261212 0.796704 -0.464508
834.37890625 1.440806 0.878058 -0.562748
835.19921875 1.351712 0.934837 -0.416875
836.00390625 1.2972009999999998 0.807201 -0.49
836.8203125 1.383426 0.868426 -0.515
837.6796875 1.208001 0.848218 -0.359783
838.546875 1.214388 0.959423 -0.254965
839.38671875 1.1007149999999999 0.895771 -0.204944
840.19140625 1.124017 0.805949 -0.318068
840.99609375 1.076912 0.812377 -0.264535
841.8125 1.426227 0.864737 -0.56149
842.62890625 1.408029 0.709217 -0.698812
843.46875 1.255831 0.850385 -0.405446
844.31640625 1.19373 0.66698 -0.52675
845.1796875 1.542598 0.952612 -0.589986
845.9921875 1.346504 0.822582 -0.523922
846.78125 1.411194 1.081744 -0.32945
847.59765625 1.052869 0.845834 -0.207035
848.43359375 1.109226 0.865107 -0.244119
849.265625 1.113827 0.883446 -0.230381
850.12109375 1.361448 0.682912 -0.678536
850.96484375 1.365521 0.753991 -0.61153
851.80078125 1.2457880000000001 0.784382 -0.461406
852.59765625 1.5605310000000001 0.910848 -0.649683
853.3828125 1.1380469999999998 0.708594 -0.429453
854.2109375 1.4455230000000001 0.908192 -0.537331
855.0546875 1.41431 0.846007 -0.568303
855.89453125 1.232448 0.839995 -0.392453
856.74609375 1.358846 0.852337 -0.506509
857.57421875 1.336328 0.770337 -0.565991
858.39453125 1.276272 0.7927 -0.483572
859.1953125 1.181341 0.635315 -0.546026
859.98828125 1.104632 0.684661 -0.419971
860.84765625 1.298495 0.685567 -0.612928
861.71484375 1.35339 0.778672 -0.574718
862.55078125 1.404533 0.765362 -0.639171
863.38671875 1.598671 0.838671 -0.76
864.19140625 1.2955 0.738365 -0.557135
865.00390625 1.4596110000000002 0.847551 -0.61206
865.8046875 1.478402 0.784681 -0.693721
866.609375 1.390508 0.849416 -0.541092
867.48828125 1.1984190000000001 0.797749 -0.40067
868.3515625 1.271091 0.90446 -0.366631
869.17578125 1.305007 0.797725 -0.507282
869.9921875 1.2502119999999999 0.725866 -0.524346
870.796875 1.4475120000000001 0.773343 -0.674169
871.62109375 1.346772 0.853 -0.493772
872.4296875 1.450293 0.912069 -0.538224
873.26171875 1.143589 0.78364 -0.359949
874.1484375 1.233831 0.769717 -0.464114
874.99609375 1.151537 0.911593 -0.239944
875.796875 1.4224649999999999 0.757711 -0.664754
876.59375 1.346206 0.785041 -0.561165
877.390625 1.191547 0.629259 -0.562288
878.21484375 1.473263 0.838753 -0.63451
879.04296875 1.199266 0.761025 -0.438241
879.890625 1.3242129999999999 0.869219 -0.454994
880.7734375 1.131037 0.796953 -0.334084
881.6015625 1.142715 0.858298 -0.284417
882.390625 1.08594 0.909358 -0.176582
883.19140625 1.241751 0.812044 -0.429707
884.00390625 1.1333440000000001 0.859989 -0.273355
884.84765625 1.345051 0.776589 -0.568462
885.6953125 1.443692 0.783792 -0.6599
886.5390625 1.226025 0.723664 -0.502361
887.3984375 1.3188469999999999 0.773972 -0.544875
888.203125 1.426767 0.819423 -0.607344
888.98046875 1.359396 0.899445 -0.459951
889.78125 1.167689 0.777689 -0.39
890.6171875 1.023174 0.79583 -0.227344
891.484375 1.135071 0.901024 -0.234047
892.33203125 1.347207 0.860289 -0.486918
893.17578125 1.343966 0.736024 -0.607942
894.0078125 1.403949 0.865135 -0.538814
894.8046875 1.299377 0.755047 -0.54433
895.5859375 1.568336 0.929298 -0.639038
896.40234375 1.292571 0.74396 -0.548611
897.26171875 1.3604530000000001 0.843222 -0.517231
898.1171875 1.155549 0.802873 -0.352676
898.953125 1.061595 0.727841 -0.333754
899.78125 1.228571 0.873571 -0.355
900.58984375 1.161055 0.667549 -0.493506
901.37890625 1.3631259999999998 0.838846 -0.52428
902.1875 1.2355589999999999 0.779122 -0.456437
903.02734375 1.123649 0.683649 -0.44
903.90625 1.353357 0.895299 -0.458058
904.75390625 1.139882 0.795401 -0.344481
905.5703125 1.5122659999999999 0.873985 -0.638281
906.390625 1.3355739999999998 0.739671 -0.595903
907.1953125 1.478025 0.890489 -0.587536
907.9921875 1.431466 0.812459 -0.619007
908.82421875 1.439987 0.849987 -0.59
909.671875 1.277493 0.77 -0.507493
910.54296875 1.198992 0.790614 -0.408378
911.37109375 1.075445 0.771226 -0.304219
912.16015625 1.012819 0.727819 -0.285
912.98046875 1.239105 0.799984 -0.439121
913.80078125 1.209282 0.769282 -0.44
914.61328125 1.449209 0.85847 -0.590739
915.46875 1.449326 0.853076 -0.59625
916.32421875 1.24799 0.857802 -0.390188
917.18359375 1.448965 0.931524 -0.517441
917.98828125 1.497388 0.950132 -0.547256
918.765625 1.491811 0.886817 -0.604994
919.59765625 1.339666 0.839439 -0.500227
920.421875 1.354779 1.037874 -0.316905
921.25 1.18 0.865 -0.315
922.1015625 1.175944 0.936625 -0.239319
922.94921875 1.375083 0.923008 -0.452075
923.78515625 1.286542 0.81749 -0.469052
924.578125 1.481933 0.922368 -0.559565
925.3671875 1.457641 0.85352 -0.604121
926.20703125 1.353406 0.898977 -0.454429
927.05078125 1.2989920000000001 0.786629 -0.512363
927.89453125 1.499562 0.934616 -0.564946
928.73828125 1.4685329999999999 0.963533 -0.505
929.5625 1.2927680000000001 0.899449 -0.393319
930.3828125 1.229466 1.00668 -0.222786
931.17578125 1.0822660000000002 0.92617 -0.156096
931.97265625 1.14482 0.926166 -0.218654
932.828125 1.202912 0.84864 -0.354272
933.68359375 1.266763 0.821763 -0.445
934.51953125 1.479899 0.854972 -0.624927
935.3515625 1.350733 0.716447 -0.634286
936.16796875 1.317918 0.783866 -0.534052
936.98828125 1.288685 0.786464 -0.502221
937.78515625 1.517541 0.893455 -0.624086
938.60546875 1.267842 0.803067 -0.464775
939.48828125 1.261477 0.769291 -0.492186
940.33203125 1.175917 0.76249 -0.413427
941.15234375 1.041215 0.713949 -0.327266
941.9609375 1.203536 0.803628 -0.399908
942.765625 1.33723 0.67223 -0.665
943.5703125 1.5259960000000001 0.732871 -0.793125
944.3828125 1.4298410000000001 0.78018 -0.649661
945.2265625 1.3814920000000002 0.707258 -0.674234
946.10546875 1.345733 0.687869 -0.657864
946.94921875 1.338633 0.82431 -0.514323
947.76171875 1.167911 0.803844 -0.364067
948.5625 1.056688 0.739697 -0.316991
949.37890625 1.208728 0.794509 -0.414219
950.1953125 1.309731 0.757719 -0.552012
951.02734375 1.245627 0.673176 -0.572451
951.88671875 1.475669 0.832136 -0.643533
952.75 1.344919 0.73 -0.614919
953.5703125 1.437906 0.932527 -0.505379
954.36328125 1.294734 0.840626 -0.454108
955.15234375 1.39892 0.891342 -0.507578
955.98046875 1.413703 0.796901 -0.616802
956.8125 1.360853 0.859572 -0.501281
957.66015625 1.252044 0.823955 -0.428089
958.52734375 1.214809 0.855356 -0.359453
959.3828125 0.998174 0.675092 -0.323082
960.1796875 1.42732 0.854503 -0.572817
960.97265625 1.523094 0.701488 -0.821606
961.76953125 1.504642 0.814923 -0.689719
962.61328125 1.343701 0.704115 -0.639586
963.4609375 1.500929 0.895067 -0.605862
964.30078125 1.4158499999999998 0.883169 -0.532681
965.16015625 1.355459 0.882466 -0.472993
965.98046875 1.339368 0.869368 -0.47
966.765625 1.022342 0.748654 -0.273688
967.56640625 1.436914 0.957285 -0.479629
968.3828125 1.480192 0.752498 -0.727694
969.25 1.5042119999999999 0.76 -0.744212
970.10546875 1.290114 0.647625 -0.642489
970.9375 1.4280460000000001 0.818046 -0.61
971.78125 1.209235 0.664235 -0.545
972.58984375 1.1033140000000001 0.763314 -0.34
973.37109375 1.206026 0.831289 -0.374737
974.18359375 1.450139 0.894597 -0.555542
975.0234375 1.453684 0.874468 -0.579216
975.890625 1.260033 0.825746 -0.434287
976.734375 1.462572 0.954608 -0.507964
977.546875 1.4519259999999998 0.893716 -0.55821
978.37109375 1.352395 0.947395 -0.405
979.17578125 1.263811 0.823882 -0.439929
979.9765625 1.310204 0.951573 -0.358631
980.80859375 1.290398 0.963679 -0.326719
981.66796875 1.32844 0.926218 -0.402222
982.54296875 1.298796 0.878796 -0.42
983.3671875 1.4591219999999998 0.78955 -0.669572
984.16015625 1.423149 0.894063 -0.529086
984.984375 1.256073 0.734112 -0.521961
985.7890625 1.3338700000000001 0.87387 -0.46
986.59765625 1.375553 0.906886 -0.468667
987.44140625 1.098823 0.791792 -0.307031
988.296875 1.184593 0.829886 -0.354707
989.1484375 1.551887 0.756184 -0.795703
989.953125 1.4403510000000002 0.852441 -0.58791
990.74609375 1.333376 0.809591 -0.523785
991.578125 1.453986 0.954012 -0.499974
992.39453125 1.284558 0.83457 -0.449988
993.2265625 1.322566 0.943024 -0.379542
994.08203125 1.130698 0.72602 -0.404678
994.9296875 1.20975 0.940908 -0.268842
995.76171875 1.318371 0.714496 -0.603875
996.5546875 1.42773 0.80055 -0.62718
997.34765625 1.3902079999999999 0.879379 -0.510829
998.1796875 1.359549 0.791756 -0.567793
999.015625 1.416717 0.876193 -0.540524
999.8515625 1.0448110000000002 0.720075 -0.324736
1000.69921875 1.105446 0.814618 -0.290828
1001.54296875 1.035313 0.790313 -0.245
1002.35546875 1.219322 0.709429 -0.509893
1003.15234375 1.3575879999999998 0.792588 -0.565
1003.9609375 1.305085 0.786737 -0.518348
1004.81640625 1.243016 0.7 -0.543016
1005.66796875 1.275493 0.745 -0.530493
1006.49609375 1.154717 0.726416 -0.428301
1007.328125 1.152506 0.873241 -0.279265
1008.1484375 0.982694 0.72556 -0.257134
1008.94921875 1.333984 0.757064 -0.57692
1009.73828125 1.40678 0.804225 -0.602555
1010.57421875 1.358789 0.768293 -0.590496
1011.4375 1.3926370000000001 0.784825 -0.607812
1012.28515625 1.295 0.73 -0.565
1013.12109375 1.255296 0.847573 -0.407723
1013.93359375 1.0396320000000001 0.794632 -0.245
1014.75390625 1.187427 0.77472 -0.412707
1015.55078125 1.3038210000000001 0.703308 -0.600513
1016.35546875 1.2933240000000001 0.664684 -0.62864
1017.21875 1.138915 0.568214 -0.570701
1018.078125 1.376973 0.842708 -0.534265
1018.91015625 1.340584 0.840584 -0.5
1019.73046875 1.204264 0.844384 -0.35988
1020.52734375 1.042965 0.741421 -0.301544
1021.33984375 1.215043 0.810318 -0.404725
1022.15234375 1.3345319999999998 0.665774 -0.668758
1022.9765625 1.4045070000000002 0.77 -0.634507
1023.8515625 1.320594 0.771575 -0.549019
1024.71484375 1.3258869999999998 0.762755 -0.563132
1025.53125 1.397355 0.822355 -0.575
1026.33984375 1.120229 0.785762 -0.334467
1027.13671875 1.310278 0.91529 -0.394988
1027.9609375 1.0136129999999999 0.768613 -0.245
1028.7890625 1.320977 0.836665 -0.484312
1029.62890625 1.347845 0.813595 -0.53425
1030.50390625 1.585733 0.992079 -0.593654
1031.34375 1.290479 0.780816 -0.509663
1032.12890625 1.4632100000000001 0.893217 -0.569993
1032.9296875 1.5169709999999998 0.801971 -0.715
1033.734375 1.397769 0.887769 -0.51
1034.57421875 1.0917219999999999 0.816777 -0.274945
1035.421875 1.317523 0.942599 -0.374924
1036.26171875 1.089471 0.856463 -0.233008
1037.13671875 1.387788 0.787788 -0.6
1037.953125 1.4533930000000002 0.78973 -0.663663
1038.734375 1.333733 0.724197 -0.609536
1039.5390625 1.484618 0.817805 -0.666813
1040.35546875 1.43486 0.889804 -0.545056
1041.21875 1.360662 0.809544 -0.551118
1042.05859375 1.337388 0.749633 -0.587755
1042.890625 1.242434 0.813012 -0.429422
1043.7421875 1.185625 0.836589 -0.349036
1044.54296875 1.2557049999999998 0.746694 -0.509011
1045.328125 1.345545 0.764491 -0.581054
1046.14453125 1.441203 0.92972 -0.511483
1046.98828125 1.541446 0.946046 -0.5954
1047.8671875 1.417954 0.812954 -0.605
1048.70703125 1.24276 0.665685 -0.577075
1049.5234375 1.477789 0.812144 -0.665645
1050.35546875 1.146563 0.714493 -0.43207
1051.15625 1.230109 0.781955 -0.448154
1051.9375 1.131149 0.737167 -0.393982
1052.76953125 1.309728 0.764457 -0.545271
1053.625 1.282344 0.71 -0.572344
1054.4921875 1.2992910000000002 0.634291 -0.665
1055.3125 1.194744 0.603644 -0.5911
1056.1171875 1.297551 0.742551 -0.555
1056.94921875 1.437394 0.802394 -0.635
1057.7578125 1.065509 0.695509 -0.37
1058.5625 1.136755 0.816892 -0.319863
1059.4140625 1.060521 0.823452 -0.237069
1060.27734375 1.345537 0.829778 -0.515759
1061.125 1.354823 0.76 -0.594823
1061.9296875 1.386248 0.737632 -0.648616
1062.7265625 1.286249 0.761366 -0.524883
1063.546875 1.243891 0.766812 -0.477079
1064.359375 1.323262 0.79943 -0.523832
1065.1875 1.241035 0.713605 -0.52743
1066.0390625 1.216214 0.907973 -0.308241
1066.8984375 1.372089 0.794636 -0.577453
1067.7265625 1.55267 0.86612 -0.68655
1068.52734375 1.304435 0.787335 -0.5171
1069.33203125 1.460311 0.925311 -0.535
1070.16015625 1.483631 0.811301 -0.67233
1070.9921875 1.191641 0.849931 -0.34171
1071.83984375 1.181921 0.882307 -0.299614
1072.6796875 1.33054 0.932229 -0.398311
1073.52734375 1.0649920000000002 0.832949 -0.232043
1074.33203125 1.2375880000000001 0.856735 -0.380853
1075.1171875 1.389821 0.915475 -0.474346
1075.9375 1.3600029999999999 0.846089 -0.513914
1076.77734375 1.535188 0.930972 -0.604216
1077.6171875 1.479986 0.820038 -0.659948
1078.46484375 1.439413 0.885127 -0.554286
1079.3046875 1.452018 0.932058 -0.51996
1080.12890625 1.4522810000000002 0.86145 -0.590831
1080.9296875 1.404894 0.835201 -0.569693
1081.71875 1.339277 0.899397 -0.43988
1082.56640625 1.1116489999999999 0.85 -0.261649
1083.41796875 1.238389 0.898061 -0.340328
1084.2578125 1.307763 0.753315 -0.554448
1085.1015625 1.5049000000000001 0.855092 -0.649808
1085.9140625 1.419836 0.854836 -0.565
1086.7265625 1.329212 0.748395 -0.580817
1087.51953125 1.489584 0.854597 -0.634987
1088.3203125 1.47334 0.818436 -0.654904
1089.19140625 1.389586 0.850524 -0.539062
1090.0546875 1.222021 0.797021 -0.425
1090.890625 1.163347 0.810394 -0.352953
1091.71875 1.151347 0.811682 -0.339665
1092.5234375 1.325965 0.730992 -0.594973
1093.3359375 1.472848 0.848686 -0.624162
1094.140625 1.212224 0.644838 -0.567386
1094.9609375 1.518668 0.894135 -0.624533
1095.84375 1.4864739999999999 0.844688 -0.641786
1096.69921875 1.385707 0.806357 -0.57935
1097.5078125 1.292384 0.709693 -0.582691
1098.3046875 1.344908 0.776883 -0.568025
1099.10546875 1.232905 0.797956 -0.434949
1099.9296875 1.099699 0.809699 -0.29
1100.74609375 1.48389 0.825842 -0.658048
1101.59375 1.36198 0.736595 -0.625385
1102.484375 1.489138 0.848173 -0.640965
1103.3203125 1.361755 0.67613 -0.685625
1104.11328125 1.387197 0.770837 -0.61636
1104.90625 1.181158 0.73035 -0.450808
1105.7109375 1.2168290000000002 0.923012 -0.293817
1106.54296875 1.050616 0.832175 -0.218441
1107.3828125 1.3406230000000001 0.871519 -0.469104
1108.23046875 1.5331009999999998 0.878532 -0.654569
1109.1015625 1.438377 0.834806 -0.603571
1109.91015625 1.449052 0.881099 -0.567953
1110.69140625 1.374298 0.779823 -0.594475
1111.48828125 1.436048 0.848774 -0.587274
1112.31640625 1.282499 0.810689 -0.47181
1113.17578125 1.2134800000000001 0.825957 -0.387523
1114.03515625 1.084734 0.684734 -0.4
1114.87890625 1.589492 0.894955 -0.694537
1115.72265625 1.3759890000000001 0.741529 -0.63446
1116.515625 1.420339 0.86697 -0.553369
1117.296875 1.3276590000000001 0.710318 -0.617341
1118.1015625 1.450251 0.849443 -0.600808
1118.95703125 1.360568 0.771643 -0.588925
1119.81640625 1.468273 0.719068 -0.749205
1120.65625 1.143112 0.680161 -0.462951
1121.4921875 1.2088969999999999 0.633001 -0.575896
1122.30859375 1.1000889999999999 0.774982 -0.325107
1123.1015625 1.159357 0.665732 -0.493625
1123.90234375 1.354471 0.721168 -0.633303
1124.73046875 1.452431 0.689663 -0.762768
1125.6015625 1.3824610000000002 0.819065 -0.563396
1126.45703125 1.330717 0.746735 -0.583982
1127.28125 1.493458 0.810357 -0.683101
1128.1015625 1.289332 0.733299 -0.556033
1128.90625 1.36178 0.787864 -0.573916
1129.6953125 1.226326 0.649266 -0.57706
1130.51953125 1.241153 0.854937 -0.386216
1131.3671875 1.264488 0.774599 -0.489889
1132.234375 1.296656 0.846006 -0.45065
1133.08203125 1.055387 0.682853 -0.372534
1133.8828125 1.267703 0.843255 -0.424448
1134.703125 1.4253230000000001 0.80568 -0.619643
1135.51171875 1.239896 0.784966 -0.45493
1136.3203125 1.402599 0.805789 -0.59681
1137.16796875 1.425063 0.76962 -0.655443
1138.0234375 1.2646419999999998 0.851609 -0.413033
1138.8828125 1.536672 0.951685 -0.584987
1139.70703125 1.276618 0.786642 -0.489976
1140.48828125 1.3525770000000001 0.851634 -0.500943
1141.3046875 1.158426 0.779282 -0.379144
1142.125 1.321445 0.945 -0.376445
1142.9453125 1.044266 0.664266 -0.38
1143.8046875 1.440755 0.757568 -0.683187
1144.65625 1.372905 0.722905 -0.65
1145.5078125 1.399016 0.854568 -0.544448
1146.3046875 1.307343 0.674443 -0.6329
1147.08984375 1.4806789999999999 0.819098 -0.661581
1147.9296875 1.330379 0.78044 -0.549939
1148.76171875 1.4622380000000001 0.912265 -0.549973
1149.6015625 1.2596180000000001 0.779618 -0.48
1150.453125 1.216586 0.718099 -0.498487
1151.2890625 1.1490360000000002 0.818397 -0.330639
1152.10546875 1.49655 0.751601 -0.744949
1152.890625 1.335217 0.728127 -0.60709
1153.68359375 1.345285 0.768488 -0.576797
1154.5390625 1.399534 0.883017 -0.516517
1155.38671875 1.301816 0.878515 -0.423301
1156.23046875 1.341687 0.904559 -0.437128
1157.078125 1.1231650000000002 0.843165 -0.28
1157.89453125 1.353115 0.8282 -0.524915
1158.7109375 1.45564 0.938304 -0.517336
1159.50390625 1.3997600000000001 0.808031 -0.591729
1160.3125 1.334727 0.70604 -0.628687
1161.1875 1.310265 0.781962 -0.528303
1162.0390625 1.412895 0.877895 -0.535
1162.86328125 1.273203 0.734521 -0.538682
1163.68359375 1.161548 0.745513 -0.416035
1164.48828125 1.093753 0.774233 -0.31952
1165.30078125 1.415845 0.928701 -0.487144
1166.10546875 1.275876 0.755876 -0.52
1166.9375 1.386163 0.847391 -0.538772
1167.82421875 1.354518 0.751857 -0.602661
1168.66796875 1.4155669999999998 0.861265 -0.554302
1169.4765625 1.319719 0.745345 -0.574374
1170.28125 1.03378 0.740095 -0.293685
1171.09375 1.25624 0.736717 -0.519523
1171.90234375 1.492811 0.882811 -0.61
1172.72265625 1.501014 0.863014 -0.638
1173.578125 1.2836509999999999 0.80492 -0.478731
1174.4453125 1.313666 0.860984 -0.452682
1175.2734375 1.491945 0.912 -0.579945
1176.0703125 1.15398 0.674133 -0.479847
1176.8671875 1.29396 0.785473 -0.508487
1177.6875 1.106778 0.829125 -0.277653
1178.515625 1.215618 0.740656 -0.474962
1179.35546875 1.558508 0.899729 -0.658779
1180.2265625 1.262509 0.709981 -0.552528
1181.08203125 1.34211 0.82211 -0.52
1181.88671875 1.424715 0.856382 -0.568333
1182.68359375 1.4208560000000001 0.880959 -0.539897
1183.4765625 1.2708460000000001 0.755993 -0.514853
1184.30859375 1.314098 1.041129 -0.272969
1185.15234375 1.184951 0.844951 -0.34
1185.98828125 1.073191 0.801675 -0.271516
1186.8515625 1.371963 0.784939 -0.587024
1187.6875 1.53261 0.898304 -0.634306
1188.4765625 1.262059 0.693392 -0.568667
1189.27734375 1.429878 0.794743 -0.635135
1190.08984375 1.497539 0.798707 -0.698832
1190.9453125 1.444013 0.878002 -0.566011
1191.796875 1.344461 0.789461 -0.555
1192.625 1.2936290000000001 0.8 -0.493629
1193.484375 1.05725 0.693882 -0.363368
1194.296875 1.4061599999999999 0.778938 -0.627222
1195.078125 1.539336 0.856366 -0.68297
1195.8828125 1.365745 0.772104 -0.593641
1196.7109375 1.35097 0.714132 -0.636838
1197.57421875 1.583337 0.897383 -0.685954
1198.41796875 1.21815 0.719719 -0.498431
1199.2421875 1.186126 0.714628 -0.471498
1200.08203125 0.995773 0.710558 -0.285215
1200.8828125 1.427721 0.84944 -0.578281
1201.67578125 1.422048 0.724639 -0.697409
1202.5 1.380537 0.77 -0.610537
1203.3515625 1.393262 0.791147 -0.602115
1204.22265625 1.4515069999999999 0.772936 -0.678571
1205.05859375 1.664543 0.87952 -0.785023
1205.86328125 1.075768 0.711873 -0.363895
1206.6875 1.090349 0.790349 -0.3
1207.484375 1.270081 0.849283 -0.420798
1208.28515625 1.4253770000000001 0.855377 -0.57
1209.125 1.3398729999999999 0.745 -0.594873
1209.984375 1.401509 0.866952 -0.534557
1210.8515625 1.3628680000000002 0.854257 -0.508611
1211.671875 1.404275 0.856157 -0.548118
1212.46875 1.119671 0.75009 -0.369581
1213.296875 1.0026199999999998 0.694502 -0.308118
1214.1015625 1.251903 0.83976 -0.412143
1214.9140625 1.022735 0.737693 -0.285042
1215.76953125 1.16623 0.682031 -0.484199
1216.62109375 1.390787 0.766576 -0.624211
1217.45703125 1.273718 0.691722 -0.581996
1218.2578125 1.331086 0.772578 -0.558508
1219.0546875 1.247674 0.677778 -0.569896
1219.87890625 1.498186 0.807631 -0.690555
1220.703125 1.406627 0.868511 -0.538116
1221.54296875 1.273749 0.838749 -0.435
1222.3984375 1.1 0.87 -0.23
1223.25390625 1.1653639999999998 0.803596 -0.361768
1224.06640625 1.534474 0.944983 -0.589491
1224.86328125 1.3181159999999998 0.71149 -0.606626
1225.671875 1.300998 0.684834 -0.616164
1226.5078125 1.37897 0.777834 -0.601136
1227.3515625 1.502513 0.807513 -0.695
1228.1953125 1.194687 0.674824 -0.519863
1229.03125 1.25 0.7 -0.55
1229.8671875 1.1152039999999999 0.845746 -0.269458
1230.6640625 1.339861 0.789861 -0.55
1231.453125 1.372553 0.717645 -0.654908
1232.27734375 1.588261 0.763261 -0.825
1233.140625 1.315325 0.709764 -0.605561
1233.9921875 1.394559 0.704559 -0.69
1234.8359375 1.1699510000000002 0.749936 -0.420015
1235.65625 1.1403699999999999 0.76037 -0.38
1236.48046875 1.189464 0.734931 -0.454533
1237.2734375 0.988252 0.638984 -0.349268
1238.0703125 1.273918 0.728918 -0.545
1238.9296875 1.400342 0.747023 -0.653319
1239.7890625 1.382874 0.799229 -0.583645
1240.62109375 1.27602 0.719762 -0.556258
1241.453125 1.216894 0.790097 -0.426797
1242.25390625 1.115003 0.641529 -0.473474
1243.06640625 0.9944850000000001 0.656047 -0.338438
1243.87109375 1.366862 0.810895 -0.555967
1244.6875 1.3335569999999999 0.654438 -0.679119
1245.56640625 1.349758 0.791737 -0.558021
1246.4296875 1.441199 0.774951 -0.666248
1247.25390625 1.543492 0.883353 -0.660139
1248.06640625 1.3497 0.7947 -0.555
1248.86328125 1.3797380000000001 0.830663 -0.549075
1249.6796875 1.2599420000000001 0.779942 -0.48
1250.49609375 1.331785 0.924355 -0.40743
1251.328125 1.4134410000000002 0.724199 -0.689242
1252.20703125 1.7856779999999999 0.858189 -0.927489
1253.0546875 1.408787 0.7738 -0.634987
1253.859375 1.538959 0.894753 -0.644206
1254.65625 1.513252 0.861086 -0.652166
1255.45703125 1.368061 0.803061 -0.565
1256.296875 1.607164 0.933581 -0.673583
1257.13671875 1.237831 0.853845 -0.383986
1257.98046875 1.179572 0.899819 -0.279753
1258.85546875 1.2892649999999999 0.759512 -0.529753
1259.6796875 1.468042 0.838042 -0.63
1260.4609375 1.4468779999999999 0.748423 -0.698455
1261.25390625 1.511261 0.776675 -0.734586
1262.0625 1.250933 0.658738 -0.592195
1262.91015625 1.369146 0.781088 -0.588058
1263.7578125 1.380442 0.71802 -0.662422
1264.59765625 1.348721 0.749195 -0.599526
1265.45703125 1.1101290000000001 0.681374 -0.428755
1266.2578125 1.149471 0.760242 -0.389229
1267.04296875 1.333971 0.802659 -0.531312
1267.8515625 1.243052 0.673052 -0.57
1268.69140625 1.32835 0.70835 -0.62
1269.55078125 1.3879510000000002 0.768016 -0.619935
1270.3984375 1.346117 0.77777 -0.568347
1271.234375 1.295981 0.709284 -0.586697
1272.0625 1.3332419999999998 0.683283 -0.649959
1272.8515625 1.206188 0.781316 -0.424872
1273.64453125 1.093636 0.764486 -0.32915
1274.45703125 1.1506150000000002 0.709474 -0.441141
1275.32421875 1.348455 0.746806 -0.601649
1276.18359375 1.343823 0.687575 -0.656248
1277.01953125 1.469653 0.789749 -0.679904
1277.84765625 1.285263 0.690377 -0.594886
1278.66015625 1.389569 0.734569 -0.655
1279.45703125 1.170248 0.772607 -0.397641
1280.265625 1.066946 0.752683 -0.314263
1281.10546875 1.329645 0.934645 -0.395
1281.98046875 1.294498 0.759965 -0.534533
1282.8203125 1.386124 0.926361 -0.459763
1283.62890625 1.430986 0.895727 -0.535259
1284.44921875 1.431609 0.920545 -0.511064
1285.2578125 1.2821 0.775088 -0.507012
1286.05078125 1.1179890000000001 0.802995 -0.314994
1286.88671875 1.164762 0.874805 -0.289957
1287.7421875 1.284632 0.809819 -0.474813
1288.609375 1.5131700000000001 0.878541 -0.634629
1289.4375 1.295451 0.751667 -0.543784
1290.23046875 1.439413 0.88482 -0.554593
1291.05859375 1.445887 0.805373 -0.640514
1291.8671875 1.3980009999999998 0.783001 -0.615
1292.6796875 1.257344 0.762344 -0.495
1293.53125 1.1050149999999999 0.837136 -0.267879
1294.3828125 1.1834959999999999 0.749799 -0.433697
1295.234375 1.459748 0.839748 -0.62
1296.0390625 1.369346 0.759346 -0.61
1296.8203125 1.485871 0.866242 -0.619629
1297.6484375 1.408496 0.769725 -0.638771
1298.4765625 1.4248699999999999 0.865047 -0.559823
1299.3125 1.390283 0.89262 -0.497663
1300.171875 1.244423 0.784423 -0.46
1301.01953125 1.133468 0.829619 -0.303849
1301.85546875 1.47161 0.939467 -0.532143
1302.65234375 1.4864419999999998 0.796518 -0.689924
1303.4375 1.42086 0.81744 -0.60342
1304.27734375 1.507311 0.913636 -0.593675
1305.12109375 1.383702 0.818165 -0.565537
1305.94921875 1.354864 0.8801 -0.474764
1306.79296875 1.302268 1.009198 -0.29307
1307.625 1.0901560000000001 0.81 -0.280156
1308.43359375 1.2081490000000001 0.893182 -0.314967
1309.2265625 1.439587 0.859704 -0.579883
1310.03515625 1.490838 0.795985 -0.694853
1310.89453125 1.354492 0.774839 -0.579653
1311.75 1.364746 0.71 -0.654746
1312.5859375 1.5822289999999999 0.838345 -0.743884
1313.41796875 1.125187 0.771135 -0.354052
1314.23046875 1.262409 0.844526 -0.417883
1315.0390625 1.157463 0.828452 -0.329011
1315.8359375 1.238661 0.856743 -0.381918
1316.6640625 1.6133380000000002 0.909304 -0.704034
1317.53515625 1.301224 0.691224 -0.61
1318.3828125 1.494764 0.934764 -0.56
1319.20703125 1.4381110000000001 0.743959 -0.694152
1320.015625 1.384748 0.801468 -0.58328
1320.828125 1.303801 0.831357 -0.472444
1321.640625 1.051197 0.741281 -0.309916
1322.453125 1.322523 0.95683 -0.365693
1323.30859375 1.330378 0.761737 -0.568641
1324.19140625 1.593134 0.892509 -0.700625
1325.0234375 1.298682 0.753724 -0.544958
1325.828125 1.4235440000000001 0.923571 -0.499973
1326.625 1.519919 0.915 -0.604919
1327.4375 1.277475 0.69435 -0.583125
1328.25 1.2246350000000001 0.785 -0.439635
1329.08203125 1.086269 0.774125 -0.312144
1329.953125 1.1636060000000001 0.913069 -0.250537
1330.8125 1.349477 0.776003 -0.573474
1331.625 1.478375 0.84 -0.638375
1332.42578125 1.4100169999999999 0.850352 -0.559665
1333.23046875 1.356481 0.80491 -0.551571
1334.05859375 1.397688 0.892688 -0.505
1334.890625 1.1850800000000001 0.765642 -0.419438
1335.734375 1.1359000000000001 0.877828 -0.258072
1336.60546875 1.198405 0.84499 -0.353415
1337.4375 1.3440180000000002 0.834886 -0.509132
1338.23046875 1.333013 0.789447 -0.543566
1339.02734375 1.511455 0.94718 -0.564275
1339.83203125 1.329949 0.750035 -0.579914
1340.67578125 1.366878 0.84536 -0.521518
1341.51953125 1.2617639999999999 0.737409 -0.524355
1342.359375 1.651312 1.013571 -0.637741
1343.2265625 1.402374 0.897781 -0.504593
1344.04296875 1.2972670000000002 0.900815 -0.396452
1344.83203125 1.27615 0.79155 -0.4846
1345.63671875 1.249735 0.938144 -0.311591
1346.4609375 1.355039 0.75165 -0.603389
1347.328125 1.594515 0.909653 -0.684862
1348.171875 1.425384 0.781839 -0.643545
1349.0 1.561509 0.97 -0.591509
1349.84765625 1.509538 0.864718 -0.64482
1350.64453125 1.459868 0.889868 -0.57
1351.42578125 1.411585 0.8275 -0.584085
1352.234375 1.3753440000000001 0.968192 -0.407152
1353.08203125 1.310933 0.79102 -0.519913
1353.9453125 1.123077 0.844929 -0.278148
1354.7890625 1.3774419999999998 0.859594 -0.517848
1355.609375 1.541327 0.907369 -0.633958
1356.44140625 1.501401 0.817512 -0.683889
1357.23828125 1.587783 0.875863 -0.71192
1358.02734375 1.33663 0.713705 -0.622925
1358.859375 1.4728970000000001 0.841195 -0.631702
1359.7265625 1.406409 0.716879 -0.68953
1360.578125 1.296223 0.854357 -0.441866
1361.40234375 1.163933 0.769875 -0.394058
1362.20703125 1.287271 0.913884 -0.373387
1363.0234375 1.059584 0.746746 -0.312838
1363.82421875 1.499411 0.847466 -0.651945
1364.640625 1.483904 0.778942 -0.704962
1365.48828125 1.438415 0.858415 -0.58
1366.36328125 1.380025 0.797906 -0.582119
1367.20703125 1.385609 0.785698 -0.599911
1368.0078125 1.319037 0.831029 -0.488008
1368.8125 1.27392 0.866667 -0.407253
1369.6328125 1.06747 0.78247 -0.285
1370.44140625 1.190484 0.813054 -0.37743
1371.28125 1.348011 0.813011 -0.535
1372.12890625 1.419363 0.749725 -0.669638
1372.9921875 1.498286 0.877319 -0.620967
1373.80859375 1.288431 0.743475 -0.544956
1374.58984375 1.4565709999999998 0.876571 -0.58
1375.41015625 1.470596 0.810596 -0.66
1376.23828125 1.2019199999999999 0.745844 -0.456076
1377.0703125 1.303263 0.843263 -0.46
1377.92578125 1.071792 0.827771 -0.244021
1378.7734375 1.206096 0.893549 -0.312547
1379.6171875 1.2423739999999999 0.771065 -0.471309
1380.4140625 1.435883 0.770883 -0.665
1381.1953125 1.2402739999999999 0.665239 -0.575035
1382.02734375 1.375784 0.859167 -0.516617
1382.8671875 1.438392 0.853885 -0.584507
1383.70703125 1.339374 0.808884 -0.53049
1384.5546875 1.341764 0.841822 -0.499942
1385.38671875 1.4359000000000002 0.861754 -0.574146
1386.20703125 1.2720699999999998 0.9037 -0.36837
1387.00390625 1.092828 0.745816 -0.347012
1387.80078125 1.117395 0.863977 -0.253418
1388.65625 1.326893 0.851893 -0.475
1389.51171875 1.309209 0.744223 -0.564986
1390.35546875 1.6139489999999999 0.934734 -0.679215
1391.19140625 1.364073 0.774132 -0.589941
1392.0 1.4164979999999998 0.85 -0.566498
1392.81640625 1.399749 0.792185 -0.607564
1393.609375 1.488871 1.033871 -0.455
1394.41796875 1.1990450000000001 0.820243 -0.378802
1395.29296875 1.13943 0.905289 -0.234141
1396.14453125 1.233174 0.864763 -0.368411
1396.96875 1.353265 0.728265 -0.625
1397.78515625 1.6200640000000002 0.823218 -0.796846
1398.58984375 1.347923 0.681221 -0.666702
1399.40625 1.427541 0.78669 -0.640851
1400.21484375 1.4426649999999999 0.770455 -0.67221
1401.0546875 1.573111 0.844808 -0.728303
1401.93359375 1.226374 0.748043 -0.478331
1402.7734375 1.134292 0.825142 -0.30915
1403.5859375 1.352793 0.859548 -0.493245
1404.38671875 1.4129239999999998 0.836069 -0.576855
1405.19140625 1.477157 0.88245 -0.594707
1406.0078125 1.573218 0.865527 -0.707691
1406.83203125 1.369546 0.779546 -0.59
1407.6875 1.4588230000000002 0.909618 -0.549205
1408.55859375 1.568766 0.970949 -0.597817
1409.390625 1.260381 0.836848 -0.423533
1410.1875 1.0276910000000001 0.780132 -0.247559
1410.984375 1.212739 0.957739 -0.255
1411.65234375 1.49168 -0.168209 -1.659889
1412.38671875 1.246422 0.756943 -0.489479
1413.22265625 1.3943889999999999 0.769162 -0.625227
1414.06640625 1.385859 0.829265 -0.556594
1414.9375 1.157067 0.853051 -0.304016
1415.76171875 1.348511 0.810115 -0.538396
1416.54296875 1.389439 0.769854 -0.619585
1417.3359375 1.516531 0.929647 -0.586884
1418.15625 1.318766 0.75968 -0.559086
1419.0078125 1.4691420000000002 0.888537 -0.580605
1419.8515625 1.110493 0.775493 -0.335
1420.70703125 1.137538 0.914026 -0.223512
1421.5625 1.030704 0.744449 -0.286255
1422.36328125 1.45473 0.844841 -0.609889
1423.1484375 1.354575 0.66466 -0.689915
1423.94921875 1.5008460000000001 0.80627 -0.694576
1424.79296875 1.421761 0.786761 -0.635
1425.65234375 1.312018 0.732018 -0.58
1426.48828125 1.38396 0.867862 -0.516098
1427.33203125 1.090775 0.845775 -0.245
1428.15234375 1.412771 0.9517 -0.461071
1428.94140625 1.270384 0.665384 -0.605
1429.73828125 1.558289 0.828677 -0.729612
1430.5625 1.3433570000000001 0.76465 -0.578707
1431.42578125 1.377182 0.810139 -0.567043
1432.2890625 1.4303919999999999 0.780392 -0.65
1433.125 1.284819 0.72 -0.564819
1433.94921875 1.169496 0.794596 -0.3749
1434.7578125 1.27421 0.792877 -0.481333
1435.55078125 1.103131 0.779889 -0.323242
1436.36328125 1.365342 0.756873 -0.608469
1437.20703125 1.352637 0.734773 -0.617864
1438.078125 1.3060200000000002 0.762569 -0.543451
1438.921875 1.395569 0.768811 -0.626758
1439.7265625 1.4779110000000002 0.808023 -0.669888
1440.546875 1.2978239999999999 0.783822 -0.514002
1441.3515625 1.277485 0.777536 -0.499949
1442.15234375 1.202148 0.7266 -0.475548
1442.99609375 1.1489 0.8139 -0.335
1443.85546875 1.4110770000000001 0.82981 -0.581267
1444.71875 1.54972 0.814924 -0.734796
1445.54296875 1.380343 0.738701 -0.641642
1446.33203125 1.369554 0.803772 -0.565782
1447.15625 1.473348 0.839432 -0.633916
1447.9609375 1.378059 0.809034 -0.569025
1448.77734375 1.369277 0.771421 -0.597856
1449.6328125 1.198281 0.836467 -0.361814
1450.48046875 1.244621 0.814621 -0.43
1451.33203125 1.145926 0.800535 -0.345391
1452.12890625 1.289857 0.745 -0.544857
1452.91796875 1.587373 0.88407 -0.703303
1453.75390625 1.340986 0.755986 -0.585
1454.58203125 1.470024 0.833835 -0.636189
1455.41796875 1.395807 0.750807 -0.645
1456.26953125 1.399439 0.824494 -0.574945
1457.1171875 1.5036969999999998 0.868722 -0.634975
1457.94140625 1.235004 0.787872 -0.447132
1458.73046875 1.08327 0.72443 -0.35884
1459.5234375 1.207422 0.788778 -0.418644
1460.3671875 1.367509 0.803004 -0.564505
1461.2109375 1.6087159999999998 0.973806 -0.63491
1462.0390625 1.483174 0.78118 -0.701994
1462.8828125 1.4909599999999998 0.889631 -0.601329
1463.71875 1.483689 0.893981 -0.589708
1464.52734375 1.447517 0.849317 -0.5982
1465.31640625 1.366446 0.951446 -0.415
1466.140625 1.136335 0.833774 -0.302561
1467.0 1.365727 0.99 -0.375727
1467.84765625 1.4753880000000001 0.725707 -0.749681
1468.6875 1.530219 0.863145 -0.667074
1469.51171875 1.387113 0.737685 -0.649428
1470.328125 1.3958080000000002 0.783394 -0.612414
1471.125 1.3710110000000002 0.805 -0.566011
1471.91796875 1.336717 0.684928 -0.651789
1472.76171875 1.130059 0.837058 -0.293001
1473.62109375 1.106991 0.845937 -0.261054
1474.46484375 1.00996 0.727972 -0.281988
1475.30078125 1.419756 0.827393 -0.592363
1476.10546875 1.307533 0.662533 -0.645
1476.92578125 1.444994 0.789994 -0.655
1477.734375 1.3455759999999999 0.711574 -0.634002
1478.546875 1.393519 0.791762 -0.601757
1479.41796875 1.416498 0.791498 -0.625
1480.27734375 1.541306 0.806306 -0.735
1481.10546875 1.140055 0.739978 -0.400077
1481.91796875 0.980471 0.602317 -0.378154
1482.71484375 1.285943 0.827785 -0.458158
1483.53125 1.320762 0.62934 -0.691422
1484.34765625 1.315264 0.593669 -0.721595
1485.17578125 1.410082 0.660183 -0.749899
1486.05859375 1.4663439999999999 0.832848 -0.633496
1486.9140625 1.3684759999999998 0.778476 -0.59
1487.71484375 1.400526 0.80834 -0.592186
1488.51953125 1.494702 0.869702 -0.625
1489.32421875 1.22686 0.775985 -0.450875
1490.1484375 1.226366 0.736366 -0.49
1490.98046875 0.9573820000000001 0.604485 -0.352897
1491.82421875 1.1761590000000002 0.730983 -0.445176
1492.6953125 1.483073 0.795234 -0.687839
1493.51953125 1.449778 0.739791 -0.709987
1494.30859375 1.384029 0.801747 -0.582282
1495.10546875 1.3996309999999998 0.837425 -0.562206
1495.91796875 1.392733 0.861057 -0.531676
1496.76171875 1.351617 0.826834 -0.524783
1497.609375 1.23459 0.78927 -0.44532
1498.4609375 1.315 0.858493 -0.456507
1499.32421875 1.112465 0.742608 -0.369857
1500.1328125 1.177312 0.847312 -0.33
1500.91796875 1.287695 0.698573 -0.589122
1501.71875 1.3569849999999999 0.732514 -0.624471
1502.55078125 1.355482 0.835365 -0.520117
1503.41015625 1.400129 0.835129 -0.565
1504.25390625 1.4845350000000002 0.924535 -0.56
1505.09375 1.208113 0.80326 -0.404853
1505.9296875 1.151681 0.891748 -0.259933
1506.7265625 1.211379 0.801434 -0.409945
1507.5078125 1.419964 0.841152 -0.578812
1508.32421875 1.396539 0.821662 -0.574877
1509.1875 1.513322 0.863728 -0.649594
1510.046875 1.454059 0.786117 -0.667942
1510.88671875 1.382992 0.803501 -0.579491
1511.71875 1.469891 0.869074 -0.600817
1512.5390625 1.6175190000000002 0.89341 -0.724109
1513.328125 1.20657 0.897882 -0.308688
1514.12890625 1.08346 0.81429 -0.26917
1514.9609375 1.303112 0.902961 -0.400151
1515.8359375 1.345269 0.752761 -0.592508
1516.6796875 1.5501399999999999 0.815178 -0.734962
1517.49609375 1.37009 0.695646 -0.674444
1518.3125 1.41415 0.790536 -0.623614
1519.12109375 1.412224 0.762717 -0.649507
1519.921875 1.4481600000000001 0.778938 -0.669222
1520.75390625 1.165783 0.701293 -0.46449
1521.609375 1.128277 0.740768 -0.387509
1522.484375 0.977053 0.724078 -0.252975
1523.3125 1.0971170000000001 0.701393 -0.395724
1524.10546875 1.4250250000000002 0.767955 -0.65707
1524.92578125 1.360106 0.685763 -0.674343
1525.73046875 1.4057650000000002 0.819405 -0.58636
1526.546875 1.293283 0.671484 -0.621799
1527.39453125 1.425589 0.824819 -0.60077
1528.24609375 1.342471 0.767875 -0.574596
1529.109375 1.4495770000000001 0.81051 -0.639067
1529.9140625 1.117195 0.752195 -0.365
1530.69921875 1.068079 0.76829 -0.299789
1531.53125 1.080734 0.849344 -0.23139
1532.35546875 1.048666 0.859464 -0.189202
1533.1875 1.26108 0.81108 -0.45
1534.0390625 1.466346 0.843227 -0.623119
1534.8828125 1.3677009999999998 0.794051 -0.57365
1535.71875 1.373031 0.908893 -0.464138
1536.5078125 1.32372 0.822634 -0.501086
1537.296875 1.49549 1.028233 -0.467257
1538.1328125 1.272014 0.854995 -0.417019
1538.96875 1.431215 1.01229 -0.418925
1539.80078125 1.225092 0.845173 -0.379919
1540.6484375 0.984237 0.764237 -0.22
1541.48828125 1.191991 0.89772 -0.294271
1542.3046875 1.393918 0.903684 -0.490234
1543.1015625 1.350409 0.800734 -0.549675
1543.91015625 1.388754 0.808754 -0.58
1544.7578125 1.477001 0.841947 -0.635054
1545.61328125 1.465725 0.981172 -0.484553
1546.44921875 1.285958 0.850984 -0.434974
1547.27734375 1.469746 0.980471 -0.489275
1548.1015625 1.2485970000000002 0.853597 -0.395
1548.90234375 1.304389 0.863636 -0.440753
1549.6953125 1.297441 0.909779 -0.387662
1550.52734375 1.049827 0.687914 -0.361913
1551.390625 1.414778 0.913672 -0.501106
1552.23828125 1.446122 0.732041 -0.714081
1553.07421875 1.4573589999999998 0.861405 -0.595954
1553.890625 1.312099 0.751196 -0.560903
1554.70703125 1.452773 0.911761 -0.541012
1555.51171875 1.359399 0.851108 -0.508291
1556.30859375 1.3563290000000001 0.836335 -0.519994
1557.171875 1.4448889999999999 0.819954 -0.624935
1558.0390625 1.428768 0.927814 -0.500954
1558.8671875 1.151396 0.876396 -0.275
1559.6875 1.1674039999999999 0.797404 -0.37
1560.484375 1.0961530000000002 0.716299 -0.379854
1561.296875 1.484134 0.85588 -0.628254
1562.1015625 1.372539 0.688145 -0.684394
1562.92578125 1.407085 0.782152 -0.624933
1563.80859375 1.4088479999999999 0.772567 -0.636281
1564.66796875 1.4822989999999998 0.881018 -0.601281
1565.484375 1.333757 0.802517 -0.53124
1566.29296875 1.452342 0.850943 -0.601399
1566.79296875 1.2188620000000001 -0.115149 -1.334011
1567.640625 1.235735 0.81083 -0.424905
1568.4609375 1.449271 0.973916 -0.475355
1569.30078125 1.428442 0.830141 -0.598301
1570.16796875 1.3651360000000001 0.809575 -0.555561
1571.01953125 1.454034 0.934547 -0.519487
1571.82421875 1.4589759999999998 0.854231 -0.604745
1572.6171875 1.4317700000000002 0.807332 -0.624438
1573.41796875 1.2812000000000001 0.782189 -0.499011
1574.25390625 1.116786 0.779073 -0.337713
1575.1015625 1.154086 0.865 -0.289086
1575.94140625 1.095302 0.766235 -0.329067
1576.81640625 1.21923 0.725492 -0.493738
1577.6484375 1.56875 0.828281 -0.740469
1578.4296875 1.346241 0.706335 -0.639906
1579.23046875 1.4338440000000001 0.729478 -0.704366
1580.0390625 1.402881 0.777881 -0.625
1580.88671875 1.349672 0.799406 -0.550266
1581.73828125 1.3702640000000001 0.769359 -0.600905
1582.5703125 1.4825080000000002 0.837914 -0.644594
1583.4296875 1.048693 0.730077 -0.318616
1584.234375 1.268397 0.858397 -0.41
1585.015625 0.965274 0.731833 -0.233441
1585.83203125 1.087829 0.727853 -0.359976
1586.6640625 1.444218 0.759218 -0.685
1587.53515625 1.2800280000000002 0.65697 -0.623058
1588.37890625 1.37248 0.810605 -0.561875
1589.2109375 1.247746 0.683204 -0.564542
1590.04296875 1.3427289999999998 0.842729 -0.5
1590.84375 1.329166 0.862091 -0.467075
1591.62890625 1.353914 0.779091 -0.574823
1592.4453125 1.387619 0.820607 -0.567012
1593.296875 1.190354 0.903072 -0.287282
1594.1640625 1.273514 0.716725 -0.556789
1595.0 1.0332430000000001 0.9 -0.133243
1595.8125 1.285013 0.857187 -0.427826
1596.63671875 1.277759 0.784582 -0.493177
1597.4453125 1.3928539999999998 0.763002 -0.629852
1598.2421875 1.492309 0.922309 -0.57
1599.0859375 1.466821 0.814814 -0.652007
1599.953125 1.3783120000000002 0.773916 -0.604396
1600.80859375 1.36311 0.798189 -0.564921
1601.6171875 1.47725 0.857904 -0.619346
1602.42578125 1.40767 0.757698 -0.649972
1603.24609375 1.089815 0.718696 -0.371119
1604.04296875 1.290667 0.839277 -0.45139
1604.8671875 0.959042 0.653249 -0.305793
1605.71875 1.393076 0.913076 -0.48
1606.58203125 1.459368 0.833878 -0.62549
1607.41796875 1.573518 0.879277 -0.694241
1608.21484375 1.512962 0.953861 -0.559101
1609.02734375 1.335228 0.81271 -0.522518
1609.8515625 1.481855 0.866975 -0.61488
1610.6640625 1.569239 0.984937 -0.584302
1611.515625 1.175853 0.862773 -0.31308
1612.3671875 1.113966 0.828308 -0.285658
1613.21875 1.383413 0.929773 -0.45364
1614.03125 1.49176 0.880778 -0.610982
1614.8125 1.416233 0.767344 -0.648889
1615.6328125 1.530799 0.826678 -0.704121
1616.4609375 1.42949 0.84949 -0.58
1617.296875 1.44257 0.89257 -0.55
1618.15234375 1.533211 0.889159 -0.644052
1619.0 1.51031 0.955 -0.55531
1619.83984375 1.266229 0.871229 -0.395
1620.63671875 1.163474 0.847092 -0.316382
1621.42578125 1.190727 0.85077 -0.339957
1622.265625 1.437699 0.827774 -0.609925
1623.11328125 1.376733 0.775626 -0.601107
1623.94921875 1.7560449999999999 0.881091 -0.874954
1624.79296875 1.4571749999999999 0.857958 -0.599217
1625.6171875 1.367897 0.856474 -0.511423
1626.4296875 1.478086 0.85995 -0.618136
1627.21875 1.554918 0.958484 -0.596434
1628.015625 1.473821 0.943543 -0.530278
1628.87890625 1.251994 0.885537 -0.366457
1629.734375 1.2876020000000001 0.803879 -0.483723
1630.5703125 1.283243 0.929955 -0.353288
1631.40234375 1.565267 0.787263 -0.778004
1632.21484375 1.323006 0.62415 -0.698856
1633.02734375 1.427025 0.791276 -0.635749
1633.82421875 1.5637150000000002 0.854596 -0.709119
1634.6484375 1.3718439999999998 0.902928 -0.468916
1635.51953125 1.2940239999999998 0.829853 -0.464171
1636.3671875 1.4953180000000001 0.895634 -0.599684
1637.19140625 1.5394960000000002 0.912124 -0.627372
1637.99609375 1.34656 0.880293 -0.466267
1638.8046875 1.184245 0.777969 -0.406276
1639.6171875 1.2410299999999999 0.734663 -0.506367
1640.4296875 1.2389839999999999 0.818066 -0.420918
1641.28125 1.389062 0.764062 -0.625
1642.16015625 1.23008 0.67008 -0.56
1643.0 1.374885 0.84 -0.534885
1643.80859375 1.5398640000000001 0.93487 -0.604994
1644.60546875 1.302504 0.812911 -0.489593
1645.421875 1.22004 0.722856 -0.497184
1646.234375 1.35434 0.742538 -0.611802
1647.05859375 1.530659 0.893569 -0.63709
1647.9296875 1.093572 0.773572 -0.32
1648.7890625 1.184947 0.733626 -0.451321
1649.6015625 1.1173980000000001 0.803394 -0.314004
1650.40234375 1.176188 0.806421 -0.369767
1651.19921875 1.306736 0.726851 -0.579885
1652.02734375 1.3066710000000001 0.76779 -0.538881
1652.85546875 1.361894 0.867847 -0.494047
1653.69921875 1.4561549999999999 0.862383 -0.593772
1654.58203125 1.380671 0.782284 -0.598387
1655.4140625 1.2532860000000001 0.708286 -0.545
1656.20703125 1.111193 0.686193 -0.425
1657.0078125 1.362546 0.888315 -0.474231
1657.8046875 1.0474100000000002 0.788394 -0.259016
1658.6484375 1.13185 0.75538 -0.37647
1659.49609375 1.5150510000000001 0.825203 -0.689848
1660.33203125 1.557407 0.908299 -0.649108
1661.19921875 1.36575 0.82519 -0.54056
1662.015625 1.448232 0.88854 -0.559692
1662.80078125 1.625817 1.017681 -0.608136
1663.60546875 1.396209 0.96973 -0.426479
1664.4296875 1.230657 0.786208 -0.444449
1665.30078125 1.262224 0.907291 -0.354933
1666.1484375 1.1775120000000001 0.902512 -0.275
1666.98046875 1.322889 0.949644 -0.373245
1667.82421875 1.560178 0.849868 -0.71031
1668.62109375 1.532409 0.927626 -0.604783
1669.3984375 1.505136 0.929627 -0.575509
1670.20703125 1.458053 0.863884 -0.594169
1671.05859375 1.492189 0.880941 -0.611248
1671.91796875 1.477586 0.938733 -0.538853
1672.7578125 1.4485640000000002 0.852264 -0.5963
1673.5859375 1.463778 0.983778 -0.48
1674.41015625 1.495757 0.901634 -0.594123
1675.20703125 1.092956 0.760812 -0.332144
1676.00390625 1.480244 0.940796 -0.539448
1676.8359375 1.5730270000000002 0.908208 -0.664819
1677.70703125 1.4862250000000001 0.801905 -0.68432
1678.5625 1.534663 0.825138 -0.709525
1679.3828125 1.47621 0.976581 -0.499629
1680.1953125 1.435883 0.836742 -0.599141
1681.0078125 1.4512239999999998 0.842318 -0.608906
1681.8046875 1.347899 0.809384 -0.538515
1682.62109375 1.343401 0.992989 -0.350412
1683.46875 1.4094280000000001 0.985291 -0.424137
1684.34375 1.134422 0.80716 -0.327262
1685.19140625 1.049045 0.794045 -0.255
1685.9921875 1.37264 0.90764 -0.465
1686.8046875 1.507624 0.942671 -0.564953
1687.625 1.499323 0.875 -0.624323
1688.43359375 1.3264040000000001 0.766126 -0.560278
1689.27734375 1.281255 0.782975 -0.49828
1690.12890625 1.429259 0.864621 -0.564638
1690.98828125 1.495385 0.907499 -0.587886
1691.8046875 1.25123 0.680669 -0.570561
1692.5859375 1.446804 0.762366 -0.684438
1693.40625 1.6342979999999998 0.919298 -0.715
1694.23046875 1.1297519999999999 0.849752 -0.28
1695.0546875 0.662837 0.186248 -0.476589
1695.8984375 1.144856 0.825926 -0.31893
1696.75390625 1.064687 0.750196 -0.314491
1697.59765625 1.2068599999999998 0.753423 -0.453437
1698.39453125 1.4735800000000001 0.813071 -0.660509
1699.1796875 1.400586 0.842702 -0.557884
1700.01171875 1.42605 0.782418 -0.643632
1700.84765625 1.2237230000000001 0.683512 -0.540211
1701.6875 1.319621 0.791496 -0.528125
1702.5390625 1.559839 0.954839 -0.605
1703.37109375 1.4914450000000001 0.848121 -0.643324
1704.19140625 1.35095 0.74595 -0.605
1704.98046875 1.224283 0.79939 -0.424893
1705.7734375 1.347254 0.77925 -0.568004
1706.62890625 0.9934339999999999 0.675426 -0.318008
1707.484375 1.33321 0.856006 -0.477204
1708.328125 1.531546 0.888178 -0.643368
1709.16796875 1.3967230000000002 0.771723 -0.625
1709.984375 1.41372 0.715312 -0.698408
1710.796875 1.470373 0.803465 -0.666908
1711.58984375 1.480962 0.873776 -0.607186
1712.40234375 1.548546 0.919826 -0.62872
1713.27734375 1.333203 0.844016 -0.489187
1714.12890625 1.2941859999999998 0.715557 -0.578629
1714.9453125 1.142082 0.74212 -0.399962
1715.76171875 1.423069 0.858921 -0.564148
1716.57421875 1.508601 0.765966 -0.742635
1717.37890625 1.4927640000000002 0.819158 -0.673606
1718.1875 1.5190190000000001 0.795 -0.724019
1719.0390625 1.57349 0.86349 -0.71
1719.91015625 1.396875 0.711875 -0.685
1720.75 1.491852 0.73 -0.761852
1721.5703125 1.459162 0.79148 -0.667682
1722.3671875 1.437324 0.842356 -0.594968
1723.18359375 1.120762 0.697936 -0.422826
1723.98828125 1.2820580000000001 0.732788 -0.54927
1724.80859375 1.527346 0.802058 -0.725288
1725.67578125 1.5966049999999998 0.806322 -0.790283
1726.53515625 1.485997 0.746945 -0.739052
1727.359375 1.4763169999999999 0.833025 -0.643292
1728.16796875 1.598348 0.938571 -0.659777
1728.96484375 1.440307 0.848681 -0.591626
1729.79296875 1.381315 0.731743 -0.649572
1730.6171875 1.2955839999999998 0.730799 -0.564785
1731.453125 1.4769079999999999 0.927857 -0.549051
1732.33203125 1.173286 0.791158 -0.382128
1733.18359375 1.4009040000000001 0.929301 -0.471603
1733.9765625 1.1340729999999999 0.717204 -0.416869
1734.7734375 0.844727 0.709339 -0.135388
1735.57421875 1.2664490000000002 0.789433 -0.477016
1736.41015625 1.456814 0.791158 -0.665656
1737.24609375 1.2726899999999999 0.659211 -0.613479
1738.078125 1.36374 0.760443 -0.603297
1738.9609375 1.424577 0.839577 -0.585
1739.78515625 1.434931 0.829154 -0.605777
1740.5703125 1.382101 0.727232 -0.654869
1741.37109375 1.484135 0.794472 -0.689663
1742.1875 1.386941 0.808732 -0.578209
1743.0390625 1.4326750000000001 0.853884 -0.578791
1743.890625 1.191273 0.746294 -0.444979
1744.7265625 1.317451 0.773875 -0.543576
1745.58203125 1.206606 0.790517 -0.416089
1746.3828125 0.95332 0.727363 -0.225957
1747.16015625 1.23015 0.786073 -0.444077
1747.9609375 1.4061409999999999 0.783837 -0.622304
1748.796875 1.448707 0.867691 -0.581016
1749.6640625 1.427515 0.873868 -0.553647
1750.515625 1.40714 0.758019 -0.649121
1751.3515625 1.354375 0.799567 -0.554808
1752.1796875 1.3388200000000001 0.844106 -0.494714
1752.9765625 1.457036 0.872595 -0.584441
1753.76953125 1.449699 0.884742 -0.564957
1754.58984375 1.3813710000000001 0.822487 -0.558884
1755.453125 1.151117 0.851551 -0.299566
1756.31640625 1.403353 0.918919 -0.484434
1757.14453125 1.103554 0.83451 -0.269044
1757.96484375 1.174166 0.869822 -0.304344
1758.77734375 1.2516850000000002 0.802498 -0.449187
1759.56640625 1.400255 0.837528 -0.562727
1760.375 1.594654 0.925 -0.669654
1761.22265625 1.414072 0.845248 -0.568824
1762.09375 1.423424 0.913039 -0.510385
1762.94140625 1.478358 0.911411 -0.566947
1763.75390625 1.404849 0.844849 -0.56
1764.5703125 1.341961 0.80712 -0.534841
1765.37890625 1.622935 0.955179 -0.667756
1766.17578125 1.3676620000000002 0.813438 -0.554224
1767.01953125 1.402331 0.884922 -0.517409
1767.875 1.395878 1.015 -0.380878
1768.73828125 1.102878 0.813662 -0.289216
1769.5625 1.026232 0.741445 -0.284787
1770.34765625 1.32814 0.843296 -0.484844
1771.16796875 1.5154269999999999 0.883883 -0.631544
1771.98046875 1.415023 0.809564 -0.605459
1772.8046875 1.532368 0.838423 -0.693945
1773.6640625 1.38305 0.85998 -0.52307
1774.5234375 1.516295 1.046563 -0.469732
1775.375 1.5366819999999999 1.025 -0.511682
1776.17578125 1.439123 0.894751 -0.544372
1776.95703125 1.3971010000000001 0.837294 -0.559807
1777.79296875 1.285637 0.841336 -0.444301
1778.62109375 1.325203 0.857551 -0.467652
1779.453125 0.999518 0.852336 -0.147182
1780.3046875 1.385808 0.952124 -0.433684
1781.1484375 1.53165 0.893839 -0.637811
1781.9765625 1.4359380000000002 0.794263 -0.641675
1782.76171875 1.5863770000000001 0.923648 -0.662729
1783.5546875 1.5974400000000002 0.997446 -0.599994
1784.4140625 1.6081729999999999 1.063173 -0.545
1785.26171875 1.584825 0.973496 -0.611329
1786.09765625 1.5701990000000001 0.91534 -0.654859
1786.9453125 1.393699 0.795465 -0.598234
1787.765625 1.467049 0.802081 -0.664968
1788.57421875 1.328039 0.883039 -0.445
1789.36328125 1.392261 0.833172 -0.559089
1790.171875 1.2089880000000002 0.908259 -0.300729
1791.0390625 1.2996439999999998 1.044644 -0.255
1791.890625 1.3697400000000002 0.860534 -0.509206
1792.71875 1.4902730000000002 0.745453 -0.74482
1793.546875 1.456879 0.817345 -0.639534
1794.36328125 1.513283 0.908283 -0.605
1795.16796875 1.485606 0.818883 -0.666723
1795.97265625 1.374258 0.724742 -0.649516
1796.8125 1.482175 0.844714 -0.637461
1797.68359375 1.455457 0.752131 -0.703326
1798.53125 1.5833629999999999 0.799074 -0.784289
1799.35546875 1.106471 0.699959 -0.406512
1800.15234375 1.2798340000000001 0.751876 -0.527958
1800.97265625 1.1153520000000001 0.790416 -0.324936
1801.7734375 0.9912019999999999 0.661202 -0.33
1802.5859375 1.325364 0.797282 -0.528082
1803.453125 1.453141 0.789007 -0.664134
1804.3125 1.309318 0.75 -0.559318
