4.53125 2.9009400000000003 1.555778 -1.345162
4.8359375 0.224875 -0.405125 -0.63
5.49609375 3.005991 1.621223 -1.384768
5.80859375 0.26850700000000005 -0.430133 -0.69864
6.46875 3.069408 1.650765 -1.418643
7.5 3.034956 1.765 -1.269956
8.51953125 3.009194 1.799668 -1.209526
9.46484375 3.052892 1.702141 -1.350751
10.38671875 3.144617 1.699312 -1.445305
11.4296875 2.98255 1.749686 -1.232864
12.47265625 2.915997 1.861315 -1.054682
13.3984375 2.932774 1.663978 -1.268796
14.390625 3.065765 1.630108 -1.435657
15.3359375 3.114688 1.529831 -1.584857
16.23828125 3.0431869999999996 1.451169 -1.592018
17.1171875 3.130241 1.467159 -1.663082
18.05078125 3.12249 1.507302 -1.615188
19.05078125 3.1439529999999998 1.577386 -1.566567
19.94921875 3.084886 1.687754 -1.397132
20.82421875 3.0484 1.8565 -1.1919
21.7734375 2.901528 1.612607 -1.288921
22.73828125 3.025636 1.544727 -1.480909
23.6640625 3.076509 1.524026 -1.552483
24.53125 2.963724 1.72215 -1.241574
25.45703125 2.9212730000000002 1.748839 -1.172434
26.38671875 2.994276 1.61 -1.384276
27.33984375 2.953785 1.423785 -1.53
28.21875 3.0643960000000003 1.479257 -1.585139
29.1484375 3.029612 1.472259 -1.557353
30.08203125 3.051693 1.467644 -1.584049
31.0 3.104777 1.49 -1.614777
31.875 3.0497389999999998 1.565 -1.484739
32.75390625 3.0355239999999997 1.748278 -1.287246
33.6484375 3.008756 1.659333 -1.349423
34.52734375 3.107334 1.610863 -1.496471
35.37890625 3.056606 1.53335 -1.523256
36.35546875 3.104717 1.579717 -1.525
37.2890625 2.882716 1.809046 -1.07367
38.15234375 2.920933 1.730777 -1.190156
39.13671875 2.966233 1.473942 -1.492291
40.19921875 2.9718910000000003 1.289149 -1.682742
41.13671875 3.0113149999999997 1.271218 -1.740097
42.19921875 3.055733 1.194592 -1.861141
43.3359375 3.008692 1.1689 -1.839792
44.34765625 2.922959 1.25414 -1.668819
45.328125 2.962429 1.424056 -1.538373
46.37890625 2.965394 1.638277 -1.327117
47.42578125 2.81248 1.90457 -0.90791
48.41015625 2.8730089999999997 1.809388 -1.063621
49.41015625 2.840318 1.572358 -1.26796
50.45703125 2.9329520000000002 1.443026 -1.489926
51.44140625 2.934492 1.402667 -1.531825
52.40234375 3.023683 1.529231 -1.494452
53.3828125 2.849628 1.441673 -1.407955
54.359375 2.640864 1.252636 -1.388228
55.23046875 2.359788 1.059788 -1.3
56.12109375 2.2096590000000003 0.939891 -1.269768
57.0546875 2.305694 1.1329 -1.172794
57.98828125 2.435455 1.316044 -1.119411
58.8203125 2.4995529999999997 1.268347 -1.231206
59.69140625 2.766502 1.433729 -1.332773
60.6484375 2.764077 1.358382 -1.405695
61.58203125 2.747015 1.382065 -1.36495
62.5546875 2.749245 1.37235 -1.376895
63.5546875 2.693779 1.25 -1.443779
64.5 2.63992 1.215 -1.42492
65.39453125 2.6724829999999997 1.359977 -1.312506
66.31640625 2.779356 1.444847 -1.334509
67.32421875 2.735801 1.38849 -1.347311
68.23828125 2.7811690000000002 1.414448 -1.366721
69.21484375 2.771858 1.455174 -1.316684
70.2421875 2.774809 1.541845 -1.232964
71.27734375 2.666268 1.518099 -1.148169
72.2578125 2.886047 1.735854 -1.150193
73.26171875 2.5833399999999997 2.119217 -0.464123
74.26171875 2.552962 1.915259 -0.637703
75.1953125 2.617508 1.576933 -1.040575
76.06640625 2.7412150000000004 1.438379 -1.302836
76.97265625 2.810519 1.289637 -1.520882
77.87890625 2.670365 1.125365 -1.545
78.765625 2.731414 1.122963 -1.608451
79.62890625 2.802883 1.204607 -1.598276
80.51953125 2.8115819999999996 1.275 -1.536582
81.5390625 2.838825 1.333979 -1.504846
82.42578125 2.789348 1.331583 -1.457765
83.34375 2.863276 1.468065 -1.395211
84.31640625 2.837364 1.518255 -1.319109
85.265625 2.794783 1.516583 -1.2782
86.19921875 2.975866 1.687128 -1.288738
87.171875 2.869579 1.641191 -1.228388
88.2421875 2.791652 1.584625 -1.207027
89.1953125 2.783791 1.584985 -1.198806
90.14453125 2.934187 1.67473 -1.259457
91.10546875 2.858154 1.709772 -1.148382
92.0703125 2.7059749999999996 1.595754 -1.110221
92.98046875 2.864995 1.684995 -1.18
93.921875 2.706731 1.938332 -0.768399
94.89453125 2.591491 1.994784 -0.596707
95.86328125 2.645179 1.681267 -0.963912
96.74609375 2.7292870000000002 1.389593 -1.339694
97.7734375 2.7117750000000003 1.236176 -1.475599
98.73046875 2.804658 1.249658 -1.555
99.62890625 2.7230489999999996 1.221547 -1.501502
100.65234375 2.50516 1.116295 -1.388865
101.6953125 2.553883 1.400957 -1.152926
102.5703125 2.5845320000000003 1.552283 -1.032249
103.4765625 2.663021 1.323021 -1.34
104.5390625 2.627587 1.304854 -1.322733
105.5859375 2.67436 1.279567 -1.394793
106.484375 2.6684669999999997 1.23521 -1.433257
107.5078125 2.660801 1.211521 -1.44928
108.60546875 2.4816570000000002 1.164877 -1.31678
109.54296875 2.619713 1.301909 -1.317804
110.484375 2.832701 1.401154 -1.431547
111.4921875 2.830873 1.430342 -1.400531
112.5078125 2.635227 1.749158 -0.886069
113.3984375 2.665534 1.799883 -0.865651
114.32421875 2.6138250000000003 1.637699 -0.976126
115.3203125 2.65215 1.367767 -1.284383
116.234375 2.81097 1.218535 -1.592435
117.07421875 2.831913 1.194634 -1.637279
117.95703125 2.783623 1.166812 -1.616811
118.9140625 2.717279 1.18998 -1.527299
119.81640625 2.5840810000000003 1.43704 -1.147041
120.703125 2.621661 1.544314 -1.077347
121.671875 2.5601000000000003 1.22615 -1.33395
122.65625 2.271457 0.890991 -1.380466
123.55078125 2.398982 0.912832 -1.48615
124.5078125 2.339823 0.806236 -1.533587
125.52734375 2.420073 0.882981 -1.537092
126.45703125 2.799883 1.256166 -1.543717
127.39453125 2.733572 1.56966 -1.163912
128.4609375 2.796004 1.796161 -0.999843
129.46875 2.849444 1.630948 -1.218496
130.34765625 3.3196399999999997 1.725326 -1.594314
131.21484375 3.23736 1.598801 -1.638559
132.12890625 3.1893520000000004 1.528169 -1.661183
132.99609375 3.123317 1.653846 -1.469471
133.87109375 3.207954 1.612567 -1.595387
134.78515625 3.260619 1.577833 -1.682786
135.7265625 3.133406 1.569417 -1.563989
136.64453125 3.253962 1.594613 -1.659349
137.609375 3.284892 1.635594 -1.649298
138.58984375 3.133352 1.595227 -1.538125
139.51171875 3.192154 1.705765 -1.486389
140.40625 3.313959 1.821242 -1.492717
141.43359375 3.28608 1.987989 -1.298091
142.42578125 3.138001 1.934594 -1.203407
143.3359375 3.217612 1.749131 -1.468481
144.296875 3.288209 1.568894 -1.719315
145.3203125 3.178613 1.544501 -1.634112
146.23046875 3.294975 1.759779 -1.535196
147.09375 3.29472 1.865161 -1.429559
148.015625 3.146655 1.85 -1.296655
148.92578125 3.2155940000000003 1.892447 -1.323147
149.76171875 3.250451 1.866919 -1.383532
150.625 3.305302 1.885 -1.420302
151.55078125 3.261507 1.79844 -1.463067
152.4609375 3.172079 1.823832 -1.348247
153.32421875 3.155645 1.893202 -1.262443
154.2421875 3.215268 1.988325 -1.226943
155.3515625 3.112368 1.960797 -1.151571
156.3359375 3.159777 1.864934 -1.294843
157.26171875 3.073184 1.798184 -1.275
158.2890625 3.069541 1.664863 -1.404678
159.25 3.069309 1.61 -1.459309
160.109375 3.1802469999999996 1.737928 -1.442319
161.0625 3.1473839999999997 1.802386 -1.344998
162.16796875 3.05542 1.990973 -1.064447
163.12890625 3.041492 1.797428 -1.244064
164.078125 3.185092 1.693521 -1.491571
165.0859375 3.109808 1.745 -1.364808
166.0625 3.0584800000000003 1.695287 -1.363193
166.921875 3.1264969999999996 1.611195 -1.515302
167.859375 3.156573 1.630709 -1.525864
168.828125 3.139291 1.615992 -1.523299
169.79296875 3.1489279999999997 1.758878 -1.39005
170.66796875 3.2407060000000003 1.840144 -1.400562
171.59765625 3.1889320000000003 1.862411 -1.326521
172.62109375 3.229489 1.636293 -1.593196
173.546875 3.25644 1.562555 -1.693885
174.390625 3.2184 1.582815 -1.635585
175.375 3.249728 1.735 -1.514728
176.4296875 3.110726 2.073275 -1.037451
177.3515625 3.17786 1.98286 -1.195
178.30078125 3.253769 1.739758 -1.514011
179.35546875 3.289963 1.669963 -1.62
180.3515625 3.0993399999999998 1.586013 -1.513327
181.22265625 3.211157 1.821013 -1.390144
182.08203125 3.1325 1.91708 -1.21542
182.95703125 3.132008 1.715543 -1.416465
183.83203125 3.161417 1.590017 -1.5714
184.66015625 3.2211670000000003 1.623561 -1.597606
185.5390625 3.272809 1.714887 -1.557922
186.5 3.238297 1.75 -1.488297
187.40625 3.244028 1.735826 -1.508202
188.3359375 3.329157 1.864147 -1.46501
189.53515625 3.1819 1.784337 -1.397563
190.5625 3.114754 1.739754 -1.375
191.59765625 3.237647 1.761326 -1.476321
192.65625 3.097632 1.607187 -1.490445
193.71875 3.179736 1.682321 -1.497415
194.7109375 3.324619 1.794715 -1.529904
195.75390625 3.182038 1.71 -1.472038
196.78125 3.1580079999999997 1.688248 -1.46976
197.765625 3.227903 1.764511 -1.463392
198.80078125 3.219443 1.79584 -1.423603
199.828125 3.149299 1.764364 -1.384935
200.85546875 3.169934 1.759934 -1.41
201.83203125 3.197475 1.826939 -1.370536
202.828125 3.0721429999999996 1.974848 -1.097295
203.8359375 3.0688459999999997 1.728897 -1.339949
204.79296875 3.1266540000000003 1.673336 -1.453318
205.7734375 3.237837 1.691092 -1.546745
206.765625 3.154495 1.510265 -1.64423
207.7734375 3.103515 1.52237 -1.581145
208.703125 3.204366 1.624834 -1.579532
209.63671875 3.251541 1.684301 -1.56724
210.6484375 3.2105259999999998 1.631176 -1.57935
211.65234375 3.205682 1.624064 -1.581618
212.578125 3.207095 1.703241 -1.503854
213.5234375 3.1379650000000003 1.791913 -1.346052
214.54296875 3.108761 1.79419 -1.314571
215.52734375 3.2381919999999997 1.644218 -1.593974
216.421875 3.2764569999999997 1.623869 -1.652588
217.31640625 3.3331280000000003 1.654231 -1.678897
218.234375 3.231568 1.651595 -1.579973
219.1015625 3.2354700000000003 1.691013 -1.544457
219.9765625 3.35587 1.76087 -1.595
220.8515625 3.235974 1.728436 -1.507538
221.75 3.2648010000000003 1.715 -1.549801
222.625 3.339588 1.805 -1.534588
223.57421875 3.300672 1.895882 -1.40479
224.56640625 3.352444 1.828239 -1.524205
225.55078125 3.2469729999999997 1.734791 -1.512182
226.4375 3.1719549999999996 1.975069 -1.196886
227.37109375 3.054979 1.865765 -1.189214
228.26171875 3.1577960000000003 1.616578 -1.541218
229.10546875 3.299784 1.539784 -1.76
229.984375 3.2195169999999997 1.516932 -1.702585
230.86328125 3.273635 1.523271 -1.750364
231.69140625 3.0723890000000003 1.402221 -1.670168
232.51953125 3.20831 1.521897 -1.686413
233.3984375 3.244928 1.457449 -1.787479
234.23046875 3.214949 1.498532 -1.716417
235.0390625 3.251592 1.648673 -1.602919
235.87109375 3.200526 1.681352 -1.519174
236.73828125 3.3085370000000003 1.780097 -1.52844
237.59375 3.283676 1.749677 -1.533999
238.54296875 3.212435 1.79269 -1.419745
239.54296875 3.163453 1.775555 -1.387898
240.50390625 3.188295 1.818295 -1.37
241.55078125 3.0298920000000003 1.703722 -1.32617
242.55859375 3.03098 1.657536 -1.373444
243.48828125 3.027384 1.639267 -1.388117
244.46484375 3.09767 1.714121 -1.383549
245.37109375 3.0844370000000003 1.654681 -1.429756
246.21875 3.156312 1.707402 -1.44891
247.046875 3.203779 1.787306 -1.416473
247.94140625 3.109285 1.8073 -1.301985
248.9296875 3.166685 1.882214 -1.284471
249.890625 3.189679 1.928527 -1.261152
250.84765625 3.12261 1.890877 -1.231733
251.9453125 3.141919 1.872602 -1.269317
253.05859375 3.023938 1.742757 -1.281181
254.07421875 3.1619159999999997 1.781593 -1.380323
255.1015625 3.220803 1.833393 -1.38741
256.15625 3.089299 1.71509 -1.374209
257.14453125 3.033166 1.599572 -1.433594
258.04296875 3.158341 1.717906 -1.440435
259.05859375 3.207494 1.796038 -1.411456
260.09375 3.168138 1.804274 -1.363864
261.0390625 3.223447 1.874034 -1.349413
261.921875 3.1373420000000003 1.758337 -1.379005
262.92578125 3.0988480000000003 1.784354 -1.314494
263.921875 3.050166 1.76666 -1.283506
264.8125 2.992855 1.777353 -1.215502
265.734375 3.097989 1.885647 -1.212342
266.69921875 3.032807 1.768351 -1.264456
267.59765625 3.0891780000000004 1.727923 -1.361255
268.4453125 3.148084 1.772199 -1.375885
269.390625 3.104359 1.773293 -1.331066
270.41796875 3.017295 1.726211 -1.291084
271.33203125 3.149266 1.808564 -1.340702
272.33203125 3.0981360000000002 1.821891 -1.276245
273.37109375 3.056375 1.733618 -1.322757
274.24609375 3.13122 1.698938 -1.432282
275.109375 3.1729149999999997 1.786929 -1.385986
276.0390625 3.013497 2.11945 -0.894047
276.94921875 2.848399 2.057529 -0.79087
277.80859375 2.851063 1.740844 -1.110219
278.69140625 3.083839 1.639095 -1.444744
279.625 3.134901 1.495 -1.639901
280.5234375 3.1575670000000002 1.467781 -1.689786
281.49609375 3.206821 1.561376 -1.645445
282.58984375 3.177806 1.578126 -1.59968
283.57421875 3.170382 1.555565 -1.614817
284.49609375 3.22851 1.675497 -1.553013
285.48828125 3.277968 1.823298 -1.45467
286.546875 3.0481860000000003 1.625069 -1.423117
287.5 3.241593 1.72 -1.521593
288.4453125 3.176195 1.718821 -1.457374
289.44140625 3.089311 1.652571 -1.43674
290.37109375 3.1834439999999997 1.72743 -1.456014
291.25 3.2788690000000003 1.8 -1.478869
292.1953125 3.2999840000000003 1.965707 -1.334277
293.26171875 2.9389749999999997 2.15107 -0.787905
294.328125 3.14612 1.9304 -1.21572
295.296875 3.231829 1.712276 -1.519553
296.25 3.2108920000000003 1.55 -1.660892
297.1875 3.1050370000000003 1.414573 -1.690464
298.05859375 3.225377 1.569614 -1.655763
298.94140625 3.363909 1.719428 -1.644481
299.796875 3.37223 1.749219 -1.623011
300.73046875 3.211412 1.646412 -1.565
301.640625 3.224895 1.695149 -1.529746
302.5625 3.305284 1.790619 -1.514665
303.5703125 3.326381 1.852446 -1.473935
304.59765625 3.269223 1.8115 -1.457723
305.53515625 3.350699 1.879251 -1.471448
306.54296875 3.3545350000000003 1.786292 -1.568243
307.6171875 3.201773 1.70987 -1.491903
308.64453125 3.262753 1.84 -1.422753
309.5703125 3.3497700000000004 2.000083 -1.349687
310.5546875 3.34718 2.045229 -1.301951
311.62890625 3.257504 1.984488 -1.273016
312.60546875 3.314977 2.004977 -1.31
313.50390625 3.277864 1.976179 -1.301685
314.4453125 3.242769 1.954681 -1.288088
315.43359375 3.216527 1.918324 -1.298203
316.34375 3.203736 1.895248 -1.308488
317.23046875 3.3039560000000003 1.969599 -1.334357
318.1796875 3.172034 2.036766 -1.135268
319.109375 3.123616 2.030884 -1.092732
319.99609375 3.2635810000000003 1.933947 -1.329634
320.92578125 3.293011 1.862834 -1.430177
321.87109375 3.274336 1.771076 -1.50326
322.7734375 3.21899 1.59405 -1.62494
323.6875 3.332184 1.614623 -1.717561
324.6953125 3.328979 1.672329 -1.65665
325.73046875 3.2799829999999996 1.724983 -1.555
326.6328125 3.2904 1.776902 -1.513498
327.57421875 3.341156 1.842573 -1.498583
328.640625 3.245991 1.886545 -1.359446
329.55078125 3.296505 1.919874 -1.376631
330.46484375 3.343576 2.003801 -1.339775
331.4140625 3.2913710000000003 2.033574 -1.257797
332.39453125 3.348825 2.044817 -1.304008
333.28515625 3.3041220000000004 2.014441 -1.289681
334.20703125 3.3438290000000004 2.05209 -1.291739
335.16796875 3.294615 2.001315 -1.2933
336.1640625 3.265612 1.944728 -1.320884
337.04296875 3.3070329999999997 1.97 -1.337033
338.01171875 3.3414859999999997 1.968785 -1.372701
339.00390625 3.309082 1.926515 -1.382567
339.88671875 3.230978 1.875675 -1.355303
340.7421875 3.39661 1.952395 -1.444215
341.671875 3.278721 1.909751 -1.36897
342.65234375 3.267689 1.926068 -1.341621
343.5390625 3.370044 1.886735 -1.483309
344.43359375 3.291248 1.959258 -1.33199
345.5 3.29 1.925 -1.365
346.54296875 3.188323 1.811523 -1.3768
347.453125 3.315149 1.884557 -1.430592
348.40234375 3.170074 1.736768 -1.433306
349.3515625 3.1905289999999997 1.714214 -1.476315
350.26953125 3.101692 1.641892 -1.4598
351.10546875 3.259634 1.779634 -1.48
352.03515625 3.1661770000000002 1.80837 -1.357807
353.140625 3.06841 1.75558 -1.31283
354.08984375 3.104176 1.75591 -1.348266
354.96875 3.218681 1.827881 -1.3908
355.93359375 3.2116670000000003 1.798715 -1.412952
356.953125 3.016643 1.784737 -1.231906
357.8203125 3.0399979999999998 1.762523 -1.277475
358.703125 3.137603 1.812128 -1.325475
359.66796875 2.966271 1.904428 -1.061843
360.6171875 2.956066 1.656314 -1.299752
361.46875 3.0538100000000004 1.496555 -1.557255
362.35546875 3.1622589999999997 1.479796 -1.682463
363.31640625 3.058792 1.394145 -1.664647
364.203125 3.1524330000000003 1.445846 -1.706587
365.04296875 3.1080579999999998 1.465246 -1.642812
365.94140625 3.1033340000000003 1.578866 -1.524468
366.8984375 3.0619259999999997 1.589983 -1.471943
367.796875 3.139577 1.529177 -1.6104
368.6484375 3.112572 1.485329 -1.627243
369.5703125 3.157261 1.520753 -1.636508
370.609375 3.113362 1.471781 -1.641581
371.609375 3.131921 1.513154 -1.618767
372.515625 3.157387 1.618605 -1.538782
373.58984375 3.109236 1.675732 -1.433504
374.61328125 2.9928980000000003 1.623124 -1.369774
375.52734375 3.069613 1.673465 -1.396148
376.47265625 3.152733 1.762744 -1.389989
377.49609375 3.082091 1.779177 -1.302914
378.41015625 3.073307 1.725686 -1.347621
379.24609375 3.134398 1.774154 -1.360244
380.15625 3.0974779999999997 1.742065 -1.355413
381.14453125 3.164442 1.774837 -1.389605
382.02734375 2.985742 1.624811 -1.360931
382.89453125 3.169682 1.799802 -1.36988
383.89453125 3.111251 1.78163 -1.329621
384.95703125 3.088267 1.765224 -1.323043
385.875 3.0515939999999997 1.73 -1.321594
386.8359375 3.084771 1.785518 -1.299253
387.94921875 3.130654 1.722754 -1.4079
388.90234375 3.131842 1.651818 -1.480024
389.7734375 3.1602629999999996 1.637768 -1.522495
390.7578125 3.242869 1.711096 -1.531773
391.82421875 3.131914 1.810875 -1.321039
392.75390625 3.102354 1.885208 -1.217146
393.59765625 3.139779 1.833999 -1.30578
394.58203125 3.165049 1.788481 -1.376568
395.6015625 3.116564 1.741564 -1.375
396.59375 3.203651 1.705831 -1.49782
397.53515625 3.253085 1.775829 -1.477256
398.5625 3.222671 1.800224 -1.422447
399.671875 3.204085 1.794436 -1.409649
400.6484375 3.135843 1.870816 -1.265027
401.546875 3.004857 2.09 -0.914857
402.54296875 3.031615 1.978559 -1.053056
403.50390625 3.146611 1.799229 -1.347382
404.38671875 3.235533 1.634034 -1.601499
405.24609375 3.240346 1.619482 -1.620864
406.1796875 3.215745 1.596043 -1.619702
407.13671875 3.164787 1.602374 -1.562413
408.01171875 3.206727 1.599348 -1.607379
408.91015625 3.316123 1.71594 -1.600183
409.890625 3.2489879999999998 1.789539 -1.459449
410.94140625 3.200775 1.903672 -1.297103
411.8828125 3.3051120000000003 1.838888 -1.466224
412.921875 3.285917 1.776156 -1.509761
413.984375 3.205589 1.695539 -1.51005
414.91015625 3.190391 1.686012 -1.504379
415.78125 3.259648 1.717879 -1.541769
416.67578125 3.3074779999999997 1.796412 -1.511066
417.58984375 3.1714130000000003 1.690358 -1.481055
418.44140625 3.211819 1.7242 -1.487619
419.31640625 3.312514 1.834671 -1.477843
420.24609375 3.4119070000000002 1.891379 -1.520528
421.19921875 3.1090090000000004 2.04 -1.069009
422.05078125 3.064435 1.867049 -1.197386
422.91796875 3.2699239999999996 1.790517 -1.479407
423.84375 3.263694 1.699314 -1.56438
424.78125 3.225416 1.625042 -1.600374
425.62890625 3.2724409999999997 1.637734 -1.634707
426.56640625 3.366986 1.743081 -1.623905
427.6015625 3.269926 1.699926 -1.57
428.6015625 3.264507 1.65565 -1.608857
429.51953125 3.3844279999999998 1.784854 -1.599574
430.45703125 3.27454 1.769776 -1.504764
431.3828125 3.205768 1.770818 -1.43495
432.2421875 3.169087 1.581452 -1.587635
433.078125 3.321909 1.6438 -1.678109
433.9921875 3.295503 1.690751 -1.604752
434.97265625 3.195247 1.697857 -1.49739
435.86328125 3.312482 1.779629 -1.532853
436.7109375 3.403953 1.854359 -1.549594
437.6171875 3.236706 1.776452 -1.460254
438.48046875 3.284897 1.784897 -1.5
439.30078125 3.345446 1.842825 -1.502621
440.13671875 3.43357 1.869235 -1.564335
441.1171875 3.262076 1.709853 -1.552223
442.0859375 3.317705 1.778566 -1.539139
442.984375 3.34908 1.83318 -1.5159
444.0703125 3.2898680000000002 1.870878 -1.41899
445.1640625 3.2481169999999997 1.843793 -1.404324
446.078125 3.27883 1.936447 -1.342383
447.0234375 3.2042469999999996 1.904942 -1.299305
448.01953125 3.15412 1.824626 -1.329494
448.94140625 3.24865 1.805843 -1.442807
449.8203125 3.268879 1.728246 -1.540633
450.703125 3.3775120000000003 1.758223 -1.619289
451.63671875 3.211304 1.68337 -1.527934
452.55078125 3.263381 1.686121 -1.57726
453.38671875 3.337815 1.74042 -1.597395
454.234375 3.304186 1.809282 -1.494904
455.1640625 3.2354260000000004 1.868389 -1.367037
456.0234375 3.2025360000000003 1.826184 -1.376352
456.89453125 3.36404 1.934653 -1.429387
457.80859375 3.3275319999999997 1.948105 -1.379427
458.84375 3.204514 1.921858 -1.282656
459.83203125 3.1134699999999995 2.000224 -1.113246
460.70703125 3.228613 1.918424 -1.310189
461.6015625 3.098263 1.720062 -1.378201
462.5234375 3.126672 1.743847 -1.382825
463.40234375 3.22085 1.775359 -1.445491
464.25 3.172381 1.725 -1.447381
465.06640625 3.217395 1.793545 -1.42385
465.875 3.1548350000000003 1.725 -1.429835
466.70703125 3.147266 1.658244 -1.489022
467.55859375 3.171272 1.714142 -1.45713
468.40234375 3.111208 1.662387 -1.448821
469.26171875 3.292064 1.720072 -1.571992
470.1015625 3.194834 1.700312 -1.494522
471.33203125 3.143401 1.795019 -1.348382
472.48828125 3.155494 1.785863 -1.369631
473.50390625 3.1299469999999996 1.649158 -1.480789
474.51953125 3.252723 1.799886 -1.452837
475.55859375 3.083538 1.689331 -1.394207
476.61328125 3.007847 1.658624 -1.349223
477.609375 3.1026439999999997 1.70971 -1.392934
478.65625 3.113783 1.728811 -1.384972
479.6953125 3.0213900000000002 1.703291 -1.318099
480.7109375 2.964081 1.814238 -1.149843
481.69921875 2.979603 1.887385 -1.092218
482.70703125 2.9369370000000004 1.721929 -1.215008
483.69921875 2.9335750000000003 1.594163 -1.339412
484.58984375 2.980317 1.559974 -1.420343
485.52734375 3.206635 1.697738 -1.508897
486.59765625 3.123155 1.708155 -1.415
487.57421875 3.1112390000000003 1.649664 -1.461575
488.484375 3.1663769999999998 1.685746 -1.480631
489.51171875 3.120221 1.669111 -1.45111
490.53515625 3.1429340000000003 1.67002 -1.472914
491.44140625 3.191323 1.626729 -1.564594
492.3359375 3.2163570000000004 1.754366 -1.461991
493.30859375 3.199202 1.78469 -1.414512
494.29296875 3.075621 1.731909 -1.343712
495.25 2.995094 1.63 -1.365094
496.12890625 3.187037 1.748024 -1.439013
497.10546875 3.259729 1.834729 -1.425
498.13671875 3.108976 1.839494 -1.269482
499.19140625 3.049576 1.755 -1.294576
500.08984375 3.1844799999999998 1.825261 -1.359219
500.98828125 3.089235 1.789461 -1.299774
501.91796875 2.988602 1.8929 -1.095702
502.8515625 2.966882 1.91286 -1.054022
503.69921875 2.938176 1.957749 -0.980427
504.57421875 2.96971 1.861837 -1.107873
505.5390625 2.94372 1.674998 -1.268722
506.53125 2.925763 1.511518 -1.414245
507.4140625 2.509524 1.232171 -1.277353
508.3515625 3.083239 1.499958 -1.583281
509.38671875 3.081327 1.564087 -1.51724
510.37109375 3.114652 1.531725 -1.582927
511.2265625 3.275439 1.570439 -1.705
512.1796875 3.2156089999999997 1.579704 -1.635905
513.22265625 3.130816 1.630418 -1.500398
514.16015625 3.20022 1.682184 -1.518036
515.0390625 3.347325 1.868694 -1.478631
515.97265625 3.124089 1.795616 -1.328473
516.89453125 3.200917 1.774972 -1.425945
517.74609375 3.239637 1.711813 -1.527824
518.6171875 3.29744 1.821092 -1.476348
519.52734375 3.2315690000000004 1.91792 -1.313649
520.41796875 3.263295 1.884386 -1.378909
521.28125 3.238434 1.871178 -1.367256
522.19140625 3.348822 1.954905 -1.393917
523.16015625 3.197844 1.891959 -1.305885
524.12890625 3.2281760000000004 2.010485 -1.217691
525.0234375 3.220799 1.995638 -1.225161
526.0 3.26997 1.93 -1.33997
527.12109375 3.148891 1.864148 -1.284743
528.1171875 3.257682 1.845108 -1.412574
529.08984375 3.21989 1.79989 -1.42
530.0703125 3.14474 1.77794 -1.3668
531.0234375 3.1454449999999996 1.751156 -1.394289
531.90234375 3.242326 1.762406 -1.47992
532.83203125 3.269701 1.754827 -1.514874
533.81640625 3.315731 1.653386 -1.662345
534.7421875 3.340706 1.526217 -1.814489
535.65234375 3.331004 1.661502 -1.669502
536.5703125 3.337199 1.780288 -1.556911
537.56640625 3.267413 1.843707 -1.423706
538.515625 3.27007 2.036372 -1.233698
539.4921875 3.2389479999999997 2.088872 -1.150076
540.48046875 3.1698399999999998 2.08484 -1.085
541.43359375 2.813223 1.626714 -1.186509
542.33984375 3.180677 1.752379 -1.428298
543.27734375 3.347367 1.823447 -1.52392
544.203125 3.106014 1.73039 -1.375624
545.11328125 3.281759 1.681614 -1.600145
545.98828125 3.3506549999999997 1.696302 -1.654353
546.87109375 3.351966 1.777893 -1.574073
547.8046875 3.13932 1.870152 -1.269168
548.7109375 3.061501 1.909858 -1.151643
549.58203125 3.0811159999999997 1.738648 -1.342468
550.515625 3.2129630000000002 1.689556 -1.523407
551.4765625 3.202264 1.652264 -1.55
552.47265625 3.2135920000000002 1.619104 -1.594488
553.375 3.294918 1.63 -1.664918
554.328125 3.346449 1.714201 -1.632248
555.34765625 3.187444 1.781134 -1.40631
556.26953125 3.200921 1.694616 -1.506305
557.1640625 3.322867 1.768761 -1.554106
558.078125 3.1621129999999997 1.790069 -1.372044
558.95703125 3.200418 1.776943 -1.423475
559.83203125 3.301864 1.871991 -1.429873
560.765625 3.207831 1.921915 -1.285916
561.7578125 3.122351 1.845005 -1.277346
562.6953125 3.310912 1.904301 -1.406611
563.640625 3.235071 1.834897 -1.400174
564.69140625 2.9839390000000003 2.157786 -0.826153
565.6328125 2.780646 2.138956 -0.64169
566.515625 2.87341 1.892838 -0.980572
567.453125 3.002752 1.678165 -1.324587
568.4140625 3.109604 1.544753 -1.564851
569.34375 3.146861 1.344773 -1.802088
570.2421875 3.12721 1.34942 -1.77779
571.2109375 3.108319 1.519321 -1.588998
572.1875 3.0401119999999997 1.486005 -1.554107
573.046875 3.1947780000000003 1.497065 -1.697713
573.9609375 3.145473 1.533995 -1.611478
574.890625 3.130809 1.637108 -1.493701
575.77734375 3.191193 1.575086 -1.616107
576.63671875 3.200944 1.586624 -1.61432
577.5546875 3.0795250000000003 1.595153 -1.484372
578.58984375 2.9933750000000003 1.680916 -1.312459
579.5 3.064856 1.72 -1.344856
580.35546875 3.259789 1.804789 -1.455
581.390625 3.063536 1.942731 -1.120805
582.4375 2.865017 1.976765 -0.888252
583.34765625 3.029289 1.73 -1.299289
584.234375 3.197549 1.699897 -1.497652
585.2109375 3.0686809999999998 1.649638 -1.419043
586.16796875 2.8544869999999998 1.712032 -1.142455
587.0390625 2.930349 1.68116 -1.249189
587.93359375 3.088329 1.58889 -1.499439
588.86328125 3.14825 1.545202 -1.603048
589.7578125 3.0716340000000004 1.364629 -1.707005
590.58984375 3.181566 1.341811 -1.839755
591.453125 3.1993739999999997 1.408655 -1.790719
592.37890625 3.15861 1.574457 -1.584153
593.29296875 3.1364080000000003 1.562937 -1.573471
594.12109375 3.2238119999999997 1.745652 -1.47816
595.00390625 3.20717 1.634328 -1.572842
595.9765625 3.1891059999999998 1.525661 -1.663445
596.86328125 3.235033 1.450648 -1.784385
597.6953125 3.268473 1.557852 -1.710621
598.5625 3.189447 1.677398 -1.512049
599.46875 3.2171570000000003 1.851712 -1.365445
600.3359375 3.195399 1.756302 -1.439097
601.1640625 3.412624 1.923806 -1.488818
602.0078125 3.232304 1.97623 -1.256074
603.03125 3.1582090000000003 1.991274 -1.166935
603.9296875 3.141242 1.847739 -1.293503
604.765625 3.254938 1.787836 -1.467102
605.66796875 3.181613 1.791563 -1.39005
606.59375 3.142628 1.862542 -1.280086
607.4765625 3.080346 2.05004 -1.030306
608.3046875 3.139259 1.961902 -1.177357
609.19140625 3.218342 1.754001 -1.464341
610.19921875 3.1228420000000003 1.608538 -1.514304
611.1328125 3.258543 1.525881 -1.732662
611.9765625 3.305247 1.440793 -1.864454
612.8671875 3.274775 1.619236 -1.655539
613.828125 3.1943279999999996 1.692521 -1.501807
614.6953125 3.213244 1.567326 -1.645918
615.53125 3.324515 1.672117 -1.652398
616.4765625 3.238721 1.696156 -1.542565
617.484375 3.120019 1.758169 -1.36185
618.36328125 3.177349 1.66742 -1.509929
619.203125 3.185588 1.637005 -1.548583
620.08984375 3.106568 2.096032 -1.010536
621.15234375 2.9791990000000004 2.149659 -0.82954
622.08984375 3.0636970000000003 1.831342 -1.232355
623.05859375 3.237164 1.718314 -1.51885
624.12109375 3.131539 1.666714 -1.464825
625.08984375 3.174407 1.58532 -1.589087
625.94140625 3.298997 1.609799 -1.689198
626.8984375 3.204551 1.702308 -1.502243
627.88671875 3.171527 1.733821 -1.437706
628.796875 3.117033 1.643161 -1.473872
629.66015625 3.238906 1.72581 -1.513096
630.5625 3.211164 1.782365 -1.428799
631.5546875 3.178535 1.672529 -1.506006
632.44140625 3.2765050000000002 1.601733 -1.674772
633.2890625 3.2009030000000003 1.560878 -1.640025
634.17578125 3.242465 1.649914 -1.592551
635.04296875 3.2423640000000002 1.701255 -1.541109
635.8984375 3.327928 1.676729 -1.651199
636.7578125 3.274421 1.709623 -1.564798
637.68359375 3.238372 1.663541 -1.574831
638.5625 3.2721660000000004 1.60304 -1.669126
639.4375 3.321568 1.632344 -1.689224
640.2734375 3.169934 1.734896 -1.435038
641.08984375 3.201394 1.768122 -1.433272
641.8984375 3.268995 1.771736 -1.497259
642.80859375 3.310523 1.857459 -1.453064
643.72265625 3.253845 1.89835 -1.355495
644.55859375 3.226902 1.846988 -1.379914
645.40234375 3.301482 1.883063 -1.418419
646.33984375 3.1646599999999996 1.74114 -1.42352
647.21875 3.1225870000000002 1.6094 -1.513187
648.05859375 3.2657689999999997 1.657827 -1.607942
648.95703125 3.1759589999999998 1.855017 -1.320942
649.92578125 2.993763 1.969169 -1.024594
650.83984375 2.991454 1.521968 -1.469486
651.6796875 3.306267 1.465714 -1.840553
652.59765625 3.182581 1.501751 -1.68083
653.62109375 3.135332 1.509949 -1.625383
654.53515625 3.187424 1.48446 -1.702964
655.38671875 3.3535 1.693971 -1.659529
656.375 3.159688 1.9 -1.259688
657.3984375 3.127707 1.771519 -1.356188
658.3125 3.158029 1.584134 -1.573895
659.16796875 3.234886 1.599591 -1.635295
660.15625 3.2383189999999997 1.783961 -1.454358
661.1171875 3.1502369999999997 1.922278 -1.227959
661.9765625 3.1074469999999996 1.807049 -1.300398
662.87109375 3.214593 1.72257 -1.492023
663.84765625 3.0953809999999997 1.806289 -1.289092
664.78515625 3.108025 1.77386 -1.334165
665.63671875 3.176041 1.632219 -1.543822
666.5390625 3.191807 1.598929 -1.592878
667.53125 3.090468 1.609157 -1.481311
668.41796875 2.9421429999999997 1.452143 -1.49
669.26171875 2.997723 1.653048 -1.344675
670.17578125 3.001452 1.805701 -1.195751
671.140625 2.9863090000000003 1.821309 -1.165
672.04296875 3.13635 1.584495 -1.551855
672.8828125 3.224286 1.53454 -1.689746
673.75 3.1566669999999997 1.65 -1.506667
674.75390625 3.1410720000000003 1.584321 -1.556751
675.65625 3.06383 1.467156 -1.596674
676.50390625 3.134985 1.703066 -1.431919
677.43359375 3.050308 1.707712 -1.342596
678.34375 2.996848 1.555052 -1.441796
679.20703125 3.0820730000000003 1.387466 -1.694607
680.02734375 3.210646 1.427507 -1.783139
680.90625 3.113607 1.58508 -1.528527
681.86328125 3.102241 1.667115 -1.435126
682.734375 3.100033 1.680917 -1.419116
683.546875 3.2906069999999996 1.737596 -1.553011
684.43359375 3.1642859999999997 1.81792 -1.346366
685.296875 3.135679 1.840303 -1.295376
686.16015625 3.148843 1.750363 -1.39848
686.9609375 3.244638 1.729828 -1.51481
687.828125 3.038379 2.011894 -1.026485
688.7265625 3.0545850000000003 1.936725 -1.11786
689.578125 3.2200439999999997 1.722192 -1.497852
690.40234375 3.1661010000000003 1.517093 -1.649008
691.29296875 3.140854 1.56439 -1.576464
692.25 3.159925 1.575 -1.584925
693.13671875 3.113302 1.545637 -1.567665
693.98828125 3.23508 1.641179 -1.593901
694.94140625 3.168854 1.674674 -1.49418
695.94921875 3.041938 1.629399 -1.412539
696.84375 3.195226 1.652205 -1.543021
697.77734375 3.219989 1.745397 -1.474592
698.72265625 3.099874 1.934874 -1.165
699.671875 3.045069 1.773161 -1.271908
700.55078125 3.186588 1.599279 -1.587309
701.421875 3.180202 1.714428 -1.465774
702.41015625 3.116765 1.780573 -1.336192
703.41015625 3.240644 1.703645 -1.536999
704.28515625 3.239008 1.599635 -1.639373
705.3125 3.145233 1.673966 -1.471267
706.37109375 3.151965 1.704363 -1.447602
707.30078125 3.274603 1.69683 -1.577773
708.1875 3.24379 1.722174 -1.521616
709.0859375 3.223515 1.87154 -1.351975
710.07421875 3.121466 2.09322 -1.028246
710.94921875 3.1169409999999997 1.886206 -1.230735
711.875 3.404794 1.86 -1.544794
713.0 3.2611670000000004 1.82 -1.441167
714.07421875 2.967766 2.007752 -0.960014
715.0078125 3.221483 1.816483 -1.405
715.953125 3.309578 1.698839 -1.610739
716.97265625 3.295556 1.628583 -1.666973
717.859375 3.241391 1.538214 -1.703177
718.70703125 3.286767 1.535986 -1.750781
719.578125 3.220333 1.633019 -1.587314
720.46484375 3.124794 1.787951 -1.336843
721.33203125 3.26361 1.848645 -1.414965
722.23828125 3.242076 1.716012 -1.526064
723.15625 3.339466 1.728968 -1.610498
724.06640625 3.2766710000000003 1.741748 -1.534923
724.97265625 3.380945 1.758598 -1.622347
725.9375 3.298937 1.842117 -1.45682
727.03125 3.0236530000000004 2.204737 -0.818916
728.00390625 3.131652 1.892992 -1.23866
728.9375 3.199731 1.534233 -1.665498
729.83984375 3.262566 1.578036 -1.68453
730.7109375 3.2430899999999996 1.583859 -1.659231
731.578125 3.3334979999999996 1.621268 -1.71223
732.45703125 3.38735 1.734051 -1.653299
733.3125 3.1977539999999998 1.741301 -1.456453
734.1875 3.234795 1.784178 -1.450617
735.01171875 3.3040719999999997 1.814123 -1.489949
735.87890625 3.300471 1.853024 -1.447447
736.79296875 3.294523 1.908986 -1.385537
737.6796875 3.2758279999999997 1.891639 -1.384189
738.53515625 3.339861 1.845484 -1.494377
739.41015625 3.2687559999999998 1.849232 -1.419524
740.26171875 3.289344 1.687631 -1.601713
741.08203125 3.2301130000000002 1.625403 -1.60471
741.89453125 3.414687 1.709917 -1.70477
742.78515625 3.234967 1.832463 -1.402504
743.7578125 3.22598 1.770654 -1.455326
744.6328125 3.3022970000000003 1.679426 -1.622871
745.6015625 3.3385480000000003 1.828773 -1.509775
746.7890625 3.1942899999999996 1.824369 -1.369921
747.7890625 3.2746880000000003 1.80983 -1.464858
748.765625 3.381692 1.881309 -1.500383
749.7890625 3.176845 1.904912 -1.271933
750.7734375 3.2067550000000002 1.80856 -1.398195
751.65234375 3.22011 1.980226 -1.239884
752.58203125 3.162391 1.925683 -1.236708
753.59375 2.986566 1.908127 -1.078439
754.515625 3.050307 1.79112 -1.259187
755.36328125 3.200561 1.567114 -1.633447
756.3203125 3.145041 1.487168 -1.657873
757.40234375 2.999479 1.491036 -1.508443
758.37890625 3.023855 1.451285 -1.57257
759.265625 3.219284 1.440493 -1.778791
760.234375 3.1318390000000003 1.543153 -1.588686
761.2578125 3.151787 1.641691 -1.510096
762.1875 3.10757 1.637239 -1.470331
763.078125 3.136321 1.672746 -1.463575
764.0234375 3.1414869999999997 1.733951 -1.407536
765.0546875 3.129015 1.854833 -1.274182
765.96484375 3.034165 1.686777 -1.347388
766.85546875 3.230877 1.530877 -1.7
767.8203125 3.177296 1.702296 -1.475
768.7890625 3.130979 1.707994 -1.422985
769.6484375 3.12089 1.457017 -1.663873
770.5859375 3.170246 1.505324 -1.664922
771.58984375 3.2062160000000004 1.662095 -1.544121
772.5390625 3.098121 1.756138 -1.341983
773.41015625 3.102131 1.689253 -1.412878
774.33203125 3.0582890000000003 1.698299 -1.35999
775.30078125 3.128231 1.727297 -1.400934
776.14453125 3.0546290000000003 1.579953 -1.474676
776.95703125 3.1454050000000002 1.675182 -1.470223
777.796875 3.148189 1.849221 -1.298968
778.67578125 3.078397 1.670983 -1.407414
779.50390625 3.066755 1.510105 -1.55665
780.3125 3.1666540000000003 1.506582 -1.660072
781.1796875 3.167834 1.568759 -1.599075
782.11328125 3.048388 1.599084 -1.449304
782.95703125 3.019205 1.459153 -1.560052
783.76171875 3.189994 1.453987 -1.736007
784.640625 3.1234970000000004 1.47273 -1.650767
785.5703125 3.05394 1.487126 -1.566814
786.44921875 3.177923 1.69824 -1.479683
787.2734375 3.1756719999999996 1.672243 -1.503429
788.19140625 3.136342 1.731809 -1.404533
789.2421875 3.168081 1.842612 -1.325469
790.125 3.046439 1.92 -1.126439
791.03125 3.135567 1.955 -1.180567
791.9609375 3.0873559999999998 1.793545 -1.293811
792.85546875 3.1397690000000003 1.809769 -1.33
793.69921875 3.161931 1.66863 -1.493301
794.5625 3.190207 1.763514 -1.426693
795.4453125 3.122907 1.683388 -1.439519
796.328125 3.097494 1.801985 -1.295509
797.16796875 2.992147 1.871067 -1.12108
798.00390625 3.120677 1.773306 -1.347371
798.95703125 3.110658 1.524402 -1.586256
799.8515625 3.184801 1.575762 -1.609039
800.71484375 3.23351 1.595 -1.63851
801.59765625 3.1803429999999997 1.714146 -1.466197
802.51953125 3.175505 1.744908 -1.430597
803.421875 3.21342 1.723874 -1.489546
804.265625 3.251576 1.696017 -1.555559
805.2734375 3.1539840000000003 1.740669 -1.413315
806.37109375 3.052387 1.660426 -1.391961
807.359375 3.161137 1.637567 -1.52357
808.33203125 3.226226 1.653558 -1.572668
809.30859375 3.126698 1.678778 -1.44792
810.296875 3.1211200000000003 1.756442 -1.364678
811.17578125 3.244757 1.761939 -1.482818
812.078125 3.0915489999999997 1.8974 -1.194149
813.05859375 2.9994899999999998 1.844333 -1.155157
814.0546875 3.043457 1.639106 -1.404351
814.96875 3.327815 1.637951 -1.689864
815.9453125 3.264965 1.677234 -1.587731
817.00390625 3.159701 1.675646 -1.484055
817.98828125 3.11565 1.646346 -1.469304
818.87109375 3.285377 1.774866 -1.510511
819.84375 3.024324 1.962636 -1.061688
820.8203125 2.981409 1.663783 -1.317626
821.76953125 3.159146 1.449706 -1.70944
822.625 3.254849 1.415 -1.839849
823.50390625 3.2585800000000003 1.615806 -1.642774
824.484375 3.072284 1.839701 -1.232583
825.37109375 3.187227 1.620062 -1.567165
826.20703125 3.366521 1.519482 -1.847039
827.10546875 3.281582 1.538371 -1.743211
828.0859375 3.259329 1.584651 -1.674678
829.0625 3.264292 1.68 -1.584292
829.9375 3.3539440000000003 1.701003 -1.652941
830.87890625 3.356214 1.847641 -1.508573
831.85546875 3.207439 1.877439 -1.33
832.7265625 3.223421 1.853111 -1.37031
833.58203125 3.189065 1.795683 -1.393382
834.4765625 3.2980270000000003 1.826958 -1.471069
835.40234375 3.2721289999999996 1.798992 -1.473137
836.28515625 3.3174099999999997 1.774659 -1.542751
837.1640625 3.443437 1.824304 -1.619133
838.08203125 3.178978 2.012357 -1.166621
839.0390625 3.141052 1.994385 -1.146667
839.91015625 3.2671080000000003 1.692584 -1.574524
840.8125 3.327369 1.597232 -1.730137
841.921875 3.235045 1.510238 -1.724807
842.97265625 3.225569 1.61921 -1.606359
843.90625 3.25181 1.694341 -1.557469
844.828125 3.258985 1.667337 -1.591648
845.765625 3.29227 1.674003 -1.618267
846.69140625 3.223378 1.621508 -1.60187
847.53125 3.388465 1.73073 -1.657735
848.48046875 3.234719 1.949719 -1.285
849.4765625 3.2292050000000003 1.76339 -1.465815
850.4453125 3.3155159999999997 1.614598 -1.700918
851.3046875 3.384172 1.710196 -1.673976
852.19921875 3.30648 1.861444 -1.445036
853.16015625 3.23426 1.843583 -1.390677
854.14453125 3.229174 1.934768 -1.294406
855.00390625 3.213458 1.873463 -1.339995
855.90234375 3.254012 1.781539 -1.472473
856.83203125 3.2901439999999997 1.781485 -1.508659
857.77734375 3.2620639999999996 1.842086 -1.419978
858.63671875 3.333322 1.849018 -1.484304
859.49609375 3.315443 1.885728 -1.429715
860.453125 3.082415 2.096149 -0.986266
861.36328125 3.062697 1.944194 -1.118503
862.1875 3.137807 1.589462 -1.548345
863.0859375 3.289508 1.583263 -1.706245
864.01171875 3.1931149999999997 1.59692 -1.596195
864.9140625 3.217225 1.643572 -1.573653
865.75 3.197983 1.645 -1.552983
866.5859375 3.249459 1.734555 -1.514904
867.44921875 3.125607 1.652662 -1.472945
868.32421875 3.147466 1.679262 -1.468204
869.1328125 3.26605 1.687319 -1.578731
869.96875 3.170024 1.646632 -1.523392
870.87109375 3.156814 1.684143 -1.472671
871.85546875 3.1899949999999997 1.844995 -1.345
872.734375 3.159956 1.818018 -1.341938
873.734375 3.220872 1.744314 -1.476558
874.98046875 3.0848630000000004 1.659863 -1.425
876.00390625 3.068401 1.733259 -1.335142
877.0546875 3.19226 1.842201 -1.350059
878.1171875 3.103079 1.813278 -1.289801
879.16796875 3.113159 1.650775 -1.462384
880.1328125 3.255378 1.706923 -1.548455
881.12890625 3.1628249999999998 1.751293 -1.411532
882.1640625 3.157585 1.68498 -1.472605
883.10546875 3.21488 1.67488 -1.54
884.0234375 3.160609 1.646294 -1.514315
884.9921875 3.145108 1.679222 -1.465886
885.96484375 3.114252 1.80309 -1.311162
886.8359375 3.224307 1.819607 -1.4047
887.7265625 3.1450509999999996 1.762104 -1.382947
888.734375 3.1413349999999998 1.697319 -1.444016
889.70703125 3.138093 1.696725 -1.441368
890.5859375 3.198127 1.689471 -1.508656
891.578125 3.157547 1.797503 -1.360044
892.62109375 3.0601979999999998 1.670553 -1.389645
893.59765625 3.0640720000000004 1.71514 -1.348932
894.45703125 3.134551 1.655526 -1.479025
895.40625 3.222305 1.82354 -1.398765
896.48828125 3.138427 1.781963 -1.356464
897.42578125 3.1322900000000002 1.762793 -1.369497
898.33203125 3.1675000000000004 1.76564 -1.40186
899.34765625 3.134191 1.784132 -1.350059
900.3359375 3.055814 1.74445 -1.311364
901.21875 3.1253080000000004 1.713858 -1.41145
902.046875 3.228329 1.709015 -1.519314
902.9921875 3.151947 1.802319 -1.349628
903.92578125 3.070013 1.805013 -1.265
904.765625 3.093332 1.791479 -1.301853
905.59765625 3.171906 1.736368 -1.435538
906.4453125 3.168794 1.737179 -1.431615
907.3046875 3.028244 1.590731 -1.437513
908.12890625 3.144596 1.775441 -1.369155
908.94140625 3.127192 1.958154 -1.169038
909.83203125 3.0499590000000003 1.835171 -1.214788
910.9140625 3.187662 1.663933 -1.523729
911.828125 3.214877 1.613447 -1.60143
912.875 3.206395 1.735 -1.471395
914.0 3.149876 1.8 -1.349876
915.02734375 2.899281 1.894446 -1.004835
915.91796875 3.101222 1.702032 -1.39919
916.875 3.103554 1.55 -1.553554
917.9453125 3.062228 1.528816 -1.533412
918.8203125 2.995299 1.746736 -1.248563
919.69140625 3.1516140000000004 1.672409 -1.479205
920.62109375 3.080346 1.614396 -1.46595
921.54296875 3.124238 1.506986 -1.617252
922.3984375 3.277416 1.435926 -1.84149
923.31640625 3.267416 1.538702 -1.728714
924.28125 3.203894 1.591299 -1.612595
925.22265625 3.125289 1.635105 -1.490184
926.07421875 3.3133280000000003 1.779785 -1.533543
926.96484375 3.2132829999999997 1.711819 -1.501464
927.875 3.264989 1.685 -1.579989
928.76953125 3.244631 1.919827 -1.324804
929.640625 3.195742 1.878839 -1.316903
930.56640625 3.173517 1.733603 -1.439914
931.64453125 3.17694 1.624944 -1.551996
932.58203125 3.097318 1.635329 -1.461989
933.4609375 3.269215 1.79449 -1.474725
934.37890625 3.292905 1.774507 -1.518398
935.30859375 3.178538 1.640875 -1.537663
936.19921875 3.219338 1.684592 -1.534746
937.05078125 3.3177969999999997 1.745415 -1.572382
938.0234375 3.336636 1.842725 -1.493911
939.03125 3.251764 1.751856 -1.499908
939.921875 3.246733 1.746333 -1.5004
940.77734375 3.319873 1.821662 -1.498211
941.734375 3.225571 1.99 -1.235571
942.71875 3.1540480000000004 2.14089 -1.013158
943.6328125 3.190597 1.919414 -1.271183
944.49609375 3.261648 1.661727 -1.599921
945.5078125 3.196391 1.696 -1.500391
946.59375 3.244452 1.808393 -1.436059
947.5 3.235094 1.75 -1.485094
948.3671875 3.3669700000000002 1.756962 -1.610008
949.25390625 3.284802 1.691529 -1.593273
950.1171875 3.216048 1.709629 -1.506419
950.98046875 3.382949 1.882783 -1.500166
951.859375 3.421764 1.983538 -1.438226
952.8515625 3.321693 1.981693 -1.34
953.83984375 3.15205 2.184805 -0.967245
954.70703125 3.316302 2.080272 -1.23603
955.6796875 3.221263 1.783985 -1.437278
956.8359375 3.27883 1.719689 -1.559141
957.8359375 3.204002 1.863749 -1.340253
958.76953125 3.379786 1.889853 -1.489933
959.8125 3.1670920000000002 1.566032 -1.60106
960.86328125 3.233335 1.588841 -1.644494
961.75390625 3.259028 1.671203 -1.587825
962.65234375 3.3158510000000003 1.972344 -1.343507
963.5703125 3.282474 1.840856 -1.441618
964.5234375 3.144831 1.659989 -1.484842
965.3984375 3.2712849999999998 1.712892 -1.558393
966.3125 3.317723 1.822283 -1.49544
967.27734375 3.207489 1.824315 -1.383174
968.26171875 3.1798019999999996 1.818361 -1.361441
969.13671875 3.279169 1.765455 -1.513714
970.0390625 3.233916 1.74998 -1.483936
971.1015625 3.1494340000000003 1.718391 -1.431043
972.16796875 3.093802 1.637075 -1.456727
973.06640625 3.142207 1.868679 -1.273528
973.98046875 3.110302 1.755302 -1.355
974.91015625 3.100224 1.563516 -1.536708
975.77734375 3.137483 1.497086 -1.640397
976.5859375 3.110004 1.486947 -1.623057
977.484375 3.072896 1.587638 -1.485258
978.38671875 3.062363 1.654032 -1.408331
979.26953125 3.1148499999999997 1.729893 -1.384957
980.08203125 3.262531 1.787536 -1.474995
980.96875 3.193963 1.786893 -1.40707
981.8984375 3.0426260000000003 1.685 -1.357626
982.8125 3.001899 1.638125 -1.363774
983.6484375 3.08275 1.677994 -1.404756
984.55859375 3.16654 1.734508 -1.432032
985.546875 3.0047639999999998 1.611154 -1.39361
986.52734375 2.884419 1.584736 -1.299683
987.38671875 3.049779 1.803708 -1.246071
988.30859375 2.9965669999999998 1.967162 -1.029405
989.28125 3.029537 1.603828 -1.425709
990.140625 3.0084020000000002 1.40505 -1.603352
990.953125 3.256404 1.577473 -1.678931
991.80078125 3.126181 1.664827 -1.461354
992.65625 3.004232 1.509412 -1.49482
993.5078125 3.092163 1.550395 -1.541768
994.31640625 3.022662 1.794052 -1.22861
995.140625 3.117108 1.67841 -1.438698
995.9765625 3.098398 1.498398 -1.6
996.8203125 3.13244 1.411043 -1.721397
997.62890625 3.1281749999999997 1.399158 -1.729017
998.45703125 3.197972 1.535727 -1.662245
999.34375 3.147595 1.587291 -1.560304
1000.2421875 2.893678 1.566242 -1.327436
1001.08984375 3.044397 1.725999 -1.318398
1001.97265625 3.174684 1.753417 -1.421267
1002.90234375 3.179105 1.636329 -1.542776
1003.83203125 3.161123 1.615739 -1.545384
1004.69921875 3.2129950000000003 1.666854 -1.546141
1005.640625 3.16264 1.702107 -1.460533
1006.7734375 3.054777 1.860127 -1.19465
1007.7578125 3.1173840000000004 1.789624 -1.32776
1008.6953125 3.1771510000000003 1.716074 -1.461077
1009.6640625 3.1195000000000004 1.725 -1.3945
1010.58203125 3.028839 1.643839 -1.385
1011.421875 3.260506 1.737987 -1.522519
1012.3203125 3.1218269999999997 1.859684 -1.262143
1013.30859375 2.9872699999999996 1.849848 -1.137422
1014.1875 3.135833 1.665833 -1.47
1015.05859375 3.308223 1.643487 -1.664736
1015.953125 3.272523 1.640153 -1.63237
1016.8984375 3.1147650000000002 1.696168 -1.418597
1017.7890625 3.248684 1.724491 -1.524193
1018.63671875 3.162881 1.652528 -1.510353
1019.52734375 3.15606 1.812914 -1.343146
1020.4609375 3.193292 1.703827 -1.489465
1021.34375 3.076574 1.514607 -1.561967
1022.19140625 3.2502880000000003 1.633224 -1.617064
1023.0625 3.240498 1.720156 -1.520342
1023.97265625 3.124169 1.757162 -1.367007
1024.9296875 3.171354 1.797251 -1.374103
1025.796875 3.2972609999999998 1.862128 -1.435133
1026.67578125 3.330245 1.983835 -1.34641
1027.578125 3.17511 1.961373 -1.213737
1028.46875 3.117766 1.963309 -1.154457
1029.3203125 3.142142 2.009742 -1.1324
1030.203125 3.2852940000000004 1.973448 -1.311846
1031.1015625 3.210571 1.78113 -1.429441
1032.015625 3.214645 1.701834 -1.512811
1032.875 3.265094 1.765 -1.500094
1033.859375 3.235909 1.830909 -1.405
1034.81640625 3.197324 1.800881 -1.396443
1035.73828125 3.158488 1.85159 -1.306898
1036.62890625 3.094594 1.796338 -1.298256
1037.52734375 3.173439 1.730378 -1.443061
1038.4375 3.1281030000000003 1.681942 -1.446161
1039.3984375 3.127909 1.744065 -1.383844
1040.2578125 3.190757 1.651582 -1.539175
1041.15625 3.3077199999999998 1.744216 -1.563504
1042.12109375 3.1666179999999997 1.91456 -1.252058
1043.203125 3.123058 1.673954 -1.449104
1044.15625 3.1317269999999997 1.470416 -1.661311
1045.15234375 3.286968 1.607975 -1.678993
1046.20703125 3.2070309999999997 1.671814 -1.535217
1047.13671875 3.156126 1.807898 -1.348228
1047.98046875 3.202143 1.914823 -1.28732
1048.8671875 3.202876 1.772851 -1.430025
1049.82421875 3.25349 1.617883 -1.635607
1050.76171875 3.2446900000000003 1.663294 -1.581396
1051.6328125 3.280837 1.765056 -1.515781
1052.484375 3.2714179999999997 1.825 -1.446418
1053.359375 3.178618 1.982071 -1.196547
1054.21875 3.229037 1.945 -1.284037
1055.0390625 3.2059119999999997 1.785245 -1.420667
1055.89453125 3.3292789999999997 1.819921 -1.509358
1056.76953125 3.194798 1.695302 -1.499496
1057.63671875 3.275196 1.721765 -1.553431
1058.46484375 3.266475 1.892225 -1.37425
1059.3359375 3.0964720000000003 1.715341 -1.381131
1060.26953125 3.1784410000000003 1.605 -1.573441
1061.1875 3.14626 1.568901 -1.577359
1062.01953125 3.2849519999999997 1.664972 -1.61998
1062.875 3.242821 1.675 -1.567821
1063.76953125 3.252109 1.764836 -1.487273
1064.63671875 3.197598 1.734257 -1.463341
1065.46875 3.2332349999999996 1.702384 -1.530851
1066.32421875 3.17392 1.718257 -1.455663
1067.16015625 3.191847 1.676409 -1.515438
1067.99609375 3.092866 1.519314 -1.573552
1068.82421875 3.253388 1.688875 -1.564513
1069.625 3.299766 1.685 -1.614766
1070.48828125 3.159478 1.648955 -1.510523
1071.30859375 3.177665 1.697527 -1.480138
1072.20703125 3.2241869999999997 1.706303 -1.517884
1073.125 3.239902 1.72 -1.519902
1074.109375 3.1496380000000004 1.717578 -1.43206
1075.08203125 3.222327 1.846565 -1.375762
1076.109375 3.187586 1.877237 -1.310349
1077.3203125 3.125127 1.850739 -1.274388
1078.3203125 3.057591 1.705567 -1.352024
1079.234375 3.1012969999999997 1.648546 -1.452751
1080.1015625 3.0927610000000003 1.714086 -1.378675
1080.9375 3.056317 1.751455 -1.304862
1081.79296875 3.0000280000000004 2.001669 -0.998359
1082.66015625 2.957044 1.756469 -1.200575
1083.53125 3.0918799999999997 1.59179 -1.50009
1084.42578125 3.064037 1.499613 -1.564424
1085.28515625 3.136527 1.508925 -1.627602
1086.26171875 3.173299 1.55592 -1.617379
1087.5 3.0649699999999998 1.525 -1.53997
1088.55859375 3.1227 1.571087 -1.551613
1089.69921875 3.168597 1.58933 -1.579267
1090.80078125 3.107807 1.61152 -1.496287
1091.8359375 3.057864 1.626739 -1.431125
1092.87109375 2.873522 1.581581 -1.291941
1093.8828125 2.860437 1.62589 -1.234547
1094.79296875 2.9773430000000003 1.709722 -1.267621
1095.67578125 2.937267 1.636218 -1.301049
1096.56640625 3.1576459999999997 1.703469 -1.454177
1097.4140625 3.248509 1.754389 -1.49412
1098.25390625 3.133282 1.693282 -1.44
1099.15625 3.1063780000000003 1.708652 -1.397726
1100.09375 3.0905310000000004 1.705 -1.385531
1101.0 3.1864429999999997 1.815 -1.371443
1102.01953125 3.154343 1.734778 -1.419565
1103.1171875 3.093871 1.615612 -1.478259
1104.05859375 3.150437 1.668288 -1.482149
1105.0078125 3.227206 1.70452 -1.522686
1106.1015625 3.121514 1.604468 -1.517046
1107.0546875 3.1672089999999997 1.597611 -1.569598
1107.96875 3.112768 1.554685 -1.558083
1108.890625 3.0788710000000004 1.561976 -1.516895
1109.8125 3.133044 1.643717 -1.489327
1110.69921875 3.262403 1.670392 -1.592011
1111.61328125 3.2261699999999998 1.616663 -1.609507
1112.5390625 3.186534 1.584051 -1.602483
1113.4296875 3.064845 1.694626 -1.370219
1114.29296875 3.1746800000000004 1.770013 -1.404667
1115.27734375 3.137284 1.788017 -1.349267
1116.23046875 3.079842 1.784842 -1.295
1117.140625 3.137405 1.703266 -1.434139
1118.04296875 3.199357 1.624215 -1.575142
1119.02734375 3.172139 1.599874 -1.572265
1120.08203125 3.129552 1.576306 -1.553246
1121.00390625 3.1967790000000003 1.743381 -1.453398
1121.953125 3.098498 1.958033 -1.140465
1122.89453125 3.1198110000000003 1.769984 -1.349827
1123.76953125 3.214366 1.544794 -1.669572
1124.6484375 3.244403 1.492317 -1.752086
1125.63671875 3.321212 1.581883 -1.739329
1126.70703125 3.2127540000000003 1.586348 -1.626406
1127.75 3.113264 1.685 -1.428264
1128.66796875 3.3210550000000003 1.764215 -1.55684
1129.62890625 3.3154709999999996 1.676451 -1.63902
1130.62109375 3.311105 1.661389 -1.649716
1131.52734375 3.091383 1.57138 -1.520003
1132.4140625 3.240027 1.84825 -1.391777
1133.29296875 3.255325 1.989174 -1.266151
1134.22265625 3.228695 1.809726 -1.418969
1135.09375 3.172904 1.689292 -1.483612
1135.97265625 3.312268 1.747404 -1.564864
1136.9453125 3.285694 1.677884 -1.60781
1137.9140625 3.408814 1.834959 -1.573855
1138.78515625 3.314083 1.901476 -1.412607
1139.6953125 3.269943 1.875721 -1.394222
1140.59765625 3.228594 1.764257 -1.464337
1141.5078125 3.3006209999999996 1.845179 -1.455442
1142.33984375 3.322267 1.855031 -1.467236
1143.19921875 3.359933 1.854961 -1.504972
1144.05859375 3.402561 1.824462 -1.578099
1144.95703125 3.347035 1.790632 -1.556403
1145.828125 3.335031 1.884139 -1.450892
1146.70703125 3.358361 1.870715 -1.487646
1147.62890625 3.23583 1.980186 -1.255644
1148.546875 3.375537 1.987381 -1.388156
1149.4296875 3.2713469999999996 1.929566 -1.341781
1150.3359375 3.353831 1.954217 -1.399614
1151.25 3.3040599999999998 1.87 -1.43406
1152.109375 3.2182190000000004 1.778434 -1.439785
1152.95703125 3.371687 1.856098 -1.515589
1153.88671875 3.456225 1.930507 -1.525718
1154.83984375 3.3333880000000002 1.941 -1.392388
1155.68359375 3.391056 1.983368 -1.407688
1156.515625 3.342207 1.99252 -1.349687
1157.3515625 3.30816 1.899955 -1.408205
1158.2734375 3.2587140000000003 1.823855 -1.434859
1159.109375 3.2760249999999997 1.86782 -1.408205
1159.921875 3.262455 1.83358 -1.428875
1160.78515625 3.334819 1.832836 -1.501983
1161.609375 3.276632 1.724556 -1.552076
1162.390625 3.376306 1.838521 -1.537785
1163.203125 3.276186 1.789316 -1.48687
1163.99609375 3.3154510000000004 1.709486 -1.605965
1164.8359375 3.2311129999999997 1.665409 -1.565704
1165.63671875 3.267388 1.699422 -1.567966
1166.4296875 3.374025 1.837613 -1.536412
1167.28515625 3.220974 1.760952 -1.460022
1168.140625 3.329575 1.840831 -1.488744
1168.98046875 3.296162 1.821162 -1.475
1169.8203125 3.301025 1.801707 -1.499318
1170.77734375 3.285203 1.788585 -1.496618
1171.69921875 3.14358 1.705536 -1.438044
1172.5703125 3.310372 1.795166 -1.515206
1173.4453125 3.261989 1.762331 -1.499658
1174.3359375 3.2582069999999996 1.728681 -1.529526
1175.21484375 3.2909699999999997 1.801262 -1.489708
1176.07421875 3.281277 1.793685 -1.487592
1176.9453125 3.1457610000000003 1.707892 -1.437869
1177.8984375 3.1299349999999997 1.71182 -1.418115
1178.7890625 3.272444 1.802217 -1.470227
1179.70703125 3.1481909999999997 1.7137 -1.434491
1180.640625 3.172999 1.693597 -1.479402
1181.6328125 3.1734099999999996 1.696675 -1.476735
1182.49609375 3.167468 1.695038 -1.47243
1183.359375 3.148806 1.659463 -1.489343
1184.265625 3.1525860000000003 1.635985 -1.516601
1185.1171875 3.197892 1.678504 -1.519388
1186.0 3.211204 1.75 -1.461204
1187.03515625 3.134166 1.675094 -1.459072
1187.9609375 3.2405239999999997 1.719659 -1.520865
1188.921875 3.189276 1.721855 -1.467421
1190.03515625 3.0746919999999998 1.633398 -1.441294
1191.05078125 3.0028629999999996 1.538182 -1.464681
1191.96484375 3.147182 1.793955 -1.353227
1192.9453125 2.959053 1.721774 -1.237279
1193.9921875 2.9759789999999997 1.572099 -1.40388
1194.91015625 3.0770429999999998 1.518686 -1.558357
1195.76953125 3.1829780000000003 1.599995 -1.582983
1196.65234375 3.197367 1.553072 -1.644295
1197.53515625 3.097982 1.499871 -1.598111
1198.359375 3.1385170000000002 1.521142 -1.617375
1199.1796875 3.277159 1.611091 -1.666068
1200.0546875 3.222765 1.622158 -1.600607
1200.9921875 3.1779580000000003 1.636357 -1.541601
1201.859375 3.2703699999999998 1.644214 -1.626156
1202.71484375 3.218124 1.644578 -1.573546
1203.64453125 3.218158 1.721391 -1.496767
1204.5859375 3.088641 1.644911 -1.44373
1205.421875 3.182466 1.688332 -1.494134
1206.2734375 3.201835 1.815293 -1.386542
1207.13671875 3.148662 1.835868 -1.312794
1207.99609375 3.0074 1.600403 -1.406997
1208.81640625 3.1132210000000002 1.57 -1.543221
1209.671875 3.242819 1.595697 -1.647122
1210.68359375 3.121858 1.619573 -1.502285
1211.65234375 3.0902339999999997 1.572916 -1.517318
1212.53125 3.1585539999999996 1.4944 -1.664154
1213.49609375 3.181937 1.409109 -1.772828
1214.515625 3.197902 1.481423 -1.716479
1215.41796875 3.13556 1.507066 -1.628494
1216.26171875 3.285324 1.663369 -1.621955
1217.15625 3.1413070000000003 1.612675 -1.528632
1218.1015625 3.162574 1.63087 -1.531704
1218.953125 3.214739 1.620454 -1.594285
1219.7734375 3.1870950000000002 1.647727 -1.539368
1220.68359375 3.192589 1.686433 -1.506156
1221.65625 3.180463 1.702869 -1.477594
1222.56640625 3.208221 1.618494 -1.589727
1223.42578125 3.2482889999999998 1.643011 -1.605278
1224.453125 3.162326 1.885907 -1.276419
1225.609375 3.032812 1.742705 -1.290107
1226.57421875 3.108046 1.721674 -1.386372
1227.4765625 3.080795 1.911156 -1.169639
1228.37890625 2.8896249999999997 1.94132 -0.948305
1229.28125 2.9577210000000003 1.719491 -1.23823
1230.1484375 3.098588 1.5774 -1.521188
1230.96875 3.2415269999999996 1.699334 -1.542193
1231.875 3.059189 1.82 -1.239189
1232.84375 3.165633 1.729327 -1.436306
1233.80859375 3.2031850000000004 1.52133 -1.681855
1234.6875 3.299332 1.555778 -1.743554
1235.6796875 3.324503 1.614732 -1.709771
1236.7890625 3.218681 1.518486 -1.700195
1237.71875 3.286728 1.549558 -1.73717
1238.64453125 3.343942 1.69972 -1.644222
1239.58203125 3.2250199999999998 1.679012 -1.546008
1240.5234375 3.2639560000000003 1.755112 -1.508844
1241.34765625 3.345676 1.773186 -1.57249
1242.16796875 3.367285 1.820533 -1.546752
1242.9765625 3.264099 1.855706 -1.408393
1243.76953125 3.0655910000000004 2.200591 -0.865
1244.5625 3.048831 2.073571 -0.97526
1245.328125 3.191817 1.913366 -1.278451
1246.15625 3.227686 1.704462 -1.523224
1247.04296875 3.26598 1.602384 -1.663596
1247.88671875 3.3382620000000003 1.688645 -1.649617
1248.8125 3.371674 1.757423 -1.614251
1249.91796875 3.2740080000000003 1.832771 -1.441237
1250.96875 3.307761 1.742964 -1.564797
1251.91796875 3.441852 1.763263 -1.678589
1253.00390625 3.2004 1.893989 -1.306411
1254.11328125 3.256189 1.859204 -1.396985
1255.08203125 3.337466 1.694898 -1.642568
1256.078125 3.192436 1.699137 -1.493299
1257.09375 3.208379 1.729947 -1.478432
1257.99609375 3.286229 1.465263 -1.820966
1258.83203125 3.41542 1.455496 -1.959924
1259.66796875 3.329814 1.434519 -1.895295
1260.59375 3.3804670000000003 1.635143 -1.745324
1261.41796875 3.356907 1.508221 -1.848686
1262.2421875 3.383534 1.453622 -1.929912
1263.09375 3.4523270000000004 1.577679 -1.874648
1264.00390625 3.333887 1.70244 -1.631447
1264.84765625 3.333386 1.825896 -1.50749
1265.66015625 3.4657590000000003 1.978318 -1.487441
1266.47265625 3.3460039999999998 1.846185 -1.499819
1267.39453125 3.357589 1.946142 -1.411447
1268.23828125 3.3075859999999997 2.077765 -1.229821
1269.046875 3.430395 2.242606 -1.187789
1269.87890625 3.36748 2.150293 -1.217187
1270.74609375 3.3013770000000005 2.080668 -1.220709
1271.640625 3.350292 2.103517 -1.246775
1272.48046875 3.409625 2.069625 -1.34
1273.3515625 3.4307289999999995 2.019741 -1.410988
1274.28515625 3.22602 1.874319 -1.351701
1275.1796875 3.210776 1.794687 -1.416089
1276.0 3.2842960000000003 1.935 -1.349296
1276.796875 3.2464969999999997 1.914077 -1.33242
1277.61328125 3.262051 1.95862 -1.303431
1278.41796875 3.2278580000000003 1.724582 -1.503276
1279.24609375 3.301072 1.731266 -1.569806
1280.05859375 3.202247 1.650257 -1.55199
1280.87109375 3.2032990000000003 1.70977 -1.493529
1281.71875 3.266892 1.857136 -1.409756
1282.5546875 3.358885 1.948896 -1.409989
1283.421875 3.257644 1.904486 -1.353158
1284.2734375 3.149998 1.796127 -1.353871
1285.11328125 3.267981 1.98749 -1.280491
1285.96875 3.203512 2.006038 -1.197474
1286.828125 3.1287510000000003 1.698924 -1.429827
1287.703125 3.175337 1.589892 -1.585445
1288.55078125 3.174189 1.694506 -1.479683
1289.37109375 2.867347 1.668312 -1.199035
1290.1796875 2.637934 1.670711 -0.967223
1290.95703125 2.580396 1.690116 -0.89028
1291.72265625 2.817209 2.002872 -0.814337
1292.50390625 2.472405 2.15938 -0.313025
1293.27734375 2.650967 1.771441 -0.879526
1294.03125 2.30048 1.908738 -0.391742
1294.76953125 2.2639449999999997 1.699779 -0.564166
1295.52734375 2.337767 1.330293 -1.007474
1296.28515625 1.868863 1.445506 -0.423357
1297.01953125 1.679637 1.33992 -0.339717
1297.73828125 1.470334 1.155334 -0.315
1298.47265625 2.524884 0.534617 -1.990267
1299.20703125 2.831956 0.133513 -2.698443
1299.95703125 2.97804 0.179242 -2.798798
1300.72265625 3.0639730000000003 0.184464 -2.879509
1301.453125 3.063773 0.349971 -2.713802
1302.1875 3.028981 0.515634 -2.513347
1302.94921875 3.068182 0.736056 -2.332126
1303.6953125 3.02723 0.90223 -2.125
1304.44140625 3.223887 1.344566 -1.879321
1305.17578125 3.064712 1.449883 -1.614829
1305.9453125 3.059218 1.57725 -1.481968
1306.72265625 3.076294 1.732582 -1.343712
1307.50390625 3.097509 1.767635 -1.329874
1308.265625 3.156174 1.856487 -1.299687
1309.09375 3.1760859999999997 2.011853 -1.164233
1310.0703125 3.171198 2.127779 -1.043419
1311.15234375 3.1382529999999997 2.07876 -1.059493
1312.2578125 2.756408 1.792273 -0.964135
1313.30078125 2.9825530000000002 1.864603 -1.11795
1314.359375 2.997414 1.792948 -1.204466
1315.3046875 2.9577169999999997 1.671683 -1.286034
1316.25 3.094677 1.655 -1.439677
1317.25390625 3.006519 1.66578 -1.340739
1318.19921875 3.010326 1.641493 -1.368833
1319.10546875 3.01997 1.62997 -1.39
1319.9453125 3.08416 1.626922 -1.457238
1320.8125 3.072584 1.575755 -1.496829
1321.7109375 3.059685 1.518162 -1.541523
1322.640625 3.003845 1.439722 -1.564123
1323.484375 3.056134 1.452676 -1.603458
1324.38671875 3.0806959999999997 1.37201 -1.708686
1325.34765625 3.046577 1.336264 -1.710313
1326.2421875 3.045794 1.341633 -1.704161
1327.0859375 3.0609669999999998 1.35043 -1.710537
1327.9296875 3.139266 1.556606 -1.58266
1328.828125 3.061426 1.919493 -1.141933
1329.69921875 3.1 2.217905 -0.882095
1330.484375 3.065271 2.315271 -0.75
1331.2890625 3.05951 2.409081 -0.650429
1332.12109375 3.114915 2.340143 -0.774772
1332.94140625 3.126168 2.282476 -0.843692
1333.7265625 3.168501 2.188501 -0.98
1334.56640625 3.1439139999999997 2.029905 -1.114009
1335.42578125 3.139457 1.846547 -1.29291
1336.2421875 3.103054 1.743996 -1.359058
1337.08203125 3.051999 1.679725 -1.372274
1337.95703125 3.053374 1.768415 -1.284959
1338.85546875 3.0649949999999997 1.699995 -1.365
1339.7109375 3.134572 1.674659 -1.459913
1340.75 3.039925 1.57 -1.469925
1341.8515625 2.986557 1.623635 -1.362922
1342.80078125 2.929647 1.435636 -1.494011
1343.78125 3.106356 1.450045 -1.656311
1344.81640625 3.138739 1.429025 -1.709714
1345.84765625 3.072933 1.458995 -1.613938
1346.76171875 3.06032 1.638936 -1.421384
1347.63671875 3.013761 1.639118 -1.374643
1348.5078125 3.028841 1.521422 -1.507419
1349.4453125 3.074431 1.459494 -1.614937
1350.33203125 3.0712070000000002 1.520248 -1.550959
1351.18359375 3.141999 1.526166 -1.615833
1352.046875 3.163258 1.559737 -1.603521
1352.96484375 3.117493 1.595209 -1.522284
1353.8828125 3.170265 1.653118 -1.517147
1354.7578125 3.281581 1.576806 -1.704775
1355.71484375 3.220377 1.547996 -1.672381
1356.7578125 3.168682 1.699207 -1.469475
1357.6875 3.162043 1.714636 -1.447407
1358.56640625 3.298193 1.714118 -1.584075
1359.40625 3.215503 1.690456 -1.525047
1360.2734375 3.227106 1.763174 -1.463932
1361.10546875 3.3847490000000002 1.749749 -1.635
1361.96484375 3.252723 1.653009 -1.599714
1362.90625 3.262023 1.761797 -1.500226
1363.796875 3.273715 1.819224 -1.454491
1364.6640625 3.325807 1.923278 -1.402529
1365.578125 3.246683 1.998479 -1.248204
1366.58984375 3.193683 1.960626 -1.233057
1367.5546875 3.1522379999999997 1.799861 -1.352377
1368.41015625 3.2270849999999998 1.900241 -1.326844
1369.3046875 3.205145 1.853404 -1.351741
1370.25390625 3.170326 1.606308 -1.564018
1371.11328125 3.329537 1.643701 -1.685836
1371.97265625 3.2969749999999998 1.612392 -1.684583
1372.8515625 3.2799110000000002 1.579922 -1.699989
1373.76171875 3.2230309999999998 1.627084 -1.595947
1374.64453125 3.318348 1.859951 -1.458397
1375.59375 3.120617 1.834786 -1.285831
1376.75390625 3.130055 1.866619 -1.263436
1377.8046875 3.199458 1.936556 -1.262902
1378.83984375 3.050374 1.834845 -1.215529
1379.83203125 3.099433 1.8958 -1.203633
1380.7734375 3.0511999999999997 1.966523 -1.084677
1381.6875 3.110375 2.050732 -1.059643
1382.55859375 3.084159 1.908827 -1.175332
1383.38671875 3.095355 1.744048 -1.351307
1384.2109375 3.14044 1.810638 -1.329802
1385.04296875 3.0021050000000002 1.912083 -1.090022
1385.90625 2.994411 1.842048 -1.152363
1386.73828125 3.016394 1.730863 -1.285531
1387.55078125 3.0944979999999997 1.73 -1.364498
1388.46484375 3.107871 1.796301 -1.31157
1389.41015625 2.969277 1.706726 -1.262551
1390.26171875 3.091533 1.786083 -1.30545
1391.11328125 3.057928 1.813586 -1.244342
1391.99609375 3.036308 1.812378 -1.22393
1392.9296875 2.970205 1.795 -1.175205
1393.77734375 3.0565290000000003 1.801571 -1.254958
1394.58984375 2.949808 1.633285 -1.316523
1395.42578125 2.969595 1.589593 -1.380002
1396.27734375 3.0196769999999997 1.649978 -1.369699
1397.078125 2.927712 1.589315 -1.338397
1397.8671875 2.920559 1.619894 -1.300665
1398.68359375 3.012881 1.572599 -1.440282
1399.53125 3.011005 1.4498 -1.561205
1400.359375 2.937093 1.435267 -1.501826
1401.16015625 2.972403 1.496518 -1.475885
1402.00390625 3.0165870000000004 1.669407 -1.34718
1402.92578125 2.933227 1.683308 -1.249919
1403.7734375 3.0766039999999997 1.687528 -1.389076
1404.59765625 3.0493810000000003 1.659874 -1.389507
1405.47265625 3.040371 1.638947 -1.401424
1406.33203125 2.929538 1.573216 -1.356322
1407.1640625 3.071123 1.604597 -1.466526
1408.01953125 3.139656 1.609774 -1.529882
1408.890625 3.033468 1.645328 -1.38814
1409.7578125 2.9620189999999997 1.784804 -1.177215
1410.59375 2.947355 1.572349 -1.375006
1411.4921875 3.026741 1.353575 -1.673166
1412.36328125 3.073795 1.385944 -1.687851
1413.23046875 3.079927 1.474927 -1.605
1414.18359375 3.057074 1.543655 -1.513419
1415.41796875 3.011523 1.565599 -1.445924
1416.4609375 3.0646750000000003 1.694934 -1.369741
1417.56640625 3.017778 1.682537 -1.335241
1418.60546875 3.074599 1.729599 -1.345
1419.65625 3.0673019999999998 1.754466 -1.312836
1420.73828125 3.02614 1.721917 -1.304223
1421.78125 3.077378 1.738111 -1.339267
1422.80078125 3.073422 1.748262 -1.32516
1423.7578125 3.067929 1.731391 -1.336538
1424.80859375 3.0921849999999997 1.764098 -1.328087
1425.859375 3.095825 1.73801 -1.357815
1426.8046875 3.092485 1.736221 -1.356264
1427.84375 3.054059 1.703548 -1.350511
1428.87109375 3.128926 1.740374 -1.388552
1429.796875 3.2273959999999997 1.838257 -1.389139
1430.6640625 3.15418 1.821164 -1.333016
1431.55859375 3.104116 1.800873 -1.303243
1432.3828125 3.161216 1.78348 -1.377736
1433.17578125 3.195319 1.870153 -1.325166
1434.00390625 3.063022 1.830292 -1.23273
1434.890625 3.043491 1.771917 -1.271574
1435.72265625 3.179241 1.7915 -1.387741
1436.51953125 3.174055 1.729841 -1.444214
1437.33984375 3.11864 1.712798 -1.405842
1438.140625 3.020805 1.827453 -1.193352
1438.9453125 3.011426 1.781406 -1.23002
1439.72265625 2.88973 1.683494 -1.206236
1440.48046875 2.946147 1.546147 -1.4
1441.2421875 2.965505 1.594777 -1.370728
1442.01953125 2.924267 1.639631 -1.284636
1442.84375 2.9466710000000003 1.598143 -1.348528
1443.6484375 2.987896 1.539022 -1.448874
1444.43359375 3.011164 1.506729 -1.504435
1445.26171875 2.995409 1.547608 -1.447801
1446.1875 3.0770049999999998 1.56131 -1.515695
1447.0078125 3.1816579999999997 1.627908 -1.55375
1447.87890625 3.099862 1.819042 -1.28082
1448.8828125 3.0328220000000004 1.841631 -1.191191
1449.96484375 3.066324 1.669521 -1.396803
1450.87109375 3.070317 1.581769 -1.488548
1451.8203125 3.0704580000000004 1.749597 -1.320861
1452.81640625 3.1037410000000003 1.72913 -1.374611
1453.76171875 2.944503 1.597448 -1.347055
1454.60546875 3.093576 1.598576 -1.495
1455.4765625 3.0361029999999998 1.663635 -1.372468
1456.421875 3.192004 1.693979 -1.498025
1457.4921875 3.1022420000000004 1.561179 -1.541063
1458.51171875 2.98445 1.757371 -1.227079
1459.390625 3.1141889999999997 1.913514 -1.200675
1460.328125 3.205235 1.714768 -1.490467
1461.4609375 3.194694 1.529773 -1.664921
1462.5234375 3.0574380000000003 1.512863 -1.544575
1463.4765625 3.085776 1.718072 -1.367704
1464.41015625 3.1213759999999997 1.724689 -1.396687
1465.36328125 3.170622 1.640421 -1.530201
1466.31640625 3.197119 1.673782 -1.523337
1467.19921875 3.1841410000000003 1.665431 -1.51871
1468.04296875 3.2523020000000002 1.813587 -1.438715
1468.9140625 3.177044 1.834782 -1.342262
1469.8828125 3.185908 1.983148 -1.20276
1470.828125 3.1323420000000004 2.198904 -0.933438
1471.72265625 3.266148 2.127426 -1.138722
1472.6796875 3.203647 2.004478 -1.199169
1473.88671875 3.197584 2.102014 -1.09557
1474.921875 3.3264240000000003 2.233512 -1.092912
1475.9296875 3.138986 2.16301 -0.975976
1476.9296875 3.1354759999999997 2.191312 -0.944164
1477.8984375 3.131566 2.157513 -0.974053
1478.8046875 3.234011 2.115984 -1.118027
1479.66015625 3.1563939999999997 2.075275 -1.081119
1480.51171875 3.1635780000000002 2.105709 -1.057869
1481.40625 3.147891 2.114462 -1.033429
1482.23828125 3.1056239999999997 2.226905 -0.878719
1483.13671875 3.079471 2.16912 -0.910351
1484.0546875 3.1125739999999995 2.024583 -1.087991
1485.1015625 3.020676 1.9 -1.120676
1486.08984375 3.137409 1.96626 -1.171149
1487.21875 3.083654 2.042266 -1.041388
1488.33984375 3.050452 2.027775 -1.022677
1489.37109375 2.989936 1.980151 -1.009785
1490.47265625 2.9986010000000003 2.003601 -0.995
1491.53515625 3.0098510000000003 2.064528 -0.945323
1492.5234375 3.086099 2.167188 -0.918911
1493.5703125 3.049229 2.150607 -0.898622
1494.5390625 3.079587 2.104666 -0.974921
1495.51171875 3.102564 2.098626 -1.003938
1496.39453125 3.094659 2.089727 -1.004932
1497.2578125 3.137448 1.994981 -1.142467
1498.09375 3.15556 1.9602 -1.19536
1498.921875 3.2556789999999998 2.033991 -1.221688
1499.83984375 3.13687 2.102534 -1.034336
1500.83203125 3.252002 2.023565 -1.228437
1501.72265625 3.2371619999999997 2.021368 -1.215794
1502.71484375 3.1767 1.988057 -1.188643
1503.6328125 3.264895 2.063744 -1.201151
1504.46484375 3.2887259999999996 2.086051 -1.202675
1505.30078125 3.276196 2.082789 -1.193407
1506.19140625 3.226234 2.057537 -1.168697
1507.20703125 3.186791 1.992411 -1.19438
1508.0546875 3.188996 2.003154 -1.185842
1508.890625 3.094225 1.922624 -1.171601
1509.89453125 3.090616 1.935 -1.155616
1510.8828125 3.149727 1.896582 -1.253145
1511.8359375 3.243983 1.98439 -1.259593
1512.9921875 3.175328 1.91098 -1.264348
1514.1015625 3.154015 1.899015 -1.255
1515.0703125 3.268574 2.009856 -1.258718
1516.00390625 3.130375 1.997808 -1.132567
1516.984375 3.0972239999999998 2.096597 -1.000627
1517.84375 3.194834 2.041776 -1.153058
1518.66796875 3.091291 1.839254 -1.252037
1519.53515625 2.9816589999999996 1.668815 -1.312844
1520.36328125 3.08294 1.732973 -1.349967
1521.203125 3.066868 1.803407 -1.263461
1522.1015625 3.036076 1.886076 -1.15
1523.015625 3.105708 1.887325 -1.218383
1523.921875 3.1842040000000003 1.872678 -1.311526
1524.76171875 3.248971 1.81302 -1.435951
1525.6328125 3.1667389999999997 1.738983 -1.427756
1526.5390625 3.1064410000000002 1.747729 -1.358712
1527.4375 3.139493 1.835619 -1.303874
1528.28125 3.12095 2.082253 -1.038697
1529.234375 3.01588 1.966731 -1.049149
1530.08203125 2.897016 1.704972 -1.192044
1530.8984375 2.989365 1.668397 -1.320968
1531.71484375 3.040435 1.834647 -1.205788
1532.515625 2.999332 1.674569 -1.324763
1533.30078125 3.1330489999999998 1.588182 -1.544867
1534.12109375 3.1661460000000003 1.585668 -1.580478
1534.921875 3.238297 1.629437 -1.60886
1535.83984375 3.221839 1.752793 -1.469046
1536.79296875 3.200714 1.747521 -1.453193
1537.6640625 3.2529820000000003 1.849447 -1.403535
1538.55859375 3.276549 1.868988 -1.407561
1539.74609375 3.198104 1.817157 -1.380947
1540.86328125 3.1499699999999997 1.775938 -1.374032
1541.85546875 3.194737 1.869737 -1.325
1542.92578125 3.2080390000000003 1.893566 -1.314473
1543.98828125 3.1936419999999996 1.889411 -1.304231
1544.9609375 3.319189 2.024398 -1.294791
1546.0234375 3.194067 1.921883 -1.272184
1547.05859375 3.181343 1.842732 -1.338611
1548.0625 3.233174 1.898262 -1.334912
1549.15625 3.234741 1.920077 -1.314664
1550.3046875 3.180749 1.907315 -1.273434
1551.3125 3.2197959999999997 1.939952 -1.279844
1552.42578125 3.243013 1.932807 -1.310206
1553.5 3.2749490000000003 1.955 -1.319949
1554.51171875 3.381372 2.076372 -1.305
1555.61328125 3.303583 2.026918 -1.276665
1556.65625 3.182925 1.964104 -1.218821
1557.65625 3.311107 1.987411 -1.323696
1558.6953125 3.2387930000000003 1.875516 -1.363277
1559.7421875 3.208987 1.844626 -1.364361
1560.69921875 3.289352 1.928977 -1.360375
1561.6171875 3.277134 1.88948 -1.387654
1562.5390625 3.313672 1.928718 -1.384954
1563.3984375 3.2544769999999996 1.905903 -1.348574
1564.23828125 3.3544210000000003 2.041288 -1.313133
1565.07421875 3.315279 2.037302 -1.277977
1565.95703125 3.2628950000000003 2.030419 -1.232476
1566.8515625 3.294016 2.049016 -1.245
1567.67578125 3.2497350000000003 1.934037 -1.315698
1568.50390625 3.133219 1.906471 -1.226748
1569.3515625 3.200034 1.910034 -1.29
1570.2109375 3.193707 1.884702 -1.309005
1571.0390625 3.194249 1.939345 -1.254904
1571.84765625 2.99284 1.847949 -1.144891
1572.6328125 2.9921699999999998 1.738018 -1.254152
1573.4296875 2.996972 1.614431 -1.382541
1574.25 3.084708 1.59 -1.494708
1575.04296875 3.077322 1.591976 -1.485346
1575.859375 3.0898380000000003 1.594491 -1.495347
1576.73828125 3.09797 1.64613 -1.45184
1577.578125 3.154026 1.624032 -1.529994
1578.4296875 3.095803 1.643426 -1.452377
1579.3125 3.0481 1.63204 -1.41606
1580.26171875 2.9810730000000003 1.645747 -1.335326
1581.2265625 3.194342 1.720867 -1.473475
1582.09375 3.122897 1.668398 -1.454499
1583.01171875 3.029624 1.662791 -1.366833
1583.9921875 2.965228 1.55482 -1.410408
1585.1953125 3.017093 1.627898 -1.389195
1586.171875 3.075209 1.652858 -1.422351
1587.02734375 3.078923 1.711686 -1.367237
1587.953125 2.966176 1.676751 -1.289425
1588.83203125 2.968548 1.613597 -1.354951
1589.7109375 2.9906889999999997 1.5988 -1.391889
1590.57421875 3.0195980000000002 1.570612 -1.448986
1591.38671875 3.005908 1.580688 -1.42522
1592.296875 3.067971 1.667042 -1.400929
1593.234375 3.039289 1.678985 -1.360304
1594.12890625 2.941395 1.792001 -1.149394
1594.99609375 2.963124 1.739459 -1.223665
1595.85546875 2.970302 1.625302 -1.345
1596.75 2.999956 1.545 -1.454956
1597.71875 2.918905 1.57663 -1.342275
1598.58984375 2.957637 1.577504 -1.380133
1599.453125 3.1115969999999997 1.662458 -1.449139
1600.3515625 2.9608879999999997 1.555888 -1.405
1601.2421875 2.966069 1.517757 -1.448312
1602.140625 2.8889430000000003 1.680108 -1.208835
1602.97265625 3.002003 1.728983 -1.27302
1603.77734375 3.024738 1.634738 -1.39
1604.59765625 2.9897039999999997 1.537883 -1.451821
1605.41796875 3.014577 1.528568 -1.486009
1606.2265625 3.093063 1.558063 -1.535
1607.03515625 3.102964 1.58219 -1.520774
1607.8671875 3.027163 1.599844 -1.427319
1608.72265625 2.956244 1.532936 -1.423308
1609.59765625 3.1094999999999997 1.597639 -1.511861
1610.44140625 3.237983 1.709155 -1.528828
1611.3125 3.096038 1.670449 -1.425589
1612.58203125 3.031879 1.620521 -1.411358
1613.76171875 3.032812 1.677098 -1.355714
1614.890625 3.0309850000000003 1.632481 -1.398504
1615.921875 3.1834350000000002 1.739008 -1.444427
1617.015625 3.0591559999999998 1.681726 -1.37743
1618.0625 3.114823 1.814231 -1.300592
1619.078125 3.136994 1.908125 -1.228869
1620.12890625 3.108957 1.858361 -1.250596
1621.13671875 3.156783 1.859221 -1.297562
1622.1015625 3.199631 1.913526 -1.286105
1623.14453125 3.1594680000000004 1.809738 -1.34973
1624.203125 3.246597 1.772837 -1.47376
1625.19921875 3.2543249999999997 1.758637 -1.495688
1626.25390625 3.141574 1.697471 -1.444103
1627.265625 3.195219 1.768604 -1.426615
1628.2265625 3.260403 1.862983 -1.39742
1629.15234375 3.198264 1.786689 -1.411575
1630.10546875 3.249726 1.814726 -1.435
1630.99609375 3.241148 1.835806 -1.405342
1631.90234375 3.18976 1.803444 -1.386316
1633.109375 3.133817 1.688434 -1.445383
1634.125 3.0755939999999997 1.7 -1.375594
1635.3125 3.2061960000000003 1.806497 -1.399699
1636.3515625 3.2172140000000002 1.87403 -1.343184
1637.4375 3.191335 1.874683 -1.316652
1638.51171875 3.218465 1.922448 -1.296017
1639.61328125 3.1473370000000003 1.879388 -1.267949
1640.71875 3.213546 1.881575 -1.331971
1641.71484375 3.242184 1.966896 -1.275288
1642.609375 3.3622490000000003 2.043199 -1.31905
1643.42578125 3.106347 2.080003 -1.026344
1644.18359375 3.162197 1.874738 -1.287459
1644.94140625 3.07214 1.709905 -1.362235
1645.6875 2.896292 1.513717 -1.382575
1646.41796875 2.723382 1.763703 -0.959679
1647.1171875 2.588697 1.75462 -0.834077
1647.828125 2.669642 1.560213 -1.109429
1648.54296875 3.1366229999999997 0.842113 -2.29451
1649.2578125 3.242502 0.991721 -2.250781
1649.99609375 3.189176 0.972208 -2.216968
1650.69921875 3.175607 1.019672 -2.155935
1651.4453125 3.20565 1.214059 -1.991591
1652.2421875 3.257276 1.494624 -1.762652
1653.0546875 3.25842 1.698887 -1.559533
1653.81640625 3.229866 1.759906 -1.46996
1654.58203125 3.253378 1.875177 -1.378201
1655.40234375 3.17888 1.904175 -1.274705
1656.2578125 3.2325470000000003 1.922741 -1.309806
1657.1015625 3.122435 1.839648 -1.282787
1657.89453125 3.184181 1.784715 -1.399466
1658.703125 3.193095 1.882408 -1.310687
1659.59375 3.1831430000000003 1.844368 -1.338775
1660.4921875 3.2226860000000004 1.869018 -1.353668
1661.36328125 3.222191 1.854489 -1.367702
1662.2109375 3.144907 1.76998 -1.374927
1663.1015625 3.191981 1.875847 -1.316134
1664.41015625 3.088118 1.764528 -1.32359
1665.44140625 3.120428 1.833702 -1.286726
1666.5625 3.141372 1.7825 -1.358872
1667.8046875 3.199536 1.816263 -1.383273
1668.9375 3.1050899999999997 1.742403 -1.362687
1669.9921875 3.141653 1.720378 -1.421275
1671.13671875 3.077411 1.680168 -1.397243
1672.17578125 3.0355540000000003 1.697435 -1.338119
1673.1796875 3.120948 1.685895 -1.435053
1674.3125 3.075977 1.634603 -1.441374
1675.37109375 3.084276 1.65327 -1.431006
1676.3515625 3.049457 1.568409 -1.481048
1677.45703125 3.0191179999999997 1.489277 -1.529841
1678.6484375 3.064225 1.775 -1.289225
1679.703125 3.1583550000000002 2.075904 -1.082451
1680.91015625 3.113165 2.053476 -1.059689
1682.00390625 3.069981 1.921579 -1.148402
1683.0703125 3.059088 1.804857 -1.254231
1684.1953125 3.0078940000000003 1.737168 -1.270726
1685.22265625 3.12351 1.784712 -1.338798
1686.28515625 3.09816 1.713878 -1.384282
1687.359375 2.953899 1.615628 -1.338271
1688.3515625 3.057058 1.710974 -1.346084
1689.33984375 3.064119 1.693622 -1.370497
1690.3984375 2.990427 1.654602 -1.335825
1691.3984375 2.974821 1.665327 -1.309494
1692.37109375 3.014113 1.674686 -1.339427
1693.4609375 3.039698 1.649775 -1.389923
1694.65234375 3.079099 1.741364 -1.337735
1695.8046875 2.969067 1.638711 -1.330356
1696.8671875 2.981135 1.656384 -1.324751
1697.94140625 2.9824460000000004 1.62864 -1.353806
1699.07421875 3.011638 1.653743 -1.357895
1700.0703125 3.0761060000000002 1.744598 -1.331508
1700.96484375 2.986117 1.646366 -1.339751
1701.93359375 3.068549 1.733909 -1.33464
1703.08984375 3.150802 1.802504 -1.348298
1704.1875 3.071086 1.762353 -1.308733
1705.33203125 3.058797 1.755791 -1.303006
1706.390625 3.115833 1.738022 -1.377811
1707.47265625 3.059017 1.694606 -1.364411
1708.4765625 3.025665 1.698919 -1.326746
1709.51953125 3.0437000000000003 1.649588 -1.394112
1710.52734375 3.052668 1.656306 -1.396362
1711.4609375 3.154214 1.759439 -1.394775
1712.27734375 3.075769 1.715658 -1.360111
1713.1640625 2.9945690000000003 1.819569 -1.175
1714.10546875 2.99979 1.75979 -1.24
1714.9296875 3.060734 1.643263 -1.417471
1715.7578125 3.076948 1.564736 -1.512212
1716.6328125 3.042089 1.505679 -1.53641
1717.4921875 3.1181929999999998 1.563966 -1.554227
1718.30078125 3.119839 1.53964 -1.580199
1719.140625 3.063262 1.562546 -1.500716
1719.98046875 3.119678 1.599678 -1.52
1720.80859375 3.0760389999999997 1.635877 -1.440162
1721.6015625 3.076438 1.585239 -1.491199
1722.375 3.099926 1.6 -1.499926
1723.19921875 2.98969 1.531531 -1.458159
1724.046875 3.033938 1.541401 -1.492537
1724.89453125 3.019227 1.549953 -1.469274
1725.66796875 2.984115 1.520673 -1.463442
1726.4609375 3.073713 1.593908 -1.479805
1727.2734375 3.036749 1.617418 -1.419331
1728.1015625 3.0012540000000003 1.539741 -1.461513
1728.9296875 3.026604 1.58964 -1.436964
1729.71875 3.0639830000000003 1.571617 -1.492366
1730.56640625 2.9894990000000004 1.557838 -1.431661
1731.42578125 2.995293 1.511259 -1.484034
1732.25 3.05494 1.595 -1.45994
1733.1015625 3.0581899999999997 1.62329 -1.4349
1733.8984375 3.007026 1.609741 -1.397285
1734.7265625 3.085343 1.611001 -1.474342
1735.53515625 2.978939 1.541624 -1.437315
1736.36328125 3.015168 1.591273 -1.423895
1737.20703125 3.011484 1.621595 -1.389889
1738.0390625 3.1184760000000002 1.619292 -1.499184
1738.8671875 3.006965 1.542055 -1.46491
1739.72265625 2.9963670000000002 1.525518 -1.470849
1740.5859375 3.073302 1.648654 -1.424648
1741.421875 3.1090090000000004 1.692188 -1.416821
1742.2578125 3.132178 1.683005 -1.449173
1743.08203125 3.044538 1.61458 -1.429958
1743.921875 3.0362210000000003 1.633717 -1.402504
1744.80078125 3.049868 1.645376 -1.404492
1745.609375 3.033916 1.678105 -1.355811
1746.41015625 3.018094 1.676177 -1.341917
1747.25390625 3.0275119999999998 1.72737 -1.300142
1748.1015625 3.017035 1.702035 -1.315
1748.95703125 2.993775 1.699215 -1.29456
1749.78515625 3.060005 1.68719 -1.372815
1750.60546875 3.0369450000000002 1.642725 -1.39422
1751.484375 2.957266 1.593047 -1.364219
1752.3828125 3.170717 1.704791 -1.465926
1753.23046875 2.9929829999999997 1.612983 -1.38
1754.04296875 3.117997 1.716513 -1.401484
1754.92578125 2.911124 1.659164 -1.25196
1755.85546875 2.955503 1.644639 -1.310864
1756.796875 3.074849 1.670903 -1.403946
1757.71875 3.028404 1.668404 -1.36
1758.9765625 3.0085740000000003 1.653574 -1.355
1760.1015625 3.04673 1.703427 -1.343303
1761.14453125 3.079485 1.679785 -1.3997
1762.28515625 3.076745 1.682012 -1.394733
1763.33203125 3.000219 1.623963 -1.376256
1764.4140625 3.1128229999999997 1.684094 -1.428729
1765.5078125 3.09136 1.752997 -1.338363
1766.52734375 3.174588 1.796715 -1.377873
1767.53515625 3.092474 1.734432 -1.358042
1768.55078125 3.099896 1.819575 -1.280321
1769.52734375 3.178081 1.823398 -1.354683
1770.609375 3.094087 1.525368 -1.568719
1771.66796875 3.1085190000000003 1.483852 -1.624667
1772.65625 3.1520159999999997 1.440331 -1.711685
1773.76171875 3.087793 1.364648 -1.723145
1774.74609375 3.130726 1.37193 -1.758796
1775.7109375 3.189835 1.42 -1.769835
1776.74609375 3.090034 1.34937 -1.740664
1777.8125 3.12587 1.427049 -1.698821
1778.7890625 3.237039 1.453619 -1.78342
1779.91796875 3.1042620000000003 1.399966 -1.704296
1780.92578125 3.148512 1.438264 -1.710248
1781.98046875 3.141431 1.41478 -1.726651
1783.03125 3.09129 1.397958 -1.693332
1783.98828125 3.1464689999999997 1.40449 -1.741979
1784.99609375 3.088184 1.407059 -1.681125
1786.0078125 3.111605 1.475145 -1.63646
1786.953125 3.17095 1.477738 -1.693212
1787.81640625 3.1765670000000004 1.442989 -1.733578
1788.66015625 3.196363 1.488752 -1.707611
1789.48828125 3.1695130000000002 1.430604 -1.738909
1790.296875 3.2560409999999997 1.493488 -1.762553
1791.0859375 3.130312 1.40617 -1.724142
1791.9296875 3.1469329999999998 1.408271 -1.738662
1792.74609375 3.077169 1.429486 -1.647683
1793.55078125 2.982718 1.491851 -1.490867
1794.359375 3.009401 1.441816 -1.567585
1795.13671875 3.04624 1.342761 -1.703479
1795.9296875 3.080393 1.355949 -1.724444
1796.75 3.016168 1.29 -1.726168
1797.53125 3.148015 1.334277 -1.813738
1798.3203125 3.0935360000000003 1.261458 -1.832078
1799.09765625 3.0180499999999997 1.298538 -1.719512
1799.8359375 3.124656 1.409743 -1.714913
1800.5546875 3.106325 1.337088 -1.769237
1801.3125 3.162383 1.370152 -1.792231
1802.09375 3.153491 1.353597 -1.799894
1802.93359375 3.101666 1.373359 -1.728307
1803.7734375 3.024337 1.301043 -1.723294
1804.578125 3.153917 1.422725 -1.731192
