130 
339 
445 
561 
788 
1007 
1222 
1430 
1638 
1853 
2065 
2285 
2504 
2726 
2937 
3139 
3341 
3556 
3779 
4012 
4228 
4436 
4642 
4857 
5069 
5290 
5512 
5729 
5944 
6152 
6353 
6565 
6780 
7011 
7231 
7444 
7648 
7855 
8062 
8283 
8516 
8732 
8946 
9155 
9358 
9572 
9723 
9951 
10172 
10391 
10605 
10809 
11010 
11221 
11449 
11675 
11885 
12099 
12305 
12508 
12729 
12945 
13164 
13386 
13600 
13808 
14009 
14218 
14436 
14662 
14884 
15098 
15305 
15504 
15722 
15944 
16170 
16389 
16607 
16815 
17021 
17235 
17446 
17665 
17889 
18107 
18319 
18520 
18727 
18938 
19161 
19386 
19604 
19811 
20019 
20230 
20440 
20581 
20822 
20979 
21214 
21426 
21630 
21840 
22048 
22191 
22442 
22604 
22835 
22991 
23216 
23369 
23605 
23833 
24050 
24264 
24477 
24682 
24890 
25097 
25312 
25533 
25753 
25967 
26170 
26372 
26580 
26810 
27034 
27247 
27461 
27668 
27874 
28090 
28308 
28533 
28751 
28918 
29146 
29354 
29559 
29778 
30002 
30223 
30443 
30651 
30850 
31065 
31294 
31529 
31749 
31966 
32172 
32379 
32599 
32821 
33044 
33268 
33488 
33699 
33897 
34101 
34315 
34538 
34766 
34984 
35191 
35397 
35611 
35827 
36048 
36269 
36483 
36700 
36909 
37113 
37326 
37547 
37775 
37993 
38202 
38406 
38611 
38822 
39048 
39274 
39490 
39704 
39916 
40120 
40332 
40545 
40769 
40988 
41123 
41355 
41546 
41754 
41972 
42201 
42427 
42641 
42853 
43056 
43263 
43483 
43703 
43921 
44141 
44357 
44562 
44768 
44976 
45195 
45426 
45645 
45858 
46064 
46261 
46466 
46596 
46847 
47065 
47284 
47492 
47700 
47886 
48067 
48195 
48431 
48653 
48870 
49080 
49279 
49486 
49696 
49918 
50142 
50361 
50567 
50773 
50985 
51198 
51416 
51636 
51850 
52066 
52275 
52475 
52685 
52888 
53030 
53286 
53491 
53697 
53823 
54046 
54259 
54491 
54711 
54924 
55138 
55348 
55554 
55764 
55981 
56204 
56425 
56639 
56844 
57052 
57258 
57483 
57712 
57929 
58141 
58352 
58555 
58769 
58994 
59221 
59435 
59654 
59865 
60075 
60284 
60501 
60637 
60881 
61050 
61281 
61490 
61695 
61915 
62144 
62368 
62585 
62799 
63004 
63214 
63425 
63645 
63867 
64090 
64304 
64511 
64714 
64929 
65148 
65377 
65597 
65812 
66014 
66218 
66346 
66582 
66741 
66986 
67188 
67391 
67592 
67798 
67990 
68115 
68352 
68578 
68798 
69005 
69205 
69412 
69628 
69863 
70086 
70299 
70512 
70723 
70933 
71143 
71366 
71588 
71811 
72028 
72234 
72436 
72648 
72880 
73110 
73324 
73535 
73742 
73948 
74164 
74389 
74613 
74830 
75049 
75190 
75411 
75572 
75807 
75965 
76211 
76433 
76580 
76805 
77004 
77220 
77446 
77669 
77879 
78094 
78300 
78504 
78712 
78926 
79142 
79366 
79581 
79791 
79994 
80109 
80340 
80512 
80758 
80973 
81184 
81389 
81598 
81812 
82030 
82254 
82473 
82684 
82895 
83101 
83312 
83526 
83750 
83974 
84192 
84396 
84598 
84805 
85023 
85258 
85480 
85693 
85903 
86114 
86323 
86538 
86760 
86981 
87199 
87412 
87616 
87824 
88035 
88266 
88499 
88716 
88925 
89131 
89333 
89472 
89725 
89925 
90160 
90377 
90588 
90791 
91001 
91217 
91445 
91667 
91884 
92091 
92293 
92498 
92725 
92959 
93180 
93396 
93606 
93809 
94022 
94244 
94470 
94689 
94913 
95122 
95328 
95531 
95748 
95923 
96172 
96349 
96478 
96694 
96897 
97116 
97338 
97570 
97791 
98008 
98216 
98422 
98632 
98850 
99078 
99219 
99450 
99665 
99867 
100072 
100284 
100512 
100770 
100988 
101195 
101403 
101620 
101838 
102065 
102294 
102509 
102726 
102934 
103139 
103349 
103571 
103811 
104029 
104239 
104443 
104646 
104858 
104994 
105245 
105410 
105645 
105821 
106050 
106212 
106326 
106570 
106792 
107016 
107237 
107443 
107646 
107851 
108067 
108303 
108529 
108741 
108953 
109155 
109361 
109582 
109805 
110022 
110219 
110349 
110681 
110886 
111096 
111317 
111482 
111715 
111934 
112119 
112312 
112511 
112737 
112966 
113183 
113400 
113550 
113776 
113990 
114205 
114428 
114652 
114873 
115084 
115241 
115464 
115678 
115905 
116135 
116299 
116532 
116736 
116949 
117168 
117333 
117440 
117686 
117885 
118092 
118291 
118502 
118649 
118884 
119112 
119336 
119553 
119708 
119931 
120141 
120358 
120534 
120786 
121000 
121210 
121421 
121618 
121841 
122052 
122266 
122487 
122705 
122910 
123118 
123324 
123547 
123789 
124006 
124215 
124423 
124627 
124843 
125075 
125304 
125518 
125738 
125946 
126157 
126368 
126504 
126755 
126953 
127178 
127385 
127590 
127796 
128021 
128263 
128491 
128708 
128920 
129123 
129339 
129562 
129799 
130021 
130242 
130450 
130655 
130841 
131056 
131286 
131518 
131737 
131951 
132153 
132365 
132589 
132823 
133046 
133264 
133474 
133680 
133891 
134103 
134321 
134553 
134770 
134984 
135187 
135393 
135603 
135825 
136061 
136278 
136489 
136697 
136906 
137119 
137332 
137560 
137778 
137994 
138208 
138411 
138616 
138833 
139069 
139291 
139505 
139710 
139915 
140046 
140282 
140464 
140703 
140914 
141115 
141332 
141540 
141749 
141966 
142191 
142412 
142629 
142833 
143038 
143248 
143477 
143713 
143926 
144075 
144308 
144510 
144724 
144947 
145181 
145399 
145620 
145830 
146035 
146244 
146457 
146678 
146906 
147126 
147335 
147537 
147742 
147967 
148194 
148411 
148628 
148841 
149045 
149257 
149467 
149687 
149911 
150133 
150346 
150557 
150759 
150970 
151188 
151415 
151635 
151850 
152052 
152263 
152478 
152600 
152831 
153032 
153267 
153426 
153656 
153861 
154073 
154292 
154528 
154746 
154958 
155160 
155369 
155583 
155807 
156039 
156255 
156464 
156678 
156888 
157101 
157324 
157558 
157775 
157991 
158197 
158402 
158613 
158840 
159095 
159315 
159524 
159730 
159934 
160148 
160377 
160609 
160823 
161042 
161252 
161457 
161667 
161882 
162103 
162328 
162545 
162752 
162954 
163167 
163394 
163630 
163845 
164059 
164268 
164471 
164686 
164902 
165118 
165342 
165562 
165770 
165971 
166175 
166387 
166613 
166844 
167058 
167268 
167472 
167685 
167902 
168120 
168344 
168558 
168768 
168978 
169187 
169398 
169615 
169850 
170066 
170279 
170483 
170689 
170897 
171119 
171351 
171571 
171782 
171992 
172204 
172418 
172634 
172863 
173079 
173295 
173507 
173708 
173915 
174133 
174365 
174587 
174799 
175005 
175210 
175421 
175639 
175863 
176084 
176298 
176513 
176717 
176926 
177137 
177359 
177578 
177800 
178012 
178217 
178371 
178593 
178822 
179053 
179269 
179382 
179513 
179719 
179925 
180133 
180261 
180504 
180665 
180910 
181068 
181294 
181501 
181874 
182106 
182327 
182539 
182744 
182949 
183170 
183392 
183615 
183836 
184052 
184260 
184428 
184665 
184881 
185104 
185332 
185495 
185728 
185930 
186137 
186351 
186585 
186830 
187048 
187212 
187438 
187658 
187877 
188099 
188326 
188486 
188721 
188932 
189138 
189345 
189567 
189745 
189987 
190193 
190405 
190609 
190730 
190940 
191171 
191398 
191611 
191772 
192004 
192167 
192396 
192560 
192807 
192974 
193215 
193424 
193625 
193833 
194054 
194284 
194511 
194724 
194934 
195092 
195322 
195536 
195765 
195982 
196204 
196419 
196622 
196827 
197038 
197252 
197428 
197675 
197885 
198092 
198297 
198515 
198739 
198896 
199138 
199358 
199566 
199771 
199983 
200201 
200423 
200652 
200870 
201033 
201256 
201467 
201674 
201902 
202091 
202304 
202498 
202700 
202887 
203101 
203281 
203470 
203675 
203859 
204047 
204170 
204374 
204571 
204754 
204939 
205134 
205346 
205528 
205702 
205911 
206115 
206331 
206554 
206742 
206939 
207112 
207319 
207532 
207727 
207898 
208088 
208264 
208479 
208674 
208868 
209078 
209274 
209485 
209619 
209868 
210082 
210291 
210495 
210704 
210923 
211146 
211366 
211584 
211803 
211983 
212101 
212334 
212532 
212710 
212904 
213083 
213298 
213489 
213665 
213789 
214031 
214185 
214438 
214593 
214830 
215030 
215249 
215440 
215668 
215863 
216054 
216184 
216409 
216502 
217206 
217441 
217659 
217872 
218061 
218179 
218413 
218601 
218818 
219010 
219235 
219445 
219654 
219860 
220077 
220295 
220532 
220749 
220963 
221102 
221324 
221490 
221732 
221932 
222176 
222336 
222567 
222777 
222991 
223203 
223426 
223654 
223872 
224088 
224295 
224500 
224716 
224958 
225168 
225363 
225582 
225786 
225992 
226201 
226394 
226601 
226814 
227037 
227238 
227355 
227564 
227772 
227906 
228149 
228372 
228592 
228797 
228997 
229217 
229387 
229643 
229875 
230073 
230288 
230496 
230712 
230862 
231112 
231329 
231486 
231695 
231908 
232103 
232290 
232460 
232675 
232876 
233061 
233277 
233452 
233592 
233831 
234012 
234236 
234454 
234667 
234857 
234974 
235079 
235202 
235414 
235624 
235849 
236073 
236207 
236316 
236419 
236624 
236812 
236992 
237207 
237445 
237650 
237848 
238028 
238146 
238247 
238379 
238574 
238747 
238933 
239125 
239319 
239484 
239659 
239827 
240041 
240236 
240389 
240593 
240781 
240950 
241157 
241272 
241372 
241486 
241612 
241869 
242082 
242260 
242450 
242630 
242843 
243055 
243273 
243478 
243678 
243869 
244074 
244254 
244463 
244657 
244899 
245129 
245322 
245450 
245555 
245678 
245881 
246099 
246322 
246554 
246690 
246817 
247045 
247236 
247406 
247591 
247783 
247982 
248181 
248395 
248571 
248738 
248945 
249163 
249388 
249598 
249783 
250003 
250206 
250395 
250575 
250703 
250936 
251116 
251302 
251487 
251672 
251850 
252018 
252204 
252380 
252579 
252826 
253042 
253251 
253424 
253588 
253760 
253945 
254128 
254336 
254524 
254682 
254846 
255056 
255232 
255353 
255571 
255711 
255979 
256196 
256387 
256570 
256729 
256905 
257097 
257345 
257474 
257691 
257860 
258067 
258240 
258407 
258573 
258792 
259000 
259134 
259370 
259566 
259731 
259900 
260070 
260220 
260443 
260650 
260840 
261053 
261254 
261437 
261561 
261685 
261924 
262100 
262325 
262540 
262747 
262928 
263098 
263199 
263437 
263603 
263798 
263969 
264091 
264282 
264487 
264670 
264893 
265027 
265267 
265446 
265566 
265779 
265965 
266160 
266382 
266509 
266742 
266964 
267128 
267349 
267545 
267731 
267926 
268163 
268385 
268598 
268792 
268958 
269132 
269310 
269498 
269714 
269929 
270141 
270350 
270564 
270771 
270948 
271143 
271322 
271546 
271728 
271912 
272084 
272275 
272470 
272688 
272822 
272929 
273057 
273266 
273473 
273611 
273721 
273846 
274049 
274259 
274486 
274676 
274849 
275061 
275273 
275483 
275712 
275944 
276159 
276367 
276572 
276775 
276995 
277232 
277397 
277494 
277613 
277771 
277884 
277999 
278168 
278351 
278558 
278791 
279015 
279233 
279416 
279605 
279723 
279826 
279944 
280076 
280168 
280342 
280567 
280761 
280887 
280994 
281112 
281324 
281543 
281769 
282000 
282218 
282435 
282642 
282847 
283059 
283286 
283474 
283703 
283918 
284125 
284328 
284549 
284782 
285038 
285256 
285470 
285676 
285889 
286105 
286335 
286568 
286788 
287004 
287211 
287413 
287627 
287845 
288077 
288302 
288515 
288719 
288929 
289143 
289364 
289591 
289810 
290022 
290234 
290438 
290648 
290860 
291087 
291316 
291534 
291738 
291941 
292145 
292359 
292595 
292820 
293031 
293244 
293452 
293663 
293874 
294096 
294321 
294542 
294755 
294958 
295161 
295369 
295604 
295839 
296052 
296264 
296471 
296677 
296892 
297116 
297342 
297562 
297766 
297977 
298187 
298396 
298612 
298839 
299061 
299277 
299487 
299688 
299901 
300134 
300377 
300593 
300807 
301011 
301220 
301440 
301656 
301888 
302107 
302327 
302537 
302740 
302946 
303165 
303392 
303613 
303829 
304038 
304238 
304458 
304675 
304903 
305125 
305342 
305550 
305758 
305971 
306187 
306406 
306628 
306835 
307053 
307240 
307424 
307613 
307840 
308080 
308296 
308504 
308713 
308929 
309131 
309358 
309586 
309803 
310021 
310231 
310437 
310651 
310867 
311108 
311335 
311545 
311752 
311961 
312175 
312402 
312639 
312857 
313076 
313291 
313497 
313714 
313940 
314174 
314397 
314613 
314819 
315026 
315239 
315468 
315706 
315928 
316140 
316349 
316552 
316771 
317002 
317229 
317447 
317668 
317874 
318080 
318294 
318511 
318712 
318847 
319078 
319290 
319494 
319699 
319923 
320147 
320365 
320584 
320784 
320991 
321209 
321420 
321636 
321861 
322086 
322299 
322505 
322708 
322922 
323143 
323374 
323597 
323812 
324016 
324224 
324443 
324665 
324888 
325111 
325324 
325536 
325713 
325914 
326042 
326284 
326511 
326735 
326946 
327149 
327357 
327572 
327796 
328032 
328250 
328460 
328673 
328880 
329094 
329313 
329539 
329755 
329972 
330181 
330385 
330593 
330810 
331047 
331271 
331481 
331689 
331893 
332104 
332332 
332560 
332778 
332996 
333210 
333412 
333618 
333831 
334057 
334279 
334498 
334706 
334913 
335117 
335336 
335564 
335788 
336003 
336220 
336421 
336632 
336851 
337074 
337299 
337519 
337732 
337940 
338146 
338361 
338582 
338816 
339034 
339249 
339452 
339662 
339886 
340127 
340362 
340580 
340791 
341000 
341215 
341431 
341652 
341892 
342113 
342326 
342530 
342738 
342955 
343185 
343425 
343643 
343853 
344061 
344256 
344455 
344583 
344710 
344947 
345126 
345288 
345463 
345625 
345795 
345945 
346107 
346285 
346469 
346641 
346807 
346971 
347136 
347314 
347496 
347647 
347879 
348069 
348250 
348440 
348622 
348787 
348950 
349170 
349382 
349608 
349828 
350039 
350242 
350449 
350668 
350894 
351125 
351339 
351552 
351757 
351965 
352183 
352408 
352630 
352851 
353067 
353272 
353478 
353692 
353907 
354141 
354363 
354575 
354780 
354990 
355210 
355445 
355683 
355889 
356104 
356311 
356524 
356738 
356952 
357179 
357408 
357622 
357826 
358029 
358227 
358359 
358607 
358772 
359008 
359153 
359376 
359589 
359799 
360014 
360237 
360459 
360673 
360884 
361089 
361299 
361510 
361741 
361960 
362177 
362384 
362588 
362792 
363009 
363238 
363462 
363676 
363890 
364099 
364307 
364513 
364736 
364956 
365175 
365391 
365595 
365797 
366011 
366240 
366473 
366686 
366897 
367104 
367313 
367529 
367752 
367980 
368196 
368416 
368622 
368825 
369038 
369260 
369493 
369717 
369891 
370116 
370288 
370527 
370758 
371015 
371232 
371449 
371595 
371817 
372036 
372256 
372478 
372704 
372869 
373101 
373300 
373509 
373721 
373897 
374155 
374369 
374578 
374787 
374998 
375150 
375391 
375616 
375837 
376053 
376197 
376422 
376635 
376843 
377075 
377305 
377467 
377700 
377903 
378106 
378326 
378492 
378742 
378959 
379172 
379381 
379590 
379745 
379979 
380212 
380434 
380650 
380859 
381061 
381271 
381499 
381731 
381952 
382123 
382351 
382555 
382771 
382991 
383221 
383391 
383632 
383844 
384053 
384258 
384475 
384643 
384899 
385121 
385333 
385534 
385684 
385928 
386150 
386380 
386599 
386812 
386980 
387208 
387419 
387635 
387855 
388080 
388246 
388478 
388678 
388886 
389096 
389321 
389497 
389734 
389943 
390151 
390365 
390575 
390735 
390977 
391195 
391412 
391620 
391823 
391983 
392214 
392440 
392668 
392887 
393093 
393244 
393466 
393679 
393911 
394136 
394289 
394523 
394733 
394940 
395153 
395367 
395597 
395817 
396031 
396240 
396446 
396651 
396874 
397109 
397331 
397545 
397753 
397954 
398171 
398393 
398624 
398845 
399062 
399272 
399477 
399686 
399902 
400127 
400353 
400572 
400782 
400981 
401190 
401418 
401651 
401873 
402090 
402298 
402503 
402722 
402934 
403158 
403386 
403606 
403819 
404018 
404224 
404440 
404667 
404900 
405114 
405323 
405527 
405743 
405954 
406178 
406406 
406621 
406838 
407046 
407253 
407465 
407685 
407928 
408145 
408356 
408558 
408767 
408982 
409211 
409451 
409665 
409879 
410093 
410300 
410514 
410733 
410965 
411185 
411403 
411608 
411812 
412022 
412250 
412497 
412715 
412927 
413137 
413279 
413389 
413556 
413777 
414006 
414222 
414444 
414650 
414852 
415065 
415281 
415507 
415731 
415948 
416157 
416358 
416495 
416727 
416958 
417178 
417393 
417608 
417813 
418026 
418236 
418452 
418679 
418903 
419114 
419318 
419521 
419731 
419951 
420176 
420395 
420609 
420814 
421024 
421239 
421458 
421681 
421904 
422114 
422325 
422532 
422742 
422956 
423184 
423412 
423632 
423837 
424040 
424249 
424468 
424706 
424933 
425143 
425353 
425566 
425778 
425991 
426215 
426442 
426661 
426875 
427077 
427285 
427500 
427734 
427885 
428124 
428279 
428507 
428709 
428920 
429146 
429376 
429590 
429811 
430022 
430226 
430436 
430651 
430876 
431101 
431321 
431527 
431730 
431939 
432165 
432398 
432617 
432834 
433045 
433250 
433465 
433681 
433899 
434126 
434347 
434557 
434761 
434966 
435179 
435409 
435642 
435857 
436067 
436273 
436489 
436709 
436930 
437157 
437376 
437589 
437799 
438007 
438219 
438445 
438688 
438904 
439115 
439322 
439526 
439743 
439980 
440213 
440431 
440643 
440853 
441068 
441280 
441505 
441736 
441955 
442172 
442378 
442581 
442791 
443026 
443256 
443472 
443686 
443891 
444100 
444315 
444533 
444761 
444979 
445198 
445408 
445608 
445815 
446036 
446259 
446480 
446697 
446904 
447106 
447323 
447541 
447771 
447991 
448207 
448417 
448623 
448832 
449046 
449267 
449498 
449720 
449929 
450130 
450340 
450552 
450781 
451013 
451229 
451435 
451644 
451855 
452072 
452294 
452517 
452733 
452948 
453155 
453365 
453575 
453796 
454038 
454256 
454465 
454671 
454880 
455093 
455326 
455559 
455775 
455990 
456200 
456411 
456625 
456840 
457069 
457288 
457502 
457709 
457916 
458121 
458348 
458579 
458797 
459011 
459220 
459421 
459638 
459861 
460087 
460303 
460520 
460730 
460935 
461144 
461356 
461576 
461800 
462020 
