124 
290 
458 
621 
781 
939 
1093 
1251 
1410 
1579 
1750 
1913 
2075 
2239 
2399 
2562 
2723 
2876 
3041 
3209 
3379 
3551 
3719 
3885 
4044 
4204 
4359 
4522 
4697 
4870 
5042 
5209 
5372 
5538 
5706 
5865 
6028 
6194 
6365 
6533 
6695 
6862 
7033 
7198 
7365 
7526 
7700 
7881 
8061 
8234 
8401 
8570 
8737 
8898 
9060 
9237 
9408 
9579 
9745 
9910 
10077 
10238 
10399 
10548 
10709 
10880 
11047 
11210 
11379 
11542 
11703 
11858 
12014 
12180 
12348 
12517 
12680 
12842 
13004 
13160 
13321 
13481 
13606 
13787 
13955 
14121 
14287 
14449 
14608 
14766 
14919 
15072 
15230 
15396 
15570 
15746 
15909 
16072 
16230 
16390 
16551 
16701 
16864 
17026 
17175 
17352 
17511 
17675 
17836 
17990 
18120 
18290 
18455 
18625 
18793 
18955 
19112 
19271 
19430 
19583 
19731 
19889 
20055 
20221 
20382 
20542 
20705 
20865 
21020 
21169 
21322 
21481 
21647 
21814 
21978 
22143 
22306 
22469 
22627 
22785 
22958 
23132 
23305 
23475 
23641 
23806 
23968 
24110 
24288 
24444 
24608 
24775 
24947 
25114 
25275 
25435 
25590 
25710 
25879 
26045 
26212 
26382 
26542 
26707 
26865 
27023 
27184 
27339 
27492 
27649 
27815 
27981 
28139 
28299 
28461 
28617 
28773 
28920 
29078 
29245 
29413 
29579 
29737 
29897 
30052 
30177 
30360 
30518 
30689 
30862 
31024 
31198 
31365 
31532 
31691 
31849 
31999 
32158 
32321 
32488 
32654 
32818 
32976 
33132 
33288 
33447 
33603 
33766 
33936 
34100 
34263 
34426 
34589 
34751 
34912 
35064 
35226 
35389 
35557 
35728 
35891 
36053 
36210 
36370 
36530 
36680 
36849 
37023 
37193 
37360 
37521 
37683 
37842 
37970 
38140 
38296 
38456 
38617 
38778 
38938 
39100 
39262 
39418 
39570 
39723 
39886 
39986 
40088 
40222 
40341 
40511 
40674 
40832 
40985 
41136 
41295 
41459 
41625 
41790 
41953 
42113 
42277 
42434 
42592 
42742 
42900 
43068 
43236 
43405 
43573 
43733 
43892 
44051 
44215 
44378 
44548 
44724 
44895 
45062 
45232 
45401 
45569 
45735 
45890 
46056 
46223 
46393 
46566 
46729 
46890 
47046 
47204 
47359 
47519 
47690 
47864 
48027 
48189 
48351 
48515 
48678 
48835 
48991 
49152 
49317 
49451 
49636 
49799 
49963 
50120 
50273 
50422 
50582 
50757 
50930 
51101 
51263 
51430 
51594 
51752 
51915 
52075 
52239 
52410 
52575 
52740 
52905 
53067 
53230 
53385 
53534 
53699 
53868 
54039 
54211 
54376 
54543 
54701 
54860 
55024 
55180 
55346 
55511 
55678 
55844 
56002 
56162 
56320 
56470 
56617 
56769 
56930 
57095 
57255 
57408 
57563 
57713 
57864 
58017 
58164 
58321 
58488 
58650 
58810 
58963 
59118 
59274 
59424 
59575 
59717 
59874 
60035 
60194 
60356 
60512 
60672 
60822 
60965 
61124 
61274 
61438 
61601 
61766 
61921 
62075 
62233 
62385 
62539 
62695 
62847 
63006 
63166 
63327 
63490 
63648 
63803 
63956 
64105 
64249 
64399 
64552 
64645 
64750 
64869 
65020 
65169 
65317 
65462 
65609 
65758 
65897 
66047 
66156 
66325 
66479 
66625 
66772 
66918 
67065 
67206 
67343 
67485 
67607 
67779 
67935 
68080 
68225 
68342 
68500 
68640 
68777 
68913 
69057 
69207 
69353 
69501 
69642 
69783 
69926 
70070 
70209 
70347 
70475 
70619 
70767 
70913 
71058 
71202 
71347 
71486 
71625 
71759 
71894 
72029 
72174 
72317 
72462 
72603 
72742 
72878 
73018 
73152 
73289 
73425 
73557 
73696 
73834 
73979 
74125 
74270 
74413 
74551 
74688 
74821 
74958 
75090 
75230 
75375 
75520 
75669 
75807 
75946 
76083 
76219 
76320 
76466 
76602 
76747 
76890 
77032 
77171 
77316 
77452 
77593 
77729 
77866 
77999 
78126 
78226 
78375 
78527 
78678 
78818 
78954 
79090 
79227 
79362 
79496 
79626 
79765 
79910 
80019 
80165 
80312 
80451 
80592 
80732 
80868 
81005 
81137 
81267 
81407 
81554 
81696 
81842 
81983 
82128 
82268 
82407 
82542 
82679 
82822 
82969 
83119 
83266 
83415 
83556 
83703 
83844 
83965 
84129 
84267 
84411 
84559 
84709 
84861 
85013 
85159 
85305 
85442 
85581 
85724 
85863 
86011 
86160 
86312 
86458 
86600 
86739 
86878 
86981 
87149 
87287 
87423 
87562 
87712 
87860 
88004 
88147 
88260 
88427 
88566 
88705 
88837 
88939 
89093 
89246 
89391 
89538 
89644 
89791 
89929 
90078 
90211 
90349 
90485 
90631 
90777 
90902 
91060 
91202 
91346 
91488 
91584 
91746 
91882 
92013 
92157 
92301 
92452 
92601 
92744 
92856 
93017 
93155 
93292 
93428 
93567 
93711 
93859 
94000 
94144 
94283 
94423 
94536 
94696 
94837 
94971 
95108 
95251 
95399 
95548 
95690 
95837 
95978 
96119 
96258 
96372 
96524 
96666 
96761 
96943 
97112 
97255 
97395 
97533 
97671 
97813 
97950 
98056 
98214 
98358 
98502 
98649 
98754 
98906 
99048 
99194 
99330 
99467 
99594 
99731 
99870 
100023 
100164 
100309 
100442 
100560 
100713 
100851 
100989 
101122 
101232 
101399 
101550 
101695 
101838 
101982 
102132 
102272 
102402 
102549 
102684 
102826 
102975 
103122 
103274 
103424 
103568 
103712 
103854 
103996 
104142 
104285 
104437 
104596 
104749 
104904 
105058 
105209 
105321 
105504 
105661 
105806 
105960 
106113 
106274 
106437 
106588 
106742 
106859 
107031 
107183 
107324 
107482 
107642 
107806 
107914 
108009 
108102 
108196 
108291 
108387 
108482 
108598 
108695 
108792 
108889 
108986 
109083 
109180 
109277 
109355 
109454 
109551 
109665 
109802 
109958 
110107 
110250 
110389 
110542 
110705 
110818 
110911 
111065 
111222 
111376 
111530 
111685 
111842 
111998 
112160 
112331 
112502 
112670 
112838 
113001 
113145 
113318 
113469 
113635 
113804 
113974 
114145 
114304 
114464 
114623 
114785 
114946 
115105 
115273 
115434 
115612 
115778 
115945 
116113 
116280 
116440 
116597 
116763 
116940 
117117 
117287 
117453 
117617 
117780 
117941 
118099 
118268 
118443 
118613 
118779 
118942 
119111 
119247 
119439 
119595 
119766 
119937 
120106 
120278 
120442 
120605 
120771 
120932 
121088 
121255 
121433 
121608 
121773 
121936 
122104 
122264 
122425 
122588 
122744 
122912 
123081 
123252 
123422 
123588 
123711 
123899 
124065 
124219 
124383 
124553 
124722 
124890 
125054 
125215 
125345 
125532 
125696 
125854 
126016 
126186 
126354 
126515 
126679 
126842 
127007 
127168 
127322 
127490 
127666 
127841 
128009 
128172 
128333 
128490 
128626 
128797 
128959 
129125 
129287 
129450 
129610 
129777 
129898 
129997 
130143 
130336 
130506 
130678 
130844 
131013 
131174 
131334 
131492 
131647 
131802 
131940 
132121 
132291 
132457 
132621 
132765 
132946 
133110 
133273 
133432 
133559 
133760 
133928 
134100 
134268 
134429 
134589 
134748 
134906 
135062 
135229 
135401 
135572 
135733 
135895 
136055 
136217 
136382 
136541 
136710 
136880 
137050 
137222 
137388 
137555 
137721 
137883 
138036 
138199 
138374 
138548 
138715 
138879 
139044 
139191 
139360 
139521 
139680 
139848 
140017 
140184 
140346 
140511 
140676 
140837 
140995 
141147 
141312 
141466 
141655 
141827 
141997 
142163 
142269 
142360 
142460 
142571 
142711 
142832 
142932 
143035 
143135 
143235 
143336 
143431 
143530 
143624 
143722 
143820 
143915 
144014 
144112 
144201 
144299 
144395 
144492 
144593 
144693 
144794 
144897 
144994 
145093 
145190 
145283 
145377 
145470 
145584 
145681 
145778 
145875 
145972 
146069 
146166 
146263 
146360 
146457 
146554 
146651 
146748 
146845 
146942 
147039 
147186 
147277 
147371 
147470 
147570 
147668 
147769 
147864 
147961 
148058 
148155 
148254 
148349 
148443 
148538 
148634 
148744 
148841 
148938 
149035 
149113 
149211 
149315 
149450 
149606 
149758 
149913 
150062 
150219 
150378 
150547 
150721 
150897 
151073 
151251 
151419 
151588 
151749 
151903 
152026 
152226 
152400 
152570 
152729 
152889 
153045 
153202 
153358 
153468 
153563 
153664 
153762 
153858 
153958 
154057 
154155 
154253 
154352 
154451 
154548 
154646 
154746 
154840 
154933 
155030 
155129 
155229 
155329 
155426 
155527 
155625 
155719 
155819 
155914 
156010 
156105 
156197 
156291 
156406 
156503 
156600 
156697 
156794 
156891 
156988 
157085 
157182 
157279 
157376 
157473 
157570 
157667 
157813 
157905 
158013 
158110 
158207 
158304 
158401 
158480 
158577 
158674 
158773 
158871 
158972 
159097 
159237 
159376 
159508 
159650 
159806 
159968 
160142 
160312 
160486 
160667 
160843 
161018 
161192 
161370 
161549 
161725 
161898 
162068 
162229 
162386 
162546 
162701 
162866 
163034 
163158 
163358 
163519 
163678 
163833 
163988 
164141 
164302 
164468 
164628 
164790 
164952 
165108 
165268 
165398 
165576 
165728 
165886 
166051 
166204 
166383 
166539 
166696 
166850 
166970 
167143 
167300 
167469 
167642 
167807 
167969 
168127 
168287 
168447 
168602 
168754 
168912 
169078 
169231 
169408 
169570 
169736 
169891 
170022 
170197 
170352 
170519 
170683 
170820 
171004 
171162 
171325 
171482 
171641 
171794 
171944 
172105 
172262 
172421 
172579 
172737 
172890 
173041 
173192 
173339 
173495 
173654 
173818 
173987 
174146 
174302 
174456 
174614 
174774 
174924 
175085 
175236 
175411 
175575 
175731 
175891 
176051 
176204 
176359 
176508 
176669 
176838 
177006 
177170 
177324 
177480 
177639 
177792 
177943 
178100 
178267 
178430 
178590 
178748 
178910 
179073 
179226 
179382 
179532 
179685 
179858 
180022 
180189 
180350 
180509 
180666 
180818 
180973 
181100 
181287 
181456 
181616 
181777 
181911 
182086 
182244 
182401 
182554 
182670 
182853 
183021 
183192 
183357 
183515 
183675 
183829 
183983 
184135 
184295 
184463 
184631 
184793 
184954 
185112 
185272 
185435 
185593 
185749 
185912 
186083 
186252 
186414 
186576 
186741 
186901 
187044 
187210 
187376 
187548 
187718 
187837 
187940 
188079 
188200 
188295 
188394 
188487 
188583 
188678 
188770 
188870 
188972 
189073 
189176 
189278 
189378 
189476 
189575 
189675 
189777 
189872 
189967 
190063 
190156 
190268 
190365 
190462 
190559 
190656 
190753 
190850 
190947 
191044 
191141 
191238 
191335 
191432 
191529 
191674 
191817 
191968 
192117 
192265 
192407 
192550 
192692 
192832 
192974 
193115 
193262 
193351 
193544 
193705 
193873 
194043 
194202 
194362 
194515 
194669 
194823 
194969 
195133 
195296 
195457 
195611 
195763 
195911 
196049 
196210 
196358 
196502 
196649 
196801 
196957 
197109 
197256 
197406 
197556 
197700 
197842 
197980 
198131 
198291 
198445 
198554 
198730 
198882 
199029 
199179 
199293 
199457 
199617 
199783 
199954 
200122 
200287 
200458 
200595 
200781 
200940 
201096 
201263 
201427 
201594 
201760 
201922 
202084 
202240 
202400 
202555 
202665 
202816 
202940 
203044 
203149 
203249 
203347 
203446 
203543 
203645 
203739 
203835 
203931 
204022 
204135 
204232 
204329 
204426 
204523 
204606 
204712 
204813 
204907 
205004 
205095 
205206 
205303 
205428 
205600 
205751 
205906 
206064 
206210 
206367 
206515 
206671 
206831 
206953 
207138 
207238 
207390 
207521 
207632 
207795 
207959 
208123 
208282 
208432 
208596 
208750 
208918 
209087 
209214 
209408 
209572 
209734 
209888 
210047 
210201 
210362 
210524 
210688 
210851 
211014 
211176 
211333 
211491 
211648 
211800 
211963 
212133 
212304 
212474 
212634 
212798 
212955 
213116 
213277 
213438 
213607 
213776 
213945 
214111 
214276 
214439 
214587 
214762 
214921 
215091 
215266 
215442 
215608 
215773 
215937 
216087 
216271 
216433 
216601 
216772 
216937 
217100 
217255 
217418 
217582 
217741 
217840 
217958 
218045 
218217 
218374 
218495 
218705 
218876 
219032 
219158 
219337 
219492 
219655 
219821 
219986 
220144 
220298 
220457 
220611 
220719 
220864 
220978 
221075 
221172 
221272 
221371 
221468 
221566 
221668 
221768 
221868 
221964 
222063 
222161 
222255 
222391 
222568 
222726 
222887 
223045 
223203 
223349 
223500 
223646 
223793 
223944 
224088 
224245 
224402 
224564 
224720 
224877 
225033 
225188 
225344 
225482 
225637 
225790 
225952 
226112 
226281 
226440 
226595 
226751 
226895 
227059 
227214 
227377 
227539 
227666 
227853 
228006 
228170 
228300 
228476 
228629 
228778 
228937 
229103 
229264 
229425 
229587 
229740 
229895 
230047 
230198 
230347 
230519 
230685 
230842 
230998 
231138 
231304 
231459 
231608 
231754 
231906 
232065 
232220 
232376 
232533 
232684 
232835 
232978 
233127 
233272 
233425 
233585 
233750 
233914 
234073 
234230 
234385 
234548 
234706 
234861 
235026 
235155 
235353 
235523 
235689 
235852 
236013 
236170 
236323 
236480 
236609 
236811 
236979 
237139 
237296 
237453 
237611 
237764 
237916 
238068 
238243 
238406 
238568 
238727 
238890 
239050 
239210 
239365 
239520 
239690 
239858 
240028 
240192 
240354 
240514 
240666 
240790 
240963 
241129 
241296 
241461 
241625 
241785 
241944 
242102 
242260 
242418 
242567 
242727 
242893 
243063 
243234 
243395 
243547 
243715 
243874 
244030 
244194 
244327 
244536 
244711 
244880 
245044 
245211 
245382 
245542 
245707 
245876 
246046 
246216 
246360 
246534 
246697 
246855 
247018 
247123 
247317 
247500 
247673 
247805 
247983 
248150 
248317 
248473 
248629 
248796 
248967 
249143 
249312 
249481 
249655 
249796 
249981 
250141 
250304 
250475 
250647 
250821 
250993 
251159 
251325 
251485 
251646 
251806 
251972 
252141 
252305 
252469 
252630 
252784 
252921 
253098 
253251 
253416 
253584 
253759 
253936 
254100 
254269 
254432 
254597 
254759 
254920 
255104 
255286 
255460 
255607 
255793 
255964 
256137 
256297 
256422 
256614 
256792 
256962 
257127 
257293 
257457 
257614 
257771 
257924 
258092 
258264 
258431 
258597 
258754 
258919 
259080 
259242 
259398 
259567 
259736 
259909 
260080 
260252 
260424 
260588 
260745 
260884 
261059 
261227 
261399 
261568 
261710 
261891 
262052 
262213 
262374 
262522 
262694 
262863 
263032 
263196 
263356 
263521 
263679 
263837 
263987 
264144 
264305 
264475 
264639 
264801 
264964 
265121 
265277 
265434 
265586 
265751 
265921 
266084 
266247 
266402 
266561 
266719 
266871 
267026 
267171 
267330 
267495 
267658 
267823 
267982 
268140 
268298 
268450 
268605 
268770 
268941 
269109 
269273 
269432 
269592 
269750 
269911 
270053 
270220 
270385 
270552 
270715 
270877 
271044 
271207 
271368 
271522 
271674 
271837 
272002 
272170 
272337 
272494 
272652 
272803 
272960 
273119 
273267 
273427 
273588 
273751 
273915 
274070 
274233 
274392 
274512 
274683 
274837 
275000 
275169 
275339 
275504 
275662 
275821 
275978 
276135 
276288 
276450 
276622 
276789 
276955 
277115 
277278 
277439 
277593 
277750 
277898 
278058 
278222 
278384 
278551 
278713 
278870 
279021 
279179 
279332 
279510 
279684 
279855 
280016 
280175 
280340 
280498 
280657 
280814 
280966 
281109 
281285 
281450 
281614 
281772 
281887 
282068 
282224 
282376 
282528 
282688 
282856 
283023 
283182 
283342 
283497 
283654 
283812 
283962 
284121 
284281 
284448 
284617 
284776 
284941 
285103 
285265 
285423 
285574 
285740 
285913 
286083 
286248 
286407 
286534 
286718 
286878 
287033 
287175 
287358 
287527 
287694 
287856 
288001 
288186 
288346 
288503 
288656 
288821 
288987 
289153 
289317 
289465 
289634 
289790 
289945 
290099 
290261 
290425 
290594 
290758 
290918 
291082 
291243 
291405 
291567 
291711 
291888 
292053 
292222 
292394 
292554 
292716 
292874 
293033 
293187 
293348 
293519 
293693 
293858 
294020 
294182 
294346 
294470 
294651 
294811 
294973 
295137 
295306 
295470 
295631 
295793 
295949 
296067 
296243 
296407 
296578 
296746 
296912 
297069 
297231 
297391 
297546 
297705 
297864 
298029 
298198 
298367 
298535 
298703 
298866 
299029 
299185 
299338 
299504 
299670 
299842 
300011 
300174 
300337 
300493 
300651 
300771 
300952 
301120 
301285 
301454 
301621 
301781 
301945 
302097 
302268 
302420 
302582 
302708 
302901 
303079 
303242 
303404 
303562 
303719 
303878 
304035 
304191 
304372 
304541 
304706 
304842 
305027 
305193 
305350 
305502 
305663 
305828 
305994 
306160 
306322 
306487 
306643 
306801 
306956 
307110 
307279 
307447 
307617 
307741 
307918 
308086 
308244 
308405 
308561 
308725 
308893 
309056 
309225 
309392 
309554 
309713 
309860 
310027 
310182 
310346 
310498 
310685 
310852 
311018 
311179 
311339 
311501 
311656 
311823 
311988 
312146 
312326 
312486 
312652 
312815 
312978 
313135 
313292 
313461 
313593 
313792 
313958 
314118 
314277 
314433 
314587 
314741 
314905 
315032 
315226 
315395 
315554 
315716 
315880 
316038 
316193 
316344 
316506 
316676 
316839 
316999 
317166 
317322 
317477 
317629 
317779 
317944 
318107 
318274 
318436 
318595 
318758 
318914 
319051 
319228 
319381 
319544 
319708 
319872 
320039 
320199 
320359 
320512 
320667 
320817 
320972 
321136 
321303 
321469 
321629 
321787 
321944 
322104 
322262 
322412 
322549 
322731 
322895 
323060 
323220 
323381 
323541 
323697 
323854 
324004 
324168 
324340 
324507 
324671 
324828 
324988 
325145 
325305 
325457 
325623 
325788 
325954 
326117 
326280 
326446 
326603 
326760 
326912 
327063 
327227 
327390 
327556 
327719 
327830 
327996 
328154 
328306 
328461 
328614 
328774 
328937 
329098 
329261 
329423 
329583 
329743 
329904 
330057 
330219 
330386 
330559 
330699 
330889 
331058 
331217 
331375 
331535 
331689 
331856 
332028 
332182 
332358 
332516 
332675 
332837 
332994 
333149 
333310 
333480 
333654 
333820 
333946 
334143 
334306 
334466 
334622 
334780 
334951 
335119 
335289 
335448 
335608 
335772 
335930 
336092 
336248 
336415 
336589 
336756 
336926 
337097 
337238 
337417 
337576 
337732 
337897 
338062 
338236 
338409 
338572 
338737 
338897 
339057 
339219 
339376 
339537 
339706 
339871 
340037 
340197 
340336 
340516 
340679 
340833 
340955 
341150 
341327 
341498 
341658 
341820 
341980 
342138 
342294 
342450 
342617 
342786 
342950 
343112 
343273 
343435 
343597 
343755 
343908 
344069 
344239 
344410 
344581 
344746 
344916 
345080 
345241 
345394 
345560 
345734 
345903 
346074 
346236 
346399 
346560 
346718 
346884 
347043 
347209 
347380 
347551 
347722 
347890 
348055 
348215 
348374 
348529 
348693 
348865 
349036 
349208 
349372 
349533 
349679 
349863 
350022 
350187 
350356 
350527 
350697 
350858 
351028 
351192 
351350 
351510 
351663 
351830 
352004 
352176 
352342 
352502 
352664 
352828 
352985 
353139 
353308 
353478 
353645 
353810 
353970 
354136 
354295 
354454 
354605 
354761 
354927 
355093 
355263 
355429 
355589 
355750 
355907 
356065 
356221 
356386 
356553 
356717 
356883 
357045 
357174 
357358 
357518 
357674 
357828 
357953 
358139 
358314 
358482 
358644 
358806 
358966 
359124 
359276 
359443 
359613 
359785 
359953 
360080 
360263 
360432 
360598 
360755 
360877 
361057 
361230 
361400 
361523 
361706 
361878 
362038 
362196 
362349 
362517 
362691 
362860 
363030 
363190 
363348 
363509 
363668 
363825 
363987 
364152 
364324 
364489 
364652 
364817 
364974 
365135 
365290 
365443 
365609 
365777 
365950 
366123 
366284 
366447 
366606 
366768 
366926 
367088 
367258 
367425 
367593 
367757 
367918 
368080 
368242 
368401 
368554 
368718 
368889 
369064 
369233 
369400 
369561 
369723 
369887 
370040 
370195 
370382 
370551 
370719 
370878 
371041 
371204 
371363 
371519 
371675 
371840 
372012 
372179 
372344 
372510 
372669 
372830 
372984 
373137 
373306 
373475 
373645 
373807 
373967 
374128 
374283 
374444 
374598 
374738 
374920 
375088 
375256 
375420 
375585 
375746 
375903 
376059 
376212 
376376 
376547 
376715 
376884 
377043 
377203 
377360 
377506 
377675 
377836 
378003 
378173 
378339 
378499 
378664 
378827 
378990 
379146 
379299 
379466 
379640 
379812 
379979 
380139 
380297 
380449 
380610 
380763 
380924 
381094 
381259 
381424 
381581 
381743 
381907 
382064 
382222 
382376 
382538 
382707 
382875 
383041 
383204 
383363 
383524 
383682 
383838 
384008 
384178 
384349 
384516 
384656 
384839 
385003 
385162 
385324 
385439 
385633 
385806 
385979 
386149 
386310 
386471 
386630 
386787 
386940 
387107 
387278 
387448 
387612 
387774 
387938 
388065 
388247 
388408 
388571 
388739 
388910 
389081 
389248 
389415 
389583 
389745 
389903 
390057 
390230 
390407 
390577 
390744 
390878 
391066 
391230 
391393 
391500 
391653 
391776 
391883 
391990 
392095 
392200 
392310 
392464 
392670 
392837 
392992 
393146 
393312 
393478 
393643 
393808 
393966 
394124 
394278 
394437 
394594 
394757 
394896 
395089 
395260 
395426 
395590 
395754 
395919 
396077 
396204 
396394 
396566 
396740 
396906 
397069 
397226 
397386 
397536 
397697 
397865 
398039 
398209 
398339 
398524 
398689 
398850 
398989 
399162 
399321 
399490 
399662 
399833 
400002 
400169 
400333 
400499 
400657 
400816 
400991 
401165 
401336 
401499 
401662 
401829 
401957 
402141 
402301 
402466 
402586 
402774 
402949 
403115 
403278 
403441 
403599 
403757 
403913 
404067 
404252 
404421 
404588 
404753 
404912 
405071 
405235 
405393 
405559 
405725 
405894 
406064 
406224 
406391 
406557 
406716 
406868 
407029 
407196 
407357 
407536 
407698 
407858 
408017 
408177 
408335 
408492 
408659 
408788 
408988 
409157 
409320 
409486 
409649 
409810 
409960 
410125 
410266 
410453 
410620 
410781 
410898 
411058 
411215 
411367 
411515 
411677 
411839 
412004 
412164 
412318 
412476 
412628 
412782 
412936 
413083 
413242 
413402 
413547 
413648 
413726 
413886 
414043 
414194 
414320 
414492 
414642 
414805 
414970 
415134 
415292 
415447 
415601 
415756 
415911 
416059 
416213 
416370 
416529 
416698 
416857 
417017 
417176 
417317 
417484 
417630 
417792 
417961 
418107 
418291 
418449 
418610 
418767 
418920 
419076 
419177 
419390 
419551 
419713 
419873 
420030 
420173 
420342 
420498 
420649 
420797 
420948 
421119 
421284 
421446 
421600 
421755 
421904 
422057 
422208 
422364 
422527 
422688 
422854 
423014 
423172 
423329 
423481 
423636 
423776 
423928 
424081 
424239 
424398 
424550 
424702 
424847 
424993 
425139 
425279 
425428 
425580 
425714 
425886 
426041 
426186 
426335 
426485 
426633 
426782 
426925 
427082 
427241 
427403 
427563 
427676 
427850 
428009 
428163 
428312 
428460 
428618 
428782 
428943 
429080 
429245 
429400 
429552 
429662 
429838 
429991 
430147 
430310 
430465 
430627 
430786 
430919 
431094 
431247 
431403 
431553 
431712 
431879 
432043 
432205 
432358 
432513 
432663 
432816 
432959 
433114 
433277 
433432 
433560 
433737 
433893 
434052 
434209 
434367 
434517 
434671 
434833 
434967 
435158 
435317 
435473 
435625 
435775 
435927 
436070 
436220 
436385 
436543 
436702 
436854 
436975 
437147 
437305 
437461 
437605 
437761 
437921 
438084 
438249 
438409 
438573 
438729 
438839 
438987 
439104 
439204 
439311 
439421 
439572 
439703 
439812 
439918 
440068 
440193 
440293 
440396 
440498 
440599 
440693 
440795 
440904 
441012 
441161 
441370 
441537 
441695 
441835 
441992 
442142 
442291 
442412 
442595 
442771 
442935 
443095 
443254 
443418 
443582 
443723 
443896 
444065 
444236 
444407 
444574 
444742 
444908 
445069 
445230 
445389 
445563 
445744 
445880 
446079 
446253 
446424 
446590 
446757 
446921 
447093 
447232 
447432 
447605 
447778 
447946 
448114 
448277 
448438 
448609 
448789 
448964 
449135 
449254 
449399 
449519 
449619 
449720 
449822 
449923 
450077 
450297 
450471 
450639 
450804 
450969 
451134 
451274 
451449 
451616 
451789 
451965 
452139 
452303 
452470 
452622 
452789 
452945 
453112 
453283 
453455 
453624 
453789 
453955 
454121 
454286 
454450 
454607 
454740 
454940 
455115 
455286 
455454 
455621 
455786 
455948 
456110 
456287 
456465 
456644 
456815 
456962 
457147 
457309 
457475 
457637 
457805 
457977 
458141 
458282 
458470 
458634 
458794 
458909 
459084 
459253 
459419 
459594 
459767 
459932 
460102 
460266 
460393 
460587 
460752 
460927 
461098 
461267 
461438 
461606 
461775 
461946 
462109 
