4.359375 1.1836309999999999 0.43415 -0.749481
4.59375 0.26456999999999997 -0.60543 -0.87
5.34375 1.129609 0.244609 -0.885
6.33984375 1.15778 0.41 -0.74778
7.33984375 1.14033 0.420555 -0.719775
8.3671875 1.0545529999999999 0.2098 -0.844753
9.390625 1.053062 0.091902 -0.96116
10.390625 1.0575 0.08 -0.9775
11.421875 1.133079 -0.045879 -1.178958
12.3984375 0.9048 -0.825059 -1.729859
13.39453125 0.914949 -0.490051 -1.405
14.4140625 0.952638 -0.04037 -0.993008
15.40234375 1.112139 0.582139 -0.53
16.39453125 0.9837750000000001 0.829979 -0.153796
17.40234375 0.938342 0.499306 -0.439036
18.40625 0.856581 0.152237 -0.704344
19.40234375 0.934369 0.069369 -0.865
20.3984375 0.900498 -0.008342 -0.90884
21.38671875 0.9610029999999999 0.046827 -0.914176
22.359375 1.033301 0.143301 -0.89
23.328125 1.047626 0.201865 -0.845761
24.30078125 1.003053 0.071062 -0.931991
25.28515625 0.90197 -0.122318 -1.024288
26.25390625 0.9851459999999999 -0.024607 -1.009753
27.21484375 1.0883749999999999 0.128375 -0.96
28.22265625 0.9995649999999999 0.08 -0.919565
29.19921875 1.004533 0.039533 -0.965
30.1640625 0.984976 0.124976 -0.86
31.17578125 0.9349999999999999 -0.0050 -0.94
32.16015625 0.922477 -0.027523 -0.95
33.1484375 1.033072 0.163072 -0.87
34.15234375 1.0002790000000001 0.088136 -0.912143
35.15625 0.9272889999999999 -0.012464 -0.939753
36.171875 1.076382 0.194663 -0.881719
37.2109375 1.078405 0.184795 -0.89361
38.23828125 1.016575 0.089308 -0.927267
39.28515625 1.053755 0.148755 -0.905
40.3203125 1.02071 0.159429 -0.861281
41.359375 1.02776 0.237884 -0.789876
42.4140625 0.9797130000000001 0.304769 -0.674944
43.4375 1.030577 0.3765 -0.654077
44.46484375 1.045 0.355 -0.69
45.515625 1.044551 0.258301 -0.78625
46.51953125 1.020271 -0.034729 -1.055
47.54296875 1.0014800000000001 -0.027556 -1.029036
48.5625 0.945446 -0.139554 -1.085
49.5546875 1.0009730000000001 -0.013027 -1.014
50.53125 0.941939 0.023814 -0.918125
51.5 0.954968 0.13 -0.824968
52.46484375 1.021878 0.249312 -0.772566
53.4609375 1.045967 0.279912 -0.766055
54.4453125 0.962341 0.222341 -0.74
55.42578125 0.9782689999999999 0.273925 -0.704344
56.4453125 1.085695 0.425695 -0.66
57.453125 1.103657 0.399678 -0.703979
58.46875 1.061302 0.287372 -0.77393
59.50390625 0.9732120000000001 0.151846 -0.821366
60.49609375 1.063129 0.281023 -0.782106
61.53125 0.9804039999999999 0.136953 -0.843451
62.5546875 1.0508739999999999 0.20384 -0.847034
63.55078125 1.072968 0.208004 -0.864964
64.55859375 1.025862 0.159949 -0.865913
65.56640625 1.035784 0.155784 -0.88
66.55859375 1.149822 0.27983 -0.869992
67.5390625 1.079887 0.194887 -0.885
68.5 1.105 0.155 -0.95
69.45703125 1.012422 -0.022578 -1.035
70.453125 0.986724 -0.015211 -1.001935
71.43359375 1.113702 0.184803 -0.928899
72.41015625 1.1416089999999999 0.202593 -0.939016
73.4296875 1.074027 0.199683 -0.874344
74.421875 0.984561 0.069561 -0.915
75.40234375 1.0585930000000001 0.153593 -0.905
76.421875 0.9433 0.044612 -0.898688
77.4296875 1.0611009999999998 0.125 -0.936101
78.4453125 0.994892 0.024937 -0.969955
79.46875 1.099362 0.234609 -0.864753
80.4765625 1.053598 0.206948 -0.84665
81.50390625 1.059077 0.104077 -0.955
82.54296875 0.9898879999999999 -0.02 -1.009888
83.578125 1.108006 0.049396 -1.05861
84.60546875 1.008943 -0.059741 -1.068684
85.640625 0.988236 -0.034091 -1.022327
86.66796875 1.107631 0.324588 -0.783043
87.72265625 1.092876 0.209046 -0.88383
88.74609375 1.042697 0.087697 -0.955
89.765625 1.061715 0.179187 -0.882528
90.8046875 1.049851 0.169851 -0.88
91.83984375 0.961223 -0.028458 -0.989681
92.83984375 0.997762 0.013375 -0.984387
93.83984375 1.004574 0.095 -0.909574
94.859375 0.940079 -0.003239 -0.943318
95.890625 1.020385 0.150385 -0.87
96.91015625 0.9777899999999999 0.063375 -0.914415
97.91796875 1.1136059999999999 0.249938 -0.863668
98.95703125 0.989916 0.189916 -0.8
99.98046875 1.0984880000000001 0.274983 -0.823505
100.984375 1.1010659999999999 0.284922 -0.816144
102.015625 1.083123 0.228317 -0.854806
103.03515625 1.079172 0.214953 -0.864219
104.06640625 1.018666 0.099185 -0.919481
105.11328125 1.044968 0.12 -0.924968
106.13671875 1.070335 0.134698 -0.935637
107.1796875 1.055524 0.147452 -0.908072
108.2109375 1.003236 0.094795 -0.908441
109.203125 0.998008 0.094854 -0.903154
110.20703125 0.981756 0.032075 -0.949681
111.1953125 0.998834 0.033844 -0.96499
112.1875 0.95381 -0.006176 -0.959986
113.1796875 0.984506 0.051248 -0.933258
114.14453125 0.97805 0.089978 -0.888072
115.11328125 1.0483230000000001 0.148411 -0.899912
116.125 1.016068 0.12 -0.896068
117.1171875 0.9900089999999999 0.083374 -0.906635
118.0859375 0.999698 0.109945 -0.889753
119.0703125 1.00499 0.12 -0.88499
120.03515625 1.033684 0.21 -0.823684
121.02734375 1.031641 0.19807 -0.833571
122.01171875 1.021805 0.186681 -0.835124
123.00390625 0.990131 0.130412 -0.859719
124.00390625 0.960838 0.140838 -0.82
125.01953125 0.9500000000000001 0.055 -0.895
126.0234375 1.041766 0.06828 -0.973486
126.9921875 1.051247 0.172451 -0.878796
127.98046875 1.009973 0.089973 -0.92
128.9609375 1.024911 0.049911 -0.975
129.9453125 0.9693280000000001 0.025251 -0.944077
130.9140625 0.979552 0.05472 -0.924832
131.87109375 0.9103319999999999 -0.006152 -0.916484
132.83203125 1.059938 0.179938 -0.88
133.77734375 1.053817 0.148817 -0.905
134.703125 1.04486 0.161012 -0.883848
135.6484375 1.070514 0.170514 -0.9
136.59765625 1.083161 0.175 -0.908161
137.5546875 1.02346 0.156888 -0.866572
138.53125 1.0252970000000001 0.110297 -0.915
139.49609375 0.990884 0.052566 -0.938318
140.46875 1.013227 0.093864 -0.919363
141.4453125 0.9314330000000001 0.016433 -0.915
142.3828125 1.019689 0.244777 -0.774912
143.33203125 1.048047 0.261004 -0.787043
144.28515625 1.00834 0.212639 -0.795701
145.21484375 1.003219 0.135 -0.868219
146.12109375 1.02866 0.167696 -0.860964
147.05859375 1.058774 0.12 -0.938774
147.99609375 1.072946 0.118058 -0.954888
148.94921875 0.998895 0.017281 -0.981614
149.953125 1.068845 0.11386 -0.954985
150.9453125 1.0931540000000002 -0.025 -1.118154
151.9453125 1.1260659999999998 -0.06255 -1.188616
152.96484375 1.077176 -0.007309 -1.084485
153.95703125 1.109965 0.080391 -1.029574
154.9453125 1.0863070000000001 0.16745 -0.918857
155.94921875 1.049869 0.203956 -0.845913
156.921875 0.993026 0.238682 -0.754344
157.89453125 1.024036 0.235 -0.789036
158.87109375 1.087335 0.287335 -0.8
159.83984375 1.111497 0.286861 -0.824636
160.796875 1.07455 0.189775 -0.884775
161.75 1.044719 0.17 -0.874719
162.71875 1.052646 0.174205 -0.878441
163.6875 0.998625 0.028625 -0.97
164.671875 0.969895 -0.075105 -1.045
165.625 1.00493 -0.025 -1.02993
166.59765625 1.014051 -0.030499 -1.04455
167.5703125 1.009066 0.042986 -0.96608
168.51953125 1.0099779999999998 0.004978 -1.005
169.46875 1.02165 0.045 -0.97665
170.41796875 1.043517 0.142653 -0.900864
171.37109375 1.042697 0.138127 -0.90457
172.33203125 1.049539 0.01 -1.039539
173.2890625 1.033888 0.034113 -0.999775
174.23046875 1.004994 -0.135006 -1.14
175.16796875 0.965373 -0.323704 -1.289077
176.08984375 1.0665099999999998 -0.142338 -1.208848
177.03515625 0.964968 0.03 -0.934968
177.94140625 0.959948 0.024948 -0.935
178.8515625 0.977988 0.038144 -0.939844
179.765625 1.031652 0.145508 -0.886144
180.6953125 1.08728 0.39228 -0.695
181.640625 1.0834860000000002 0.395 -0.688486
182.5859375 1.0903200000000002 0.4 -0.69032
183.546875 1.0805660000000001 0.336035 -0.744531
184.50390625 1.0829659999999999 0.248078 -0.834888
185.46875 1.011372 0.002372 -1.009
186.42578125 1.049719 -0.075 -1.124719
187.37109375 0.9778119999999999 -0.129869 -1.107681
188.32421875 1.024138 -0.071116 -1.095254
189.28515625 1.055 0.025 -1.03
190.21875 1.057204 0.134645 -0.922559
191.15234375 1.0628710000000001 0.043082 -1.019789
192.1328125 1.048192 -0.015515 -1.063707
193.10546875 0.979745 -0.085022 -1.064767
194.046875 0.9993259999999999 -0.060346 -1.059672
195.01171875 1.0322479999999998 0.007248 -1.025
195.98046875 0.974793 0.069984 -0.904809
196.9765625 0.963292 0.052972 -0.91032
198.0 0.9436340000000001 0.055 -0.888634
198.95703125 0.923264 0.047944 -0.87532
199.94140625 0.903687 -0.035292 -0.938979
200.9765625 0.917999 -0.025 -0.942999
201.98828125 0.94765 0.023499 -0.924151
202.9921875 1.019146 0.12278 -0.896366
204.03515625 0.919481 0.05 -0.869481
205.0703125 0.907207 0.067221 -0.839986
206.11328125 0.889272 0.059272 -0.83
207.1328125 0.934734 -0.025 -0.959734
208.1328125 0.987009 0.109275 -0.877734
209.16796875 0.875868 -0.053351 -0.929219
210.19140625 0.969837 0.10988 -0.859957
211.1796875 0.857044 -0.13384 -0.990884
212.19921875 0.8783610000000001 -0.328755 -1.207116
213.19921875 0.894177 -0.19049 -1.084667
214.1953125 0.9777070000000001 -0.100711 -1.078418
215.19921875 0.915602 -0.107593 -1.023195
216.171875 0.9989070000000001 -0.185993 -1.1849
217.14453125 0.969303 -0.265041 -1.234344
218.1328125 0.966252 -0.107052 -1.073304
219.1015625 0.9922749999999999 -0.030879 -1.023154
220.05859375 0.944516 -0.045484 -0.99
221.03125 0.9962840000000001 0.036 -0.960284
221.9921875 0.947924 0.017992 -0.929932
222.95703125 0.9749789999999999 0.074576 -0.900403
223.9296875 0.979906 0.113688 -0.866218
224.89453125 1.0 0.11 -0.89
225.8671875 0.944161 0.034275 -0.909886
226.8203125 0.989051 0.094051 -0.895
227.77734375 1.014386 0.144855 -0.869531
228.73046875 0.975161 0.100161 -0.875
229.6953125 1.049077 0.125 -0.924077
230.66796875 0.963157 0.124438 -0.838719
231.63671875 1.03653 0.246614 -0.789916
232.61328125 1.006414 0.141827 -0.864587
233.5703125 0.997416 0.028486 -0.96893
234.5546875 1.006065 0.098128 -0.907937
235.515625 1.039815 0.310257 -0.729558
236.5 1.002108 0.255 -0.747108
237.46875 0.9997750000000001 0.117461 -0.882314
238.42578125 0.978644 -0.13 -1.108644
239.36328125 1.031612 -0.033242 -1.064854
240.30859375 1.033521 -0.165 -1.198521
241.26171875 1.013935 -0.955977 -1.969912
242.203125 1.074805 -0.585195 -1.66
243.1640625 1.045866 -0.240305 -1.286171
244.09765625 1.061902 0.059402 -1.0025
245.046875 1.164365 0.399365 -0.765
246.01171875 1.069504 0.549719 -0.519785
246.9765625 1.066276 0.671276 -0.395
247.96484375 1.0243389999999999 0.669339 -0.355
248.9609375 1.009729 0.679976 -0.329753
249.9453125 1.076289 0.482331 -0.593958
250.94921875 0.989253 0.339253 -0.65
251.96875 1.067782 0.673641 -0.394141
252.96875 0.8883620000000001 0.608812 -0.27955
253.9296875 0.9082920000000001 0.223292 -0.685
254.921875 0.927733 -0.1 -1.027733
255.89453125 0.900069 -0.2 -1.100069
256.8515625 1.023245 0.003245 -1.02
257.81640625 1.092509 0.119943 -0.972566
258.78125 0.9835330000000001 -0.6224 -1.605933
259.75390625 0.9632769999999999 -0.489223 -1.4525
260.74609375 1.016919 -0.257957 -1.274876
261.72265625 1.05762 -0.015763 -1.073383
262.69140625 1.089918 0.209947 -0.879971
263.671875 1.013962 0.261035 -0.752927
264.66796875 1.0814409999999999 0.347336 -0.734105
265.6875 0.9899849999999999 0.2355 -0.754485
266.6875 1.006665 0.146912 -0.859753
267.671875 1.08867 0.234888 -0.853782
268.6953125 1.031741 0.312473 -0.719268
269.72265625 0.984825 0.364861 -0.619964
270.734375 1.031395 0.244171 -0.787224
271.76953125 1.149994 0.849994 -0.3
272.78125 1.083177 1.187786 0.104609
273.80078125 1.004067 0.739067 -0.265
274.83203125 1.018388 0.253707 -0.764681
275.83203125 0.9736679999999999 -0.041332 -1.015
276.84765625 0.9231179999999999 -0.330788 -1.253906
277.86328125 0.918085 -0.466915 -1.385
278.875 0.9218359999999999 -0.53 -1.451836
279.87890625 0.9100000000000001 -0.46 -1.37
280.89453125 0.9098630000000001 -0.295013 -1.204876
281.91015625 0.8893580000000001 -0.256802 -1.14616
282.9453125 0.9082190000000001 -0.270465 -1.178684
283.97265625 1.060518 0.029292 -1.031226
285.0078125 0.9123020000000001 -0.056016 -0.968318
286.06640625 0.9092709999999999 -3.03E-4 -0.909574
287.109375 0.883274 0.018274 -0.865
288.13671875 1.061963 0.329636 -0.732327
289.171875 0.967267 0.494224 -0.473043
290.203125 0.912596 0.40351 -0.509086
291.23046875 1.034993 0.359993 -0.675
292.2265625 0.999259 0.259606 -0.739653
293.23828125 0.934714 0.064714 -0.87
294.265625 0.9049300000000001 -0.1 -1.00493
295.2578125 0.9759760000000001 -0.083713 -1.059689
296.24609375 0.984021 -0.06 -1.044021
297.24609375 0.988413 -0.037156 -1.025569
298.2421875 0.9329040000000001 -0.077152 -1.010056
299.23828125 0.8799239999999999 -0.23 -1.109924
300.23828125 0.872465 -0.246705 -1.11917
301.2265625 0.8630460000000001 -0.205 -1.068046
302.2109375 0.8706189999999999 -0.268946 -1.139565
303.203125 0.8895419999999999 -0.605225 -1.494767
304.1953125 0.9820200000000001 -0.312733 -1.294753
305.1796875 0.886748 -0.043027 -0.929775
306.1875 0.8855 0.0030 -0.8825
307.19140625 0.869337 0.019665 -0.849672
308.21875 0.892742 0.043594 -0.849148
309.234375 0.861574 0.061106 -0.800468
310.23046875 0.923567 0.185249 -0.738318
311.26953125 0.869856 0.039968 -0.829888
312.28515625 0.8552839999999999 2.84E-4 -0.855
313.30078125 0.8556670000000001 0.003245 -0.852422
314.31640625 0.9638019999999999 0.164697 -0.799105
315.33984375 0.869054 0.065035 -0.804019
316.375 0.84993 0.085 -0.76493
317.39453125 1.014916 0.14 -0.874916
318.40234375 0.8748260000000001 0.074826 -0.8
319.43359375 0.890971 -0.155513 -1.046484
320.44140625 0.9698760000000001 -0.455124 -1.425
321.421875 1.143778 0.059325 -1.084453
322.43359375 1.028711 0.04074 -0.987971
323.40625 0.8869520000000001 -0.050781 -0.937733
324.375 0.96493 0.075 -0.88993
325.375 0.915 0.04 -0.875
326.328125 0.9847830000000001 0.194783 -0.79
327.2890625 0.995583 0.185527 -0.810056
328.2734375 0.92929 0.047778 -0.881512
329.23046875 0.93 0.01 -0.92
330.20703125 0.881383 -0.013303 -0.894686
331.203125 1.03864 0.104101 -0.934539
332.2265625 0.9190710000000001 -0.074996 -0.994067
333.26953125 1.059746 0.159993 -0.899753
334.2890625 0.993634 0.23 -0.763634
335.3125 0.948611 0.103611 -0.845
336.359375 0.905443 -0.029557 -0.935
337.39453125 1.049987 0.229987 -0.82
338.4140625 0.9749749999999999 0.234975 -0.74
339.4375 0.956351 0.11025 -0.846101
340.44921875 0.8873930000000001 -0.111755 -0.999148
341.453125 1.028243 0.144469 -0.883774
342.46875 1.036854 0.142087 -0.894767
343.4609375 1.108616 0.19 -0.918616
344.47265625 1.0461880000000001 0.096768 -0.94942
345.5078125 0.999239 -7.61E-4 -1.0
346.51171875 0.9547189999999999 -0.360281 -1.315
347.484375 0.9933590000000001 -0.866641 -1.86
348.4765625 1.093936 0.036375 -1.057561
349.44921875 1.014497 0.268884 -0.745613
350.44921875 1.0197829999999999 0.575 -0.444783
351.44921875 0.93222 0.427256 -0.504964
352.4453125 0.935459 0.325459 -0.61
353.484375 0.93502 0.33002 -0.605
354.51171875 0.921384 0.283312 -0.638072
355.53515625 0.909859 0.247593 -0.662266
356.57421875 1.01932 0.23432 -0.785
357.57421875 1.0072200000000002 -0.84 -1.84722
358.609375 1.083577 0.003343 -1.080234
359.66796875 0.937683 0.212683 -0.725
360.7109375 0.983579 0.129894 -0.853685
361.7265625 1.018271 0.628908 -0.389363
362.77734375 0.9415120000000001 0.517476 -0.424036
363.80859375 0.927116 0.292148 -0.634968
364.8203125 0.871355 -0.08136 -0.952715
365.81640625 1.095 0.1 -0.995
366.828125 0.971052 -0.003948 -0.975
367.85546875 0.9747469999999999 -0.120243 -1.09499
368.84375 1.01457 -0.04543 -1.06
369.83203125 0.9908299999999999 -0.016113 -1.006943
370.85546875 0.996644 0.034994 -0.96165
371.85546875 0.994965 -0.065006 -1.059971
372.8515625 0.995495 0.053923 -0.941572
373.87109375 0.900838 0.130838 -0.77
374.8671875 0.913033 0.168033 -0.745
375.875 0.89 0.01 -0.88
376.88671875 0.926696 0.05189 -0.874806
377.890625 0.952299 0.295513 -0.656786
378.89453125 0.8896890000000001 0.135 -0.754689
379.8984375 0.913674 0.056321 -0.857353
380.890625 0.8686320000000001 -0.159743 -1.028375
381.87109375 0.9234609999999999 -0.17107 -1.094531
382.8515625 0.949856 -0.066077 -1.015933
383.82421875 1.0447289999999998 0.015 -1.029729
384.8359375 1.034257 -0.020424 -1.054681
385.828125 0.9835969999999999 -0.041403 -1.025
386.8046875 0.998464 -0.181424 -1.179888
387.8125 0.95517 0.040227 -0.914943
388.78515625 0.9102 0.1052 -0.805
389.7421875 1.005095 0.113404 -0.891691
390.7109375 1.023091 0.554937 -0.468154
391.67578125 1.014548 0.244548 -0.77
392.640625 0.9578119999999999 -0.3021 -1.259912
393.60546875 0.982905 -0.285022 -1.267927
394.52734375 1.0363390000000001 -0.063661 -1.1
395.43359375 1.0734270000000001 0.164739 -0.908688
396.375 1.025901 0.315 -0.710901
397.28515625 1.005661 0.435661 -0.57
398.16796875 0.9674780000000001 0.388457 -0.579021
399.06640625 0.978571 0.155817 -0.822754
399.921875 1.0342390000000001 0.284268 -0.749971
400.77734375 1.021697 0.354344 -0.667353
401.640625 1.07481 0.448008 -0.626802
402.5 1.03 0.43 -0.6
403.3671875 1.0432109999999999 0.413211 -0.63
404.25 0.95 0.12 -0.83
405.14453125 1.070455 0.139994 -0.930461
406.0546875 1.0076939999999999 0.178841 -0.828853
406.94921875 1.022722 0.233865 -0.788857
407.8515625 0.978109 0.078141 -0.899968
408.7421875 1.0126870000000001 0.124485 -0.888202
409.63671875 1.05791 0.034222 -1.023688
410.52734375 1.079182 -0.415818 -1.495
411.40625 1.0600710000000002 -0.591827 -1.651898
412.26953125 1.1249699999999998 -0.28503 -1.41
413.15234375 1.0575949999999998 -0.005362 -1.062957
414.02734375 1.04 0.245 -0.795
414.88671875 1.059054 0.223545 -0.835509
415.7578125 1.046328 0.366522 -0.679806
416.640625 0.9690300000000001 0.399171 -0.569859
417.53515625 0.948376 0.314021 -0.634355
418.44140625 0.955468 0.271445 -0.684023
419.3515625 0.963049 0.223908 -0.739141
420.29296875 0.8672620000000001 0.062262 -0.805
421.25 1.029932 0.115 -0.914932
422.19140625 0.968561 0.229945 -0.738616
423.11328125 0.9668 0.2268 -0.74
424.05859375 0.953833 0.08938 -0.864453
424.98046875 0.999962 0.084976 -0.914986
425.9375 0.984965 0.018462 -0.966503
426.90625 1.005 -0.08 -1.085
427.8671875 0.96479 -0.127008 -1.091798
428.8203125 0.9251900000000001 -0.218419 -1.143609
429.7890625 1.0026609999999998 -0.085236 -1.087897
430.75390625 0.932869 -0.182007 -1.114876
431.703125 0.9538820000000001 -0.315847 -1.269729
432.65234375 0.898178 -0.251575 -1.149753
433.58984375 0.927635 -0.187365 -1.115
434.51953125 0.8931110000000001 -0.130014 -1.023125
435.47265625 0.893515 -0.101485 -0.995
436.40234375 0.973978 0.014146 -0.959832
437.33984375 0.91807 0.034213 -0.883857
438.3203125 0.944425 0.069851 -0.874574
439.2734375 0.954612 0.11 -0.844612
440.23046875 1.004336 0.244981 -0.759355
441.19921875 0.98864 0.33364 -0.655
442.19140625 1.029976 0.38 -0.649976
443.19140625 0.986566 0.141595 -0.844971
444.2109375 0.950055 0.019801 -0.930254
445.19921875 0.938423 -0.140581 -1.079004
446.15625 0.985819 -0.066289 -1.052108
447.140625 0.953585 -0.112116 -1.065701
448.109375 1.006172 -0.009808 -1.01598
449.046875 0.990162 0.003792 -0.98637
450.0234375 0.9991760000000001 0.07 -0.929176
450.9921875 0.9598000000000001 0.0298 -0.93
451.9765625 0.975244 0.061221 -0.914023
452.9609375 0.939905 0.024905 -0.915
453.9140625 0.920429 0.029977 -0.890452
454.8515625 0.9281849999999999 0.048966 -0.879219
455.828125 0.934272 0.014272 -0.92
456.77734375 0.934658 0.004852 -0.929806
457.6953125 0.995119 0.102426 -0.892693
458.65234375 0.97693 0.134664 -0.842266
459.5859375 0.909953 0.044975 -0.864978
460.53515625 0.9746589999999999 0.114906 -0.859753
461.5 1.072734 0.23 -0.842734
462.4609375 0.946256 0.114975 -0.831281
463.44140625 0.979779 0.099779 -0.88
464.4453125 0.936284 0.05728 -0.879004
465.44140625 1.054943 0.155 -0.899943
466.40234375 1.037264 0.26896 -0.768304
467.3984375 1.107032 0.037104 -1.069928
468.3828125 1.0859949999999998 -0.156932 -1.242927
469.3515625 1.10442 0.125 -0.97942
470.328125 1.036289 0.139899 -0.89639
471.2890625 1.110328 0.295 -0.815328
472.2890625 1.030443 0.274225 -0.756218
473.28515625 1.062351 0.407662 -0.654689
474.2734375 0.957356 0.232727 -0.724629
475.234375 1.0326520000000001 0.287681 -0.744971
476.21875 0.995 0.265 -0.73
477.2109375 1.023585 0.224975 -0.79861
478.20703125 0.9454100000000001 0.102844 -0.842566
479.15234375 0.978058 0.198369 -0.779689
480.11328125 1.028124 0.129843 -0.898281
481.08203125 0.930537 -0.154463 -1.085
482.015625 1.014074 -0.12585 -1.139924
482.92578125 0.9595310000000001 -0.199617 -1.159148
483.85546875 1.074942 0.064956 -1.009986
484.76171875 1.059569 0.265 -0.794569
485.70703125 1.052764 0.370829 -0.681935
486.6875 1.048646 0.378646 -0.67
487.6484375 1.066559 0.471559 -0.595
488.61328125 1.036052 0.393946 -0.642106
489.6171875 1.017767 0.242992 -0.774775
490.58984375 0.939729 0.02 -0.919729
491.5390625 0.999725 0.114725 -0.885
492.515625 0.9502349999999999 -0.003098 -0.953333
493.46484375 1.007262 0.024254 -0.983008
494.40234375 0.979557 0.071355 -0.908202
495.33984375 0.934815 0.049847 -0.884968
496.28125 0.999521 0.124645 -0.874876
497.25 0.9349999999999999 0.09 -0.845
498.25390625 0.975 0.25 -0.725
499.25 0.9349999999999999 0.115 -0.82
500.2578125 1.035092 0.166452 -0.86864
501.2734375 0.9894890000000001 0.111052 -0.878437
502.29296875 0.995 0.015 -0.98
503.2890625 1.039726 0.079851 -0.959875
504.3125 0.960164 0.019844 -0.94032
505.31640625 1.079642 0.029642 -1.05
506.33203125 1.0234569999999998 -0.001543 -1.025
507.33203125 0.975749 -0.014251 -0.99
508.30859375 0.9307399999999999 -0.01926 -0.95
509.28515625 0.927262 -0.00457 -0.931832
510.24609375 0.9720270000000001 0.018101 -0.953926
511.20703125 0.9217810000000001 -0.006265 -0.928046
512.18359375 0.964667 0.015 -0.949667
513.140625 0.9891759999999999 0.12 -0.869176
514.08984375 0.9696710000000001 0.114904 -0.854767
515.05859375 0.9896659999999999 0.084877 -0.904789
516.01953125 0.993 0.03021 -0.96279
516.9765625 1.087559 -0.165 -1.252559
517.94921875 1.024077 -0.08 -1.104077
518.9296875 1.017438 0.057452 -0.959986
519.90625 0.9923010000000001 0.148125 -0.844176
520.91015625 0.996575 0.262231 -0.734344
521.91015625 1.069627 0.327699 -0.741928
522.89453125 0.961846 0.249948 -0.711898
523.92578125 0.996556 0.33383 -0.662726
524.9296875 0.966793 0.222672 -0.744121
525.875 1.004832 0.25 -0.754832
526.84765625 0.983789 0.088804 -0.894985
527.828125 0.866441 -0.07402 -0.940461
528.828125 0.912353 -0.065195 -0.977548
529.81640625 0.9274749999999999 -0.055251 -0.982726
530.78515625 0.971606 0.059215 -0.912391
531.78125 0.934848 0.045 -0.889848
532.7734375 1.08012 -0.194492 -1.274612
533.7578125 1.008746 0.124458 -0.884288
534.73828125 1.071606 0.388563 -0.683043
535.72265625 0.977314 0.4 -0.577314
536.73046875 0.9890209999999999 0.215 -0.774021
537.75 0.9298759999999999 -0.035 -0.964876
538.734375 0.955853 -0.17 -1.125853
539.72265625 0.9649979999999999 -0.146386 -1.111384
540.73828125 0.8459380000000001 -0.041198 -0.887136
541.7265625 0.92608 0.105 -0.82108
542.69140625 0.886143 0.124753 -0.76139
543.67578125 1.08264 0.29364 -0.789
544.65625 0.9534509999999999 0.274107 -0.679344
545.66796875 0.9299999999999999 0.11 -0.82
546.67578125 0.942175 0.237175 -0.705
547.6875 0.944512 0.251786 -0.692726
548.71484375 0.8576619999999999 0.040101 -0.817561
549.74609375 0.94015 -0.119726 -1.059876
550.75390625 0.9423299999999999 -0.14724 -1.08957
551.765625 1.014121 0.064121 -0.95
552.78125 0.971737 0.084629 -0.887108
553.79296875 0.990749 0.105749 -0.885
554.8125 0.906331 0.066944 -0.839387
555.81640625 0.913725 0.039648 -0.874077
556.82421875 0.9925550000000001 0.097555 -0.895
557.84765625 0.924775 0.064775 -0.86
558.87109375 0.938483 0.11354 -0.824943
559.86328125 0.98249 0.153802 -0.828688
560.87890625 0.9232009999999999 0.052564 -0.870637
561.859375 0.899177 0.004187 -0.89499
562.84375 0.8798279999999999 0.020156 -0.859672
563.8359375 0.8673439999999999 0.029974 -0.83737
564.83203125 0.918258 0.003258 -0.915
565.8515625 0.862143 -0.087529 -0.949672
566.875 0.909832 -0.025 -0.934832
567.8828125 0.883506 0.023506 -0.86
568.9140625 0.859317 0.119973 -0.739344
569.93359375 0.971901 0.284867 -0.687034
570.94140625 1.051245 0.081274 -0.969971
571.95703125 0.982734 -0.047266 -1.03
572.95703125 0.9209309999999999 -0.048146 -0.969077
573.98046875 0.900259 -0.099741 -1.0
575.00390625 0.956232 -0.007086 -0.963318
576.0234375 0.891569 0.023245 -0.868324
577.015625 0.999591 0.2679 -0.731691
578.01953125 0.843371 0.049986 -0.793385
579.0234375 0.909606 -0.085394 -0.995
580.046875 1.02407 0.374182 -0.649888
581.05859375 0.904808 0.324808 -0.58
582.07421875 0.907613 0.202054 -0.705559
583.125 0.919176 0.16 -0.759176
584.16796875 0.944391 0.130391 -0.814
585.20703125 0.9672620000000001 0.057262 -0.91
586.2734375 0.986221 0.126221 -0.86
587.3125 1.029986 0.16 -0.869986
588.3984375 1.050265 0.235265 -0.815
589.4609375 0.924858 0.109875 -0.814983
590.5078125 0.912825 0.103789 -0.809036
591.5859375 0.8899729999999999 0.059973 -0.83
592.63671875 0.878366 -0.002884 -0.88125
593.66796875 0.933414 0.073795 -0.859619
594.70703125 0.915 0.065 -0.85
595.765625 0.916761 0.036761 -0.88
596.83203125 0.9399569999999999 -0.035 -0.974957
597.875 1.015 0.2 -0.815
598.8984375 0.9712209999999999 0.146221 -0.825
599.94140625 0.8989769999999999 -0.040386 -0.939363
600.9453125 0.920743 -0.030544 -0.951287
601.9453125 0.851298 -0.142779 -0.994077
602.9609375 0.87785 -0.055029 -0.932879
603.953125 0.8805200000000001 0.03 -0.85052
604.953125 0.907432 0.05598 -0.851452
605.99609375 0.845026 -0.04263 -0.887656
607.0234375 0.878427 -0.10001 -0.978437
608.05859375 0.9105489999999999 -0.140335 -1.050884
609.125 0.874968 -0.18 -1.054968
610.16796875 0.883766 -0.146215 -1.029981
611.1953125 0.9023500000000001 -0.137609 -1.039959
612.25 0.8384510000000001 -0.165 -1.003451
613.3046875 0.859429 -0.140571 -1.0
614.3671875 0.972161 0.087161 -0.885
615.3984375 0.8876200000000001 -0.001755 -0.889375
616.4375 0.88937 -0.0080 -0.89737
617.5 0.969936 0.16 -0.809936
618.55859375 0.9145310000000001 0.024545 -0.889986
619.59765625 1.002538 0.184857 -0.817681
620.640625 0.9722379999999999 0.082715 -0.889523
621.70703125 0.905161 0.05 -0.855161
622.76953125 1.029565 0.249759 -0.779806
623.7890625 0.879912 0.105 -0.774912
624.8046875 0.88808 -0.067681 -0.955761
625.8515625 0.853954 -0.152529 -1.006483
626.85546875 0.962334 0.009981 -0.952353
627.86328125 0.8868630000000001 -0.151771 -1.038634
628.8828125 0.884208 -0.140732 -1.02494
629.8828125 1.008408 0.108472 -0.899936
630.91015625 0.835445 -0.116699 -0.952144
631.94921875 0.881431 0.002209 -0.879222
632.9609375 0.8734909999999999 0.119875 -0.753616
634.0078125 0.911374 0.02884 -0.882534
635.05859375 0.8746050000000001 -1.14E-4 -0.874719
636.0703125 0.977452 0.122452 -0.855
637.1171875 0.844545 -0.025455 -0.87
638.12890625 0.9290660000000001 0.187566 -0.7415
639.15234375 0.881231 0.101301 -0.77993
640.19921875 0.900449 0.081601 -0.818848
641.21875 0.9834890000000001 0.191875 -0.791614
642.25 0.899021 0.0050 -0.894021
643.2890625 0.974561 0.104854 -0.869707
644.30859375 1.041536 0.159311 -0.882225
645.3359375 0.989497 0.044744 -0.944753
646.35546875 1.019925 0.079981 -0.939944
647.3515625 1.016968 0.021968 -0.995
648.375 1.085215 0.165 -0.920215
649.359375 1.095331 0.239187 -0.856144
650.375 1.02957 0.125 -0.90457
651.40625 1.01511 0.063864 -0.951246
652.42578125 0.933448 -0.001552 -0.935
653.42578125 0.872526 -0.077445 -0.949971
654.42578125 0.974494 0.044523 -0.929971
655.421875 0.944766 0.059766 -0.885
656.44140625 0.919518 0.074789 -0.844729
657.453125 0.923487 0.109802 -0.813685
658.453125 0.968984 0.224907 -0.744077
659.46484375 0.955209 0.14753 -0.807679
660.47265625 0.930708 0.061255 -0.869453
661.46875 0.9730719999999999 0.065 -0.908072
662.484375 0.955719 -0.021758 -0.977477
663.5 0.9349999999999999 -0.13 -1.065
664.53125 1.033609 -0.010391 -1.044
665.5703125 0.956468 -0.107609 -1.064077
666.60546875 0.944976 -0.095024 -1.04
667.65625 1.0791680000000001 0.16706 -0.912108
668.69921875 0.983606 0.013925 -0.969681
669.7421875 0.979216 -0.010784 -0.99
670.765625 1.064375 0.159487 -0.904888
671.8046875 0.984595 0.010056 -0.974539
672.84765625 1.001282 0.136282 -0.865
673.859375 1.064591 0.25 -0.814591
674.8984375 0.9907520000000001 0.161221 -0.829531
675.94140625 1.034338 0.249338 -0.785
676.96484375 1.039796 0.212635 -0.827161
678.01171875 0.959113 0.069698 -0.889415
679.03515625 1.130128 0.277231 -0.852897
680.05078125 0.979523 0.009533 -0.96999
681.09375 0.987258 -0.022734 -1.009992
682.125 1.078451 0.185 -0.893451
683.1328125 0.9641689999999999 -8.31E-4 -0.965
684.1171875 1.069307 0.223374 -0.845933
685.1484375 0.9496939999999999 0.075 -0.874694
686.1484375 0.938828 0.028828 -0.91
687.109375 1.024922 0.119922 -0.905
688.12109375 0.903915 -0.057049 -0.960964
689.125 0.949848 0.025 -0.924848
690.1171875 1.0143710000000001 0.214545 -0.799826
691.12890625 0.947169 0.117993 -0.829176
692.1015625 1.023746 0.3 -0.723746
693.11328125 0.974298 0.199308 -0.77499
694.125 0.95 0.18 -0.77
695.10546875 1.1347429999999998 0.514968 -0.619775
696.10546875 1.049721 0.199721 -0.85
697.12109375 0.997048 -0.02221 -1.019258
698.1328125 0.9122230000000001 -0.128478 -1.040701
699.16796875 0.967595 0.017683 -0.949912
700.14453125 1.019869 0.214993 -0.804876
701.15625 0.991375 0.16325 -0.828125
702.171875 0.944489 0.159489 -0.785
703.1796875 0.883684 0.009617 -0.874067
704.15625 0.969167 0.074167 -0.895
705.15625 0.907976 -0.013281 -0.921257
706.14453125 1.063333 0.28 -0.783333
707.1484375 0.918783 0.099008 -0.819775
708.1484375 1.05835 0.21342 -0.84493
709.14453125 0.955766 0.124933 -0.830833
710.1484375 0.951588 0.096835 -0.854753
711.1328125 0.954753 0.11 -0.844753
712.12890625 0.986183 0.103058 -0.883125
713.14453125 0.9972799999999999 0.104961 -0.892319
714.14453125 0.946971 0.089946 -0.857025
715.13671875 1.082328 0.303976 -0.778352
716.13671875 1.042108 0.215 -0.827108
717.14453125 1.023973 0.099937 -0.924036
718.1640625 1.004871 0.069914 -0.934957
719.21875 1.012 0.117 -0.895
720.2578125 0.999888 0.085 -0.914888
721.23828125 1.014698 0.104698 -0.91
722.26171875 1.010453 0.121781 -0.888672
723.28125 0.979957 0.118711 -0.861246
724.3125 0.956944 0.076944 -0.88
725.33984375 0.9105080000000001 -0.027449 -0.937957
726.3203125 1.014773 0.203486 -0.811287
727.34765625 0.9441649999999999 0.193552 -0.750613
728.36328125 1.005 0.185 -0.82
729.359375 1.0455079999999999 0.165508 -0.88
730.3984375 1.048634 0.050197 -0.998437
731.41796875 1.071228 0.011697 -1.059531
732.4609375 1.073287 0.045527 -1.02776
733.52734375 1.039258 0.164258 -0.875
734.5703125 0.90644 -0.11356 -1.02
735.5703125 1.049283 0.064092 -0.985191
736.6171875 0.985 0.035 -0.95
737.65234375 0.879146 -0.085854 -0.965
738.66015625 0.957106 -0.007894 -0.965
739.66796875 0.9524119999999999 0.092444 -0.859968
740.69140625 0.930817 0.115817 -0.815
741.7421875 0.94826 0.18326 -0.765
742.7734375 1.074322 0.338072 -0.73625
743.796875 1.019219 0.249444 -0.769775
744.8671875 0.991257 0.131452 -0.859805
745.8984375 1.079506 0.23 -0.849506
746.921875 1.021706 0.166706 -0.855
747.9609375 1.024938 0.149974 -0.874964
749.00390625 0.9570820000000001 0.027082 -0.93
750.0625 0.9159390000000001 -0.066375 -0.982314
751.1015625 0.893158 -0.057775 -0.950933
752.125 0.86 -0.035 -0.895
753.1484375 0.9425749999999999 0.098935 -0.84364
754.15234375 0.953702 0.114182 -0.83952
755.125 1.014848 0.18 -0.834848
756.1171875 1.005 0.155 -0.85
757.1171875 0.997903 0.092903 -0.905
758.140625 1.051846 0.137925 -0.913921
759.1640625 1.004918 0.144918 -0.86
760.16796875 1.0005819999999999 0.175582 -0.825
761.203125 0.987337 0.207798 -0.779539
762.21875 1.00457 0.20457 -0.8
763.2421875 1.044789 0.169789 -0.875
764.26171875 1.033216 0.122361 -0.910855
765.2578125 1.044151 0.109151 -0.935
766.2578125 0.9719730000000001 0.054239 -0.917734
767.28125 0.981067 0.002031 -0.979036
768.2734375 0.977762 0.042762 -0.935
769.2578125 0.9941869999999999 0.039187 -0.955
770.24609375 1.101422 0.131422 -0.97
771.1875 1.0976089999999998 0.156875 -0.940734
772.12890625 1.059061 0.124099 -0.934962
773.11328125 1.064727 0.074727 -0.99
774.08203125 1.063024 0.066737 -0.996287
775.06640625 1.0844129999999998 0.069848 -1.014565
776.06640625 1.045 -0.02 -1.065
777.05078125 1.029815 0.054815 -0.975
778.0546875 1.011094 0.095 -0.916094
779.04296875 1.02064 0.116296 -0.904344
780.03515625 1.064695 0.134695 -0.93
781.00390625 1.03 0.175 -0.855
781.96875 1.003594 0.098594 -0.905
782.9453125 0.969144 0.009377 -0.959767
783.9375 0.990505 -0.293 -1.283505
784.91015625 1.014808 -0.16957 -1.184378
785.8515625 1.034837 0.103187 -0.93165
786.8125 0.974213 0.245 -0.729213
787.7890625 1.079101 0.21495 -0.864151
788.77734375 0.9883329999999999 0.31 -0.678333
789.79296875 0.9907090000000001 0.227561 -0.763148
790.80078125 0.985349 0.253082 -0.732267
791.81640625 1.010374 0.065765 -0.944609
792.8359375 1.0 0.24 -0.76
793.8203125 0.9833620000000001 0.311571 -0.671791
794.82421875 1.012235 0.337235 -0.675
795.8359375 0.972953 0.339758 -0.633195
796.84765625 0.909231 0.20333 -0.705901
797.81640625 0.964848 0.164848 -0.8
798.80859375 0.94574 0.03074 -0.915
799.79296875 0.939278 -0.025722 -0.965
800.80078125 0.967471 -0.02 -0.987471
801.7734375 0.9874799999999999 -0.062273 -1.049753
802.7421875 0.961286 -0.097152 -1.058438
803.7421875 0.944151 -0.05 -0.994151
804.7265625 0.92079 -0.081316 -1.002106
805.70703125 0.9409230000000001 -0.022925 -0.963848
806.70703125 0.9450970000000001 0.027727 -0.91737
807.671875 1.013612 0.157049 -0.856563
808.68359375 0.963938 0.079675 -0.884263
809.71484375 0.918942 0.029213 -0.889729
810.734375 0.9382079999999999 0.054187 -0.884021
811.7578125 0.934912 0.07 -0.864912
812.78125 1.013372 0.297372 -0.716
813.8125 0.9907269999999999 0.288 -0.702727
814.8046875 0.9984569999999999 0.338486 -0.659971
815.82421875 0.9677180000000001 0.067718 -0.9
816.83203125 0.9168689999999999 -0.213131 -1.13
817.84765625 1.033774 -0.07 -1.103774
818.85546875 1.0031970000000001 -0.135006 -1.138203
819.85546875 0.938008 -0.25 -1.188008
820.8828125 0.9195390000000001 -0.272152 -1.191691
821.89453125 0.9199730000000002 -0.179776 -1.099749
822.875 0.939415 -0.12 -1.059415
823.88671875 0.915 -0.18 -1.095
824.88671875 0.939259 -0.167639 -1.106898
825.8984375 0.9380719999999999 -0.086928 -1.025
826.91796875 0.955782 -0.019218 -0.975
827.921875 0.950151 0.017798 -0.932353
828.93359375 1.034487 0.254487 -0.78
829.95703125 0.9778439999999999 0.277844 -0.7
830.98046875 0.9907809999999999 0.29 -0.700781
831.97265625 0.997681 0.383665 -0.614016
833.00390625 0.9538460000000001 0.149093 -0.804753
834.0078125 1.048726 0.273726 -0.775
835.0390625 1.1076350000000001 0.254908 -0.852727
836.046875 1.114643 0.254643 -0.86
837.05078125 1.112812 0.102812 -1.01
838.0859375 1.1869480000000001 0.289832 -0.897116
839.08984375 1.087264 0.152635 -0.934629
840.07421875 1.038944 0.123982 -0.914962
841.07421875 1.011503 0.1 -0.911503
842.046875 1.024734 0.109766 -0.914968
843.0234375 1.08468 0.132655 -0.952025
843.99609375 1.07587 0.105902 -0.969968
844.96484375 1.0925509999999998 0.147551 -0.945
845.93359375 1.05642 0.039739 -1.016681
846.921875 1.0081579999999999 0.121052 -0.887106
847.8984375 1.008756 0.163908 -0.844848
848.8671875 1.1041210000000001 0.364289 -0.739832
849.84375 1.071083 0.358535 -0.712548
850.8203125 0.997473 0.267144 -0.730329
851.81640625 0.974683 0.189683 -0.785
852.80078125 1.037221 0.242768 -0.794453
853.80078125 0.997146 0.172883 -0.824263
854.80078125 0.9245410000000001 0.139541 -0.785
855.7734375 1.0678320000000001 0.24322 -0.824612
856.75390625 1.007255 0.21413 -0.793125
857.78125 1.004584 0.172748 -0.831836
858.80078125 0.9071389999999999 -0.090933 -0.998072
859.80859375 0.939859 -0.120141 -1.06
860.83984375 0.982791 -0.007209 -0.99
861.8515625 0.969574 0.025 -0.944574
862.859375 0.99795 0.107257 -0.890693
863.90625 0.9627840000000001 -0.006786 -0.96957
864.9375 0.8855 -0.0695 -0.955
865.9453125 1.007107 0.147426 -0.859681
866.9609375 0.920873 0.11994 -0.800933
867.96484375 1.001031 0.344213 -0.656818
868.984375 1.07634 0.29136 -0.78498
870.00390625 0.993098 0.220954 -0.772144
871.03515625 0.957064 0.097064 -0.86
872.0859375 0.943794 0.104946 -0.838848
873.11328125 0.900965 0.112453 -0.788512
874.12109375 0.9389590000000001 0.044035 -0.894924
875.13671875 0.940844 0.063946 -0.876898
876.12890625 1.001789 0.086789 -0.915
877.14453125 1.022102 0.159994 -0.862108
878.171875 0.977175 0.114753 -0.862422
879.18359375 0.899463 0.014463 -0.885
880.2109375 0.894962 -0.030038 -0.925
881.2265625 0.953073 -7.84E-4 -0.953857
882.2265625 0.939225 -0.016289 -0.955514
883.23828125 1.027806 0.154355 -0.873451
884.234375 1.035074 0.119141 -0.915933
885.26171875 1.052701 0.119397 -0.933304
886.3203125 1.056748 0.11 -0.946748
887.359375 1.0450000000000002 0.00625 -1.03875
888.39453125 1.089994 0.089994 -1.0
889.44921875 1.021328 0.074523 -0.946805
890.484375 1.064912 0.14 -0.924912
891.50390625 1.0592409999999999 0.114241 -0.945
892.52734375 1.039031 0.093067 -0.945964
893.54296875 0.987552 0.076697 -0.910855
894.56640625 0.939595 0.054638 -0.884957
895.54296875 1.048148 0.248148 -0.8
896.515625 1.016016 0.226309 -0.789707
897.546875 1.031999 0.176066 -0.855933
898.5390625 1.020853 0.045 -0.975853
899.5078125 1.013104 0.083228 -0.929876
900.5234375 1.036797 0.101797 -0.935
901.515625 1.0680079999999998 0.118008 -0.95
902.50390625 1.097335 0.087335 -1.01
903.49609375 1.072664 0.133094 -0.93957
904.48046875 1.079297 0.119942 -0.959355
905.47265625 1.099068 0.129068 -0.97
906.4765625 1.097832 0.132957 -0.964875
907.48046875 1.074994 0.119994 -0.955
908.49609375 1.039888 0.07 -0.969888
909.484375 1.111528 0.162754 -0.948774
910.4921875 1.055912 0.027946 -1.027966
911.5078125 1.007366 -0.026474 -1.03384
912.5 0.985 -0.035 -1.02
913.47265625 1.029247 0.069276 -0.959971
914.47265625 1.0163389999999999 0.036339 -0.98
915.4453125 1.037852 0.092391 -0.945461
916.421875 0.993897 0.069365 -0.924532
917.41015625 0.956453 0.051509 -0.904944
918.37890625 0.94552 0.05552 -0.89
919.36328125 0.9973620000000001 0.108295 -0.889067
920.34765625 1.011525 0.158364 -0.853161
921.33984375 1.059993 0.205 -0.854993
922.3359375 1.078412 0.144971 -0.933441
923.34765625 1.068203 0.071301 -0.996902
924.34765625 1.058894 0.074068 -0.984826
925.33203125 1.096508 0.011516 -1.084992
926.3046875 1.11057 0.037152 -1.073418
927.30859375 1.1422590000000001 0.094945 -1.047314
928.33984375 1.061672 0.096682 -0.96499
929.33984375 1.004067 0.085 -0.919067
930.328125 1.036464 0.216797 -0.819667
931.3515625 1.0098090000000002 0.265 -0.744809
932.37109375 1.000924 0.156312 -0.844612
933.34765625 1.040891 0.299673 -0.741218
934.3515625 1.0443120000000001 0.241355 -0.802957
935.34375 0.991461 0.237461 -0.754
936.328125 1.057643 0.318958 -0.738685
937.328125 0.998762 0.189909 -0.808853
938.3125 0.942018 0.193333 -0.748685
939.296875 0.979386 0.184783 -0.794603
940.2734375 0.998635 0.233719 -0.764916
941.25390625 0.9463950000000001 0.156642 -0.789753
942.21484375 0.935562 0.144461 -0.791101
943.19140625 0.932497 0.119949 -0.812548
944.15625 0.9694969999999999 0.149609 -0.819888
945.10546875 1.014946 0.174973 -0.839973
946.046875 0.9736100000000001 0.184753 -0.788857
947.01953125 0.984036 0.155 -0.829036
948.01953125 0.984969 0.144969 -0.84
948.9921875 1.005 0.14 -0.865
949.984375 0.932927 0.075 -0.857927
950.96875 1.009195 0.149621 -0.859574
951.92578125 1.0078909999999999 0.145 -0.862891
952.90625 1.062981 0.279141 -0.78384
953.90625 1.056776 0.291836 -0.76494
954.90625 1.0555080000000001 0.295508 -0.76
955.9140625 1.014832 0.289832 -0.725
956.953125 0.9372590000000001 0.194505 -0.742754
957.9609375 0.9077200000000001 0.099763 -0.807957
958.9140625 0.944978 0.145 -0.799978
959.89453125 0.904969 0.039969 -0.865
960.8515625 0.933295 0.049686 -0.883609
961.796875 0.950461 0.009299 -0.941162
962.7578125 0.897458 -0.020223 -0.917681
963.68359375 1.038812 0.129796 -0.909016
964.609375 1.063822 0.052172 -1.01165
965.5234375 1.004944 -0.0050 -1.009944
966.5 0.949689 -0.05 -0.999689
967.44140625 0.939175 -0.040133 -0.979308
968.39453125 0.9354469999999999 -0.005021 -0.940468
969.34375 0.934097 0.078577 -0.85552
970.33203125 0.8927109999999999 0.063707 -0.829004
971.3359375 0.883418 0.0 -0.883418
972.35546875 0.917102 0.030266 -0.886836
973.38671875 0.9338770000000001 0.064023 -0.869854
974.4453125 0.9487209999999999 0.097331 -0.85139
975.4765625 0.989913 0.280913 -0.709
976.52734375 1.029 0.27 -0.759
977.578125 1.054643 0.299643 -0.755
978.64453125 0.963352 0.12 -0.843352
979.734375 0.925746 0.015909 -0.909837
980.796875 1.073254 0.220693 -0.852561
981.88671875 1.003976 0.193976 -0.81
982.9609375 1.009932 0.139932 -0.87
984.02734375 1.025637 0.04 -0.985637
985.0625 1.05457 0.1285 -0.92607
986.09765625 0.943203 -0.04 -0.983203
987.14453125 0.939986 -0.055014 -0.995
988.21484375 1.114704 0.13856 -0.976144
989.2265625 0.939826 0.0050 -0.934826
990.24609375 0.878263 0.058848 -0.819415
991.3046875 0.932319 0.167319 -0.765
992.359375 0.927754 0.057754 -0.87
993.3984375 0.952988 -0.081928 -1.034916
994.4375 0.9560029999999999 0.188437 -0.767566
995.46484375 0.895389 0.151366 -0.744023
996.515625 0.893773 0.408857 -0.484916
997.55859375 0.881201 0.191814 -0.689387
998.57421875 0.9365439999999999 0.183754 -0.75279
999.64453125 0.9180429999999999 0.004971 -0.913072
1000.703125 0.8957639999999999 -0.133965 -1.029729
1001.72265625 0.919667 -0.025319 -0.944986
1002.76171875 0.94 -0.01 -0.95
1003.80859375 0.904523 -0.190432 -1.094955
1004.88671875 0.9591610000000002 -0.065645 -1.024806
1005.9296875 0.891404 -0.023567 -0.914971
1006.96875 0.958441 0.02 -0.938441
1008.015625 0.945115 -0.014821 -0.959936
1009.06640625 0.9545319999999999 -0.030468 -0.985
1010.09765625 0.939554 0.05807 -0.881484
1011.140625 0.916328 0.0382 -0.878128
1011.83984375 0.8647090000000001 0.040861 -0.823848
1013.10546875 0.8727260000000001 0.065 -0.807726
1013.63671875 1.3767580000000001 -0.298242 -1.675
1015.13671875 0.887557 0.117892 -0.769665
1016.1875 0.8891 0.03 -0.8591
1017.20703125 0.845537 0.080537 -0.765
1018.19921875 0.8419289999999999 0.021929 -0.82
1019.23828125 0.8033370000000001 -0.092131 -0.895468
1020.26953125 0.806974 -0.14508 -0.952054
1021.30859375 0.839723 -0.130255 -0.969978
1022.35546875 0.899986 -0.05 -0.949986
1023.375 0.889415 -0.035 -0.924415
1024.4140625 0.944661 -0.03 -0.974661
1025.4140625 0.946893 0.02494 -0.921953
1026.42578125 0.9755569999999999 -0.122232 -1.097789
1027.4453125 0.884445 -0.185555 -1.07
1028.43359375 0.879943 -0.140057 -1.02
1029.44921875 0.8883869999999999 -0.061613 -0.95
1030.4609375 0.901971 0.014937 -0.887034
1031.45703125 0.881296 0.026296 -0.855
1032.45703125 0.9083239999999999 0.083324 -0.825
1033.48828125 0.8767259999999999 0.061726 -0.815
1034.48828125 0.910443 0.082017 -0.828426
1035.48046875 0.818677 -7.0E-6 -0.818684
1036.4765625 0.846678 0.035745 -0.810933
1037.46484375 0.93052 0.085834 -0.844686
1038.46484375 0.9325300000000001 0.02753 -0.905
1039.44921875 0.8889250000000001 -0.016075 -0.905
1040.43359375 0.8598199999999999 -0.09018 -0.95
1041.453125 0.825 -0.13 -0.955
1042.45703125 0.817592 -0.147408 -0.965
1043.4453125 0.7986880000000001 -0.200584 -0.999272
1044.44140625 0.886087 -0.060303 -0.94639
1045.421875 0.87757 -0.136693 -1.014263
1046.41015625 0.882807 -0.046802 -0.929609
1047.42578125 0.82544 -0.083947 -0.909387
1048.4140625 0.82995 -0.00505 -0.835
1049.41796875 0.844507 -4.93E-4 -0.845
1050.4296875 0.830997 0.061011 -0.769986
1051.4296875 0.920933 0.16 -0.760933
1052.421875 0.909444 0.159444 -0.75
1053.4375 0.869822 0.063889 -0.805933
1054.4296875 0.894978 0.02 -0.874978
1055.4296875 0.9001910000000001 0.025 -0.875191
1056.41796875 0.899992 -0.0050 -0.904992
1057.40234375 0.937172 0.1091 -0.828072
1058.40625 0.892786 0.053125 -0.839661
1059.390625 0.923011 0.149171 -0.77384
1060.3828125 0.885957 0.116575 -0.769382
1061.38671875 0.927367 0.159406 -0.767961
1062.3828125 0.889028 0.084458 -0.80457
1063.37890625 0.885122 0.095 -0.790122
1064.40625 0.8553000000000001 0.050412 -0.804888
1065.42578125 0.876585 -0.001075 -0.87766
1066.4375 0.846983 0.003542 -0.843441
1067.45703125 0.816884 -0.059797 -0.876681
1068.4609375 0.8115559999999999 -0.028958 -0.840514
1069.4140625 0.835299 0.045514 -0.789785
1070.3671875 0.8092520000000001 0.019545 -0.789707
1071.32421875 0.8222809999999999 0.007281 -0.815
1072.30859375 0.829629 -3.52E-4 -0.829981
1073.3046875 0.8830319999999999 0.048032 -0.835
1074.2734375 0.892848 0.058141 -0.834707
1075.28515625 0.8536349999999999 -0.025688 -0.879323
1076.3203125 0.829978 -0.055 -0.884978
1077.36328125 0.923862 0.143862 -0.78
1078.40234375 0.889664 0.129664 -0.76
1079.41015625 0.9195329999999999 0.254565 -0.664968
1080.4375 0.850223 0.116146 -0.734077
1081.48828125 0.824805 0.03 -0.794805
1082.48828125 0.936157 0.178188 -0.757969
1083.4765625 0.869704 0.01322 -0.856484
1084.50390625 0.87746 0.031823 -0.845637
1085.4921875 0.826376 -0.038548 -0.864924
1086.4765625 0.773696 -0.13113 -0.904826
1087.46875 0.7665510000000001 -0.08793 -0.854481
1088.4609375 0.770967 -0.089033 -0.86
1089.453125 0.85865 0.019802 -0.838848
1090.4453125 0.777261 -0.116424 -0.893685
1091.4296875 0.772513 -0.132487 -0.905
1092.4296875 0.858025 0.003025 -0.855
1093.4375 0.787448 -0.136458 -0.923906
1094.43359375 0.804917 -0.095274 -0.900191
1095.43359375 0.81455 -0.09 -0.90455
1096.44140625 0.799867 -0.100133 -0.9
1097.453125 0.7906610000000001 -0.053924 -0.844585
1098.48046875 0.8662110000000001 0.069965 -0.796246
1099.49609375 0.819593 -0.070261 -0.889854
1100.5234375 0.807223 -0.121813 -0.929036
1101.55859375 0.886591 -0.010443 -0.897034
1102.59375 0.813125 -0.131875 -0.945
1103.60546875 0.8036979999999999 -0.080076 -0.883774
1104.60546875 0.8899480000000001 0.094964 -0.794984
1105.625 0.79 0.015 -0.775
1106.64453125 0.7641290000000001 0.024953 -0.739176
1107.625 0.88432 0.235 -0.64932
1108.625 0.81884 0.0 -0.81884
1109.66015625 0.825555 -0.029445 -0.855
1110.66796875 0.885654 0.051119 -0.834535
1111.671875 0.9694889999999999 0.134489 -0.835
1112.70703125 0.847745 -0.128229 -0.975974
1113.71875 0.7895309999999999 -0.215469 -1.005
1114.73046875 0.8899779999999999 -0.050022 -0.94
1115.734375 1.003515 -8.29E-4 -1.004344
1116.73828125 1.008701 0.023976 -0.984725
1117.76953125 0.859853 -0.160023 -1.019876
1118.796875 0.902858 -0.090776 -0.993634
1119.79296875 0.8740220000000001 0.201296 -0.672726
1120.78125 0.861553 0.147132 -0.714421
1121.76953125 0.889975 0.184975 -0.705
1122.7734375 0.998451 -0.116055 -1.114506
1123.796875 0.819629 0.054629 -0.765
1124.8125 0.798745 0.048 -0.750745
1125.8359375 0.86471 0.175936 -0.688774
1126.86328125 0.800306 0.013976 -0.78633
1127.8828125 0.792872 -0.081789 -0.874661
1128.87890625 0.869052 -0.040948 -0.91
1129.875 0.8048540000000001 -0.095 -0.899854
1130.87109375 0.7803930000000001 -0.154607 -0.935
1131.88671875 0.776599 -0.185 -0.961599
1132.8984375 0.82598 -0.125 -0.95098
1133.89453125 0.8226610000000001 -0.05002 -0.872681
1134.94140625 0.784726 -0.115274 -0.9
1135.96875 0.741859 -0.16775 -0.909609
1136.984375 0.745291 -0.224557 -0.969848
1138.03125 0.726294 -0.305812 -1.032106
1139.0546875 0.80088 -0.16912 -0.97
1140.07421875 0.849491 0.044491 -0.805
1141.11328125 0.847484 0.022516 -0.824968
1142.14453125 0.7641450000000001 -0.055031 -0.819176
1143.1796875 0.831888 0.016888 -0.815
1144.20703125 0.7824220000000001 0.035 -0.747422
1145.2421875 0.759713 0.00778 -0.751933
1146.28515625 0.771509 -0.003491 -0.775
1147.31640625 0.74 -0.03 -0.77
1148.34765625 0.759857 -0.030143 -0.79
1149.3984375 0.768177 -0.161111 -0.929288
1150.4296875 0.7586399999999999 -0.24636 -1.005
1151.48046875 0.759992 -0.260008 -1.02
1152.52734375 0.8224549999999999 -0.152461 -0.974916
1153.55078125 0.8230390000000001 -0.127874 -0.950913
1154.5859375 0.754332 -0.270055 -1.024387
1155.6171875 0.753736 -0.29114 -1.044876
1156.6640625 0.93426 -0.005263 -0.939523
1157.73046875 0.914991 -0.015038 -0.930029
1158.76953125 0.859876 -0.02 -0.879876
1159.828125 0.9147529999999999 0.094753 -0.82
1160.890625 0.9575389999999999 0.129187 -0.828352
1161.94921875 0.879729 0.015 -0.864729
1162.9921875 0.953953 0.164802 -0.789151
1164.00390625 0.9136869999999999 0.109343 -0.804344
1165.03515625 0.882559 0.035 -0.847559
1166.07421875 0.889004 0.024004 -0.865
1167.09375 0.8395940000000001 -0.050406 -0.89
1168.1015625 0.893245 0.068245 -0.825
1169.13671875 0.9401949999999999 0.085559 -0.854636
1170.16796875 0.89221 -0.042622 -0.934832
1171.17578125 0.8843970000000001 -0.090478 -0.974875
1172.19921875 0.8359000000000001 -0.22549 -1.06139
1173.23046875 0.909965 -0.130035 -1.04
1174.265625 0.9191499999999999 -0.02085 -0.94
1175.30859375 0.910753 -0.07018 -0.980933
1176.34765625 0.82925 -0.160694 -0.989944
1177.40234375 0.917265 -0.036575 -0.95384
1178.44140625 0.864943 -0.08 -0.944943
1179.46875 0.879509 -0.055469 -0.934978
1180.49609375 0.934981 0.066723 -0.868258
1181.5390625 0.829883 -0.095117 -0.925
1182.59375 0.781836 -0.108164 -0.89
1183.62890625 0.881521 0.08 -0.801521
1184.671875 0.8798090000000001 0.02 -0.859809
1185.72265625 0.864687 -0.075313 -0.94
1186.765625 0.905561 -0.064439 -0.97
1187.796875 0.82626 -0.170879 -0.997139
1188.8359375 0.8549640000000001 -0.085 -0.939964
1189.8828125 0.822325 -0.180455 -1.00278
1190.92578125 0.9871749999999999 0.022175 -0.965
1191.9765625 0.907641 -0.087345 -0.994986
1193.015625 0.834583 -0.130347 -0.96493
1194.078125 0.818747 -0.146253 -0.965
1195.109375 0.8892760000000001 -0.064943 -0.954219
1196.1484375 0.780331 -0.166813 -0.947144
1197.1953125 0.806357 -0.05272 -0.859077
1198.21875 0.832446 -0.011328 -0.843774
1199.2734375 0.8681679999999999 0.018292 -0.849876
1200.3203125 0.9167620000000001 0.172375 -0.744387
1201.34765625 0.889971 0.13 -0.759971
1202.38671875 0.987823 0.263254 -0.724569
1203.4375 0.855 0.04 -0.815
1204.4765625 0.8 -0.08 -0.88
1205.50390625 0.962475 0.116642 -0.845833
1206.5234375 1.052778 -0.107222 -1.16
1207.5546875 0.9001819999999999 0.015211 -0.884971
1208.62109375 0.9630610000000001 0.068647 -0.894414
1209.671875 0.8605860000000001 -0.093988 -0.954574
1210.73046875 0.94473 -0.030046 -0.974776
1211.80078125 0.849553 -0.145447 -0.995
1212.8671875 0.824545 -0.185455 -1.01
1213.92578125 0.8333220000000001 -0.149746 -0.983068
1214.95703125 0.9117230000000001 -0.059251 -0.970974
1216.0078125 0.839735 -0.100233 -0.939968
1217.07421875 0.889967 0.09558 -0.794387
1218.12890625 0.89957 0.06 -0.83957
1219.18359375 0.837286 -0.035468 -0.872754
1220.2578125 0.8493609999999999 -0.045208 -0.894569
1221.32421875 0.918802 0.098387 -0.820415
1222.375 0.839806 0.02 -0.819806
1223.43359375 0.942855 0.134889 -0.807966
1224.4609375 0.918137 0.109976 -0.808161
1225.515625 0.831313 -0.057828 -0.889141
1226.5390625 0.905299 -0.029486 -0.934785
1227.5625 0.9240750000000001 -0.031538 -0.955613
1228.60546875 0.879036 -0.010041 -0.889077
1229.62890625 0.8851690000000001 0.070274 -0.814895
1230.625 0.889092 0.045 -0.844092
1231.6484375 0.8379759999999999 0.003632 -0.834344
1232.6640625 0.839943 0.014943 -0.825
1233.671875 0.9687939999999999 0.279753 -0.689041
1234.67578125 0.938313 0.223381 -0.714932
1235.66796875 0.9120729999999999 0.11972 -0.792353
1236.6953125 0.8779859999999999 0.062986 -0.815
1237.70703125 0.89 0.015 -0.875
1238.6953125 0.83 0.015 -0.815
1239.6953125 0.948945 0.193945 -0.755
1240.6640625 0.9189970000000001 0.109778 -0.809219
1241.66015625 0.853527 0.024308 -0.829219
1242.68359375 0.861403 0.043926 -0.817477
1243.6796875 0.839355 0.004736 -0.834619
1244.6875 0.8092269999999999 -0.019773 -0.829
1245.70703125 0.8718359999999999 -0.051265 -0.923101
1246.7109375 0.879975 -0.140025 -1.02
1247.6953125 0.868367 -0.155774 -1.024141
1248.6953125 0.807473 -0.177527 -0.985
1249.69921875 0.768174 -0.141826 -0.91
1250.69921875 0.726957 -0.176652 -0.903609
1251.671875 0.778794 -0.220206 -0.999
1252.6484375 0.8075699999999999 -0.147306 -0.954876
1253.65234375 0.8846890000000001 0.045 -0.839689
1254.62890625 0.86 0.085 -0.775
1255.61328125 0.844843 0.119843 -0.725
1256.6328125 0.8321409999999999 0.033789 -0.798352
1257.6484375 0.8761810000000001 0.031333 -0.844848
1258.66796875 0.8582329999999999 0.103424 -0.754809
1259.70703125 0.86723 0.0384 -0.82883
1260.7421875 0.8526119999999999 -0.24722 -1.099832
1261.796875 0.782814 -0.035388 -0.818202
1262.83203125 0.766649 -0.138351 -0.905
1263.85546875 0.764761 -0.205014 -0.969775
1264.88671875 0.866914 -0.090767 -0.957681
1265.9296875 0.766492 -0.237659 -1.004151
1266.9765625 0.766658 -0.208342 -0.975
1268.03125 0.7675 -0.19625 -0.96375
1269.07421875 0.728081 -0.243309 -0.97139
1270.12109375 0.750922 -0.203966 -0.954888
1271.15625 0.804355 -0.13 -0.934355
1272.17578125 0.877317 0.062508 -0.814809
1273.19921875 0.864121 -0.015 -0.879121
1274.24609375 0.769011 -0.205989 -0.975
1275.28125 0.7686090000000001 -0.186359 -0.954968
1276.33203125 0.839932 -0.013263 -0.853195
1277.37109375 0.791233 -0.033358 -0.824591
1278.42578125 0.756966 -0.071471 -0.828437
1279.47265625 0.8819039999999999 0.044673 -0.837231
1280.52734375 0.827365 -0.070763 -0.898128
1281.56640625 0.799446 -0.100537 -0.899983
1282.5859375 0.849519 -0.030162 -0.879681
1283.62109375 0.7799999999999999 -0.16 -0.94
1284.66796875 0.880073 -0.107864 -0.987937
1285.6953125 0.9634740000000002 -0.040549 -1.004023
1286.69921875 0.881928 -0.10234 -0.984268
1287.734375 0.9239040000000001 -0.049294 -0.973198
1288.7265625 0.899672 -0.09 -0.989672
1289.73046875 0.839666 -0.225006 -1.064672
1290.73046875 0.958072 0.02 -0.938072
1291.734375 0.9083009999999999 -0.036699 -0.945
1292.75 0.939876 0.055 -0.884876
1293.78515625 0.9255680000000001 0.053301 -0.872267
1294.7890625 1.003599 0.254849 -0.74875
1295.81640625 0.9799899999999999 0.185 -0.79499
1296.84765625 0.979119 0.144369 -0.83475
1297.8671875 1.014477 0.169553 -0.844924
1298.90234375 0.969849 0.089849 -0.88
1299.91015625 1.005851 0.097723 -0.908128
1300.92578125 0.9772449999999999 0.072274 -0.904971
1301.9609375 0.95686 0.039744 -0.917116
1302.97265625 0.939978 0.0050 -0.934978
1303.98046875 1.004939 0.079946 -0.924993
1305.00390625 1.034355 0.145 -0.889355
1306.01171875 1.04315 0.239574 -0.803576
1307.0078125 0.935491 0.049458 -0.886033
1308.0078125 0.9447669999999999 -0.005233 -0.95
1309.01953125 0.914713 0.039988 -0.874725
1310.04296875 0.918786 0.148818 -0.769968
1311.0390625 0.88784 0.070056 -0.817784
1312.015625 0.9071 0.0671 -0.84
1313.03515625 0.895252 0.180284 -0.714968
1314.0078125 0.903981 0.108472 -0.795509
1314.953125 0.883141 0.094162 -0.788979
1315.9453125 0.937954 0.142341 -0.795613
1316.921875 0.9739650000000001 0.210215 -0.76375
1317.94140625 0.934245 0.064516 -0.869729
1318.96484375 0.915 0.035 -0.88
1319.98046875 0.92999 0.03 -0.89999
1321.03125 0.883964 0.039609 -0.844355
1322.09765625 0.873515 0.051162 -0.822353
1323.1484375 0.989629 0.215 -0.774629
1324.20703125 0.9182710000000001 0.038271 -0.88
1325.265625 0.9386939999999999 0.076761 -0.861933
1326.34375 0.9537899999999999 0.148812 -0.804978
1327.42578125 0.94951 0.12951 -0.82
1328.48046875 0.9999640000000001 0.334964 -0.665
1329.57421875 0.9326559999999999 0.21788 -0.714776
1330.66796875 0.913732 0.148732 -0.765
1331.73828125 0.841781 0.076781 -0.765
1332.79296875 0.950522 0.165855 -0.784667
1333.8515625 0.905622 0.096028 -0.809594
1334.91015625 0.922256 0.123043 -0.799213
1335.98046875 0.924971 0.169971 -0.755
1336.99609375 0.958816 0.11393 -0.844886
1338.05859375 0.9450000000000001 0.015 -0.93
1339.125 0.969355 0.01 -0.959355
1340.18359375 0.9397789999999999 -2.21E-4 -0.94
1341.21484375 0.964971 0.125 -0.839971
1342.25 0.939642 -0.04 -0.979642
1343.30078125 0.934841 0.010017 -0.924824
1344.34375 0.929775 0.035 -0.894775
1345.37890625 0.9108430000000001 -0.050657 -0.9615
1346.421875 0.894059 -0.035941 -0.93
1347.5 0.894888 0.03 -0.864888
1348.5546875 1.006014 0.226033 -0.779981
1349.58984375 0.95 0.345 -0.605
1350.6484375 0.903864 0.203864 -0.7
1351.7109375 0.862874 -9.2E-5 -0.862966
1352.7890625 0.842822 -0.090616 -0.933438
1353.8046875 0.929041 -0.03 -0.959041
1354.84765625 0.8698520000000001 -0.050148 -0.92
1355.8984375 0.89387 -0.03613 -0.93
1356.9453125 0.873032 -0.111968 -0.985
1357.9765625 0.8683000000000001 -0.190704 -1.059004
1358.9921875 0.8174410000000001 -0.220761 -1.038202
1359.9765625 0.851423 -0.161136 -1.012559
1361.0078125 0.856777 -0.098438 -0.955215
1362.01953125 0.8564700000000001 -0.065051 -0.921521
1363.01171875 0.854697 -0.0382 -0.892897
1364.05078125 0.817079 -0.027874 -0.844953
1365.08203125 0.915879 0.131516 -0.784363
1366.11328125 0.882202 0.013229 -0.868973
1367.171875 0.82918 -0.08582 -0.915
1368.21875 0.9002 0.047679 -0.852521
1369.2578125 0.884105 0.074105 -0.81
1370.29296875 0.8379479999999999 -0.005951 -0.843899
1371.3203125 0.8566590000000001 -0.038325 -0.894984
1372.375 0.894532 0.0050 -0.889532
1373.390625 0.8543719999999999 -0.008418 -0.86279
1374.42578125 0.878046 -0.115998 -0.994044
1375.48046875 0.827412 -0.145314 -0.972726
1376.51171875 0.907828 -0.062172 -0.97
1377.55078125 0.891969 -0.117993 -1.009962
1378.59765625 0.833594 -0.210156 -1.04375
1379.62890625 0.793281 -0.279046 -1.072327
1380.6640625 0.844873 -0.210127 -1.055
1381.68359375 0.8542529999999999 -0.130419 -0.984672
1382.67578125 0.821922 -0.026044 -0.847966
1383.6796875 0.8579129999999999 -0.067073 -0.924986
1384.6796875 0.868588 -0.027574 -0.896162
1385.703125 0.8826809999999999 -0.045 -0.927681
1386.7421875 0.855057 -0.038261 -0.893318
1387.7734375 0.820891 -0.103679 -0.92457
1388.8203125 0.8507490000000001 -0.052669 -0.903418
1389.859375 0.941926 0.048242 -0.893684
1390.87109375 0.902338 -0.007434 -0.909772
1391.92578125 0.8825449999999999 -0.060892 -0.943437
1392.98828125 0.865454 -0.127983 -0.993437
1394.046875 0.8431409999999999 -0.165 -1.008141
1395.12109375 0.88416 -0.128883 -1.013043
1396.16015625 0.875625 -0.14 -1.015625
1397.2109375 0.909859 0.024888 -0.884971
1398.2890625 0.96995 -5.0E-5 -0.97
1399.3515625 0.927082 -0.078543 -1.005625
1400.4140625 0.9458449999999999 -0.119155 -1.065
1401.48046875 0.9899070000000001 -0.090036 -1.079943
1402.55859375 0.946842 -0.080192 -1.027034
1403.62109375 0.955599 -0.014869 -0.970468
1404.6640625 0.9727750000000001 0.074848 -0.897927
1405.72265625 1.009813 0.199849 -0.809964
1406.7734375 0.968756 0.099941 -0.868815
1407.83203125 0.957414 0.042414 -0.915
1408.8984375 1.028864 0.113864 -0.915
1409.94140625 0.962555 0.024367 -0.938188
1411.00390625 0.940178 0.005902 -0.934276
1412.05078125 0.967018 0.021165 -0.945853
1413.078125 0.95 0.0 -0.95
1414.1328125 0.983561 0.02442 -0.959141
1415.19921875 0.92682 -0.037719 -0.964539
1416.265625 0.94 -0.01 -0.95
1417.33984375 0.9338829999999999 -0.020047 -0.95393
1418.40234375 0.878618 -0.050932 -0.92955
1419.453125 0.853688 -0.075675 -0.929363
1420.49609375 0.923553 0.01786 -0.905693
1421.52734375 0.9459919999999999 0.06 -0.885992
1422.57421875 0.9508220000000001 0.119541 -0.831281
1423.6328125 0.8988400000000001 0.12384 -0.775
1424.6796875 0.946382 0.197452 -0.74893
1425.72265625 0.923743 0.149212 -0.774531
1426.77734375 0.95494 0.14 -0.81494
1427.84765625 0.923898 0.018856 -0.905042
1428.8984375 0.902879 -0.051371 -0.95425
1429.93359375 0.903857 -0.0050 -0.908857
1430.9609375 0.839205 -0.030369 -0.869574
1431.99609375 0.826422 -0.088578 -0.915
1432.9921875 0.91572 0.031544 -0.884176
1434.00390625 0.845579 -0.029421 -0.875
1435.015625 0.8321000000000001 -0.0979 -0.93
1436.03515625 0.808494 -0.167407 -0.975901
1437.05859375 0.912477 -0.02 -0.932477
1438.08203125 0.956115 0.117136 -0.838979
1439.0703125 1.02767 0.082931 -0.944739
1440.0859375 1.024575 0.184894 -0.839681
1441.109375 0.940332 0.062676 -0.877656
1442.1328125 0.8903009999999999 0.014044 -0.876257
1443.18359375 0.918573 -0.045443 -0.964016
1444.2265625 0.8675269999999999 -0.076303 -0.94383
1445.27734375 0.89411 0.179325 -0.714785
1446.31640625 0.8521719999999999 0.284947 -0.567225
1447.33984375 0.83206 0.27206 -0.56
1448.3046875 0.84735 0.122391 -0.724959
1449.28125 0.839785 0.075 -0.764785
1450.30859375 0.8098970000000001 -0.063521 -0.873418
1451.328125 0.852676 -0.06 -0.912676
1452.34765625 0.878965 -0.056006 -0.934971
1453.375 0.837108 -0.155 -0.992108
1454.4296875 0.8495389999999999 -0.17 -1.019539
1455.4765625 0.8067739999999999 -0.202776 -1.00955
1456.53515625 0.8062579999999999 -0.168742 -0.975
1457.58984375 0.8692120000000001 -0.150096 -1.019308
1458.65234375 0.849844 -0.025156 -0.875
1459.703125 0.82262 0.009905 -0.812715
1460.7578125 0.838754 0.03 -0.808754
1461.8046875 0.8971330000000001 0.152452 -0.744681
1462.8515625 0.871185 0.02141 -0.849775
1463.8671875 0.820588 -0.088252 -0.90884
1464.89453125 0.8800760000000001 -0.040048 -0.920124
1465.9375 0.836699 -0.026333 -0.863032
1466.9453125 0.878344 0.038779 -0.839565
1467.9296875 0.884808 -0.022848 -0.907656
1468.93359375 0.857175 -0.02505 -0.882225
1469.95703125 0.875582 0.050582 -0.825
1470.984375 0.830712 0.013359 -0.817353
1472.0 0.836869 0.025 -0.811869
1473.0078125 0.853683 0.003958 -0.849725
1474.03515625 0.891086 0.011086 -0.88
1475.04296875 0.906152 -0.08721 -0.993362
0.0 1.23494 -1.0 -2.23494
0.0 0.8700000000000001 -1.0 -1.87
1477.81640625 0.8789589999999999 -0.645469 -1.524428
1478.71484375 0.6913530000000001 -0.382647 -1.074
0.0 1.26384 -1.0 -2.26384
1480.53515625 0.8208019999999999 0.161766 -0.659036
1481.421875 0.8148880000000001 0.509888 -0.305
1482.34375 0.796933 0.487266 -0.309667
1483.26171875 0.8074600000000001 0.489335 -0.318125
1484.1875 0.830679 0.545227 -0.285452
1485.125 0.8300000000000001 0.445 -0.385
1486.04296875 0.892157 0.423782 -0.468375
1486.95703125 0.831173 0.312025 -0.519148
1487.89453125 0.844789 0.149957 -0.694832
1488.8203125 0.8853219999999999 0.215344 -0.669978
1489.7421875 0.881603 0.1 -0.781603
1490.69921875 0.891403 0.101838 -0.789565
1491.62109375 0.886615 0.037566 -0.849049
1492.5546875 0.909187 0.034617 -0.87457
1493.4921875 0.90108 -0.07892 -0.98
1494.42578125 0.897099 -0.112882 -1.009981
1495.390625 0.939918 -0.104743 -1.044661
1496.375 0.9745699999999999 -0.155 -1.12957
1497.33203125 0.9744039999999999 -0.131676 -1.10608
1498.27734375 0.955 -0.09 -1.045
1499.26171875 0.899335 -0.090665 -0.99
1500.21484375 0.952703 -0.066569 -1.019272
1501.15234375 0.8993690000000001 -0.025631 -0.925
1502.12109375 0.905415 -0.049585 -0.955
1503.09375 0.9198879999999999 -0.010893 -0.930781
1504.0703125 0.917573 -0.011275 -0.928848
1505.04296875 0.94908 0.036296 -0.912784
1506.0234375 0.976144 0.241144 -0.735
1506.98828125 0.9650000000000001 0.445 -0.52
1507.99609375 0.9136169999999999 0.363685 -0.549932
1508.9921875 0.968075 0.304539 -0.663536
1509.98046875 0.9990220000000001 0.32 -0.679022
1510.9765625 0.992177 0.047368 -0.944809
1511.96875 0.9260339999999999 -0.166 -1.092034
1512.9921875 0.943827 -0.260742 -1.204569
1513.984375 0.986572 -0.308428 -1.295
1514.9609375 0.965042 -0.445 -1.410042
1515.9453125 1.043845 -0.380908 -1.424753
1516.91796875 0.9836100000000001 -0.215468 -1.199078
1517.890625 0.987012 0.012012 -0.975
1518.8671875 0.9232940000000001 0.059258 -0.864036
1519.8359375 0.8958969999999999 0.020897 -0.875
1520.81640625 0.897393 -0.020168 -0.917561
1521.796875 1.051258 -0.157911 -1.209169
1522.75390625 0.819924 -0.85214 -1.672064
1523.71484375 0.897052 0.03206 -0.864992
1524.6953125 1.077735 -0.113198 -1.190933
1525.66796875 0.9137379999999999 0.178738 -0.735
1526.59765625 0.853236 0.318341 -0.534895
1527.5546875 0.720967 0.221704 -0.499263
1528.48828125 0.8535079999999999 -0.426024 -1.279532
1529.40234375 0.8876 0.03896 -0.84864
1530.34375 0.718117 0.207461 -0.510656
1531.25 0.76747 -0.14 -0.90747
1532.15625 0.9040950000000001 0.084219 -0.819876
1533.07421875 0.844462 0.209462 -0.635
1533.98046875 0.909943 0.254984 -0.654959
1534.859375 0.8951439999999999 0.1182 -0.776944
1535.76171875 0.844457 0.217104 -0.627353
1536.65234375 0.851458 0.459619 -0.391839
1537.53125 0.7884690000000001 0.054629 -0.73384
1538.4296875 0.769683 0.064683 -0.705
1539.30078125 0.819672 0.13 -0.689672
1540.15625 0.8879690000000001 -0.165469 -1.053438
1541.02734375 0.899292 -0.530708 -1.43
0.0 0.869202 -1.0 -1.869202
1542.7578125 0.867892 -0.911428 -1.77932
1543.59765625 0.9390400000000001 -0.428782 -1.367822
1544.4609375 0.8627879999999999 -0.185313 -1.048101
1545.3046875 0.8801529999999999 -0.638488 -1.518641
1546.14453125 0.923998 -0.040006 -0.964004
1546.9921875 0.894378 -0.591276 -1.485654
1547.81640625 0.8096559999999999 -0.715344 -1.525
1548.62890625 0.8608960000000001 -0.22 -1.080896
0.0 1.0818750000000001 -1.0 -2.081875
1550.25 0.7200000000000001 -0.715 -1.435
1551.0390625 0.898115 0.484857 -0.413258
1551.80859375 0.759668 0.594697 -0.164971
1552.58984375 0.819461 0.404461 -0.415
1553.35546875 0.5949669999999999 -0.450033 -1.045
1554.12109375 0.779884 0.033638 -0.746246
1554.8828125 0.597346 0.044753 -0.552593
1555.65625 0.705695 0.278641 -0.427054
1556.40625 0.786953 0.401953 -0.385
1557.171875 0.7445569999999999 0.464684 -0.279873
1557.9375 0.693774 0.375 -0.318774
1558.71484375 0.789398 0.422593 -0.366805
1559.47265625 0.758774 0.345 -0.413774
1560.24609375 0.7758970000000001 0.270997 -0.5049
1560.9921875 0.828611 0.193611 -0.635
1561.76953125 0.7504540000000001 0.044945 -0.705509
1562.53125 0.900715 -0.269265 -1.16998
0.0 1.1 -1.0 -2.1
0.0 1.2095500000000001 -1.0 -2.20955
1564.859375 0.977657 -0.432109 -1.409766
1565.63671875 0.915 -0.48 -1.395
1566.40234375 0.908941 -0.330521 -1.239462
1567.19140625 0.9940230000000001 -0.980054 -1.974077
1567.94921875 1.0791149999999998 0.20958 -0.869535
1568.734375 0.7822209999999999 -0.590513 -1.372734
1569.484375 0.7856339999999999 -0.243428 -1.029062
1570.25 0.921869 0.19 -0.731869
1571.00390625 0.823763 0.315866 -0.507897
1571.74609375 0.9979169999999999 0.922993 -0.074924
1572.5 0.7620250000000001 1.05 0.287975
1573.24609375 0.727892 0.963107 0.235215
1573.98046875 0.765297 0.794969 0.029672
1574.70703125 0.865667 0.76159 -0.104077
1575.46484375 0.813474 0.773474 -0.04
1576.19921875 0.783731 0.654002 -0.129729
1576.94921875 0.813252 0.466317 -0.346935
1577.68359375 0.7496470000000001 -0.050051 -0.799698
1578.44140625 0.748939 -0.070635 -0.819574
1579.19140625 0.7843990000000001 0.184282 -0.600117
1579.95703125 0.725654 0.090654 -0.635
1580.73046875 0.824986 -0.345014 -1.17
1581.515625 0.7688 -0.805829 -1.574629
1582.28125 0.7017049999999999 -0.81808 -1.519785
1583.04296875 0.6848750000000001 -0.855 -1.539875
1583.828125 0.7100320000000001 -0.430581 -1.140613
1584.61328125 0.768362 -0.431638 -1.2
1585.40234375 0.748549 -0.523718 -1.272267
1586.171875 0.7147249999999999 -0.595101 -1.309826
1586.98046875 0.766347 -0.71504 -1.481387
0.0 1.5648240000000002 -1.0 -2.564824
0.0 1.1059329999999998 -1.0 -2.105933
1589.3828125 0.865462 -0.890784 -1.756246
1590.18359375 0.8198449999999999 -0.600123 -1.419968
1590.96875 0.8173360000000001 -0.442539 -1.259875
1591.76171875 0.791382 -0.286746 -1.078128
1592.5703125 0.7674949999999999 -0.047486 -0.814981
1593.34375 0.931056 0.398535 -0.532521
1594.125 0.834355 0.505 -0.329355
1594.89453125 0.849974 0.695 -0.154974
1595.65625 0.978931 0.32874 -0.650191
1596.4296875 0.871011 0.556011 -0.315
1597.19140625 0.678894 0.384675 -0.294219
1597.96484375 0.752939 0.355155 -0.397784
1598.7265625 0.636221 0.301221 -0.335
1599.484375 0.645257 0.060257 -0.585
1600.2421875 0.751773 -0.130494 -0.882267
1601.0234375 0.7311009999999999 -0.31113 -1.042231
1601.80078125 0.65864 -0.51636 -1.175
1602.5703125 0.750056 -0.679944 -1.43
1603.34765625 0.7048490000000001 -0.720151 -1.425
1604.125 0.6630719999999999 -0.655 -1.318072
1604.90234375 0.796131 -0.688745 -1.484876
1605.6796875 0.6942789999999999 -0.505711 -1.19999
1606.47265625 0.6554610000000001 -0.52193 -1.177391
1607.24609375 0.707713 -0.375435 -1.083148
1608.0234375 0.72034 -0.189548 -0.909888
1608.80859375 0.683461 -0.155133 -0.838594
1609.59375 0.827507 -0.057464 -0.884971
1610.375 0.668352 -0.13 -0.798352
1611.14453125 0.754851 -0.100061 -0.854912
1611.91796875 0.841119 -0.213881 -1.055
1612.6953125 0.747931 -0.397069 -1.145
1613.46484375 0.880284 -0.559716 -1.44
1614.23828125 0.9397519999999999 -0.280248 -1.22
1615.015625 0.890174 0.125513 -0.764661
1615.765625 1.151693 0.142212 -1.009481
1616.52734375 0.911991 -0.628009 -1.54
1617.28125 0.945159 -0.017969 -0.963128
1618.046875 0.979124 0.344909 -0.634215
1618.796875 0.861649 0.844382 -0.017267
1619.5234375 0.8638560000000001 0.904606 0.04075
1620.2578125 0.8630840000000001 0.698154 -0.16493
1620.9921875 0.7890639999999999 1.159258 0.370194
1621.71875 0.9706710000000001 0.547031 -0.42364
1622.4453125 1.037444 0.11745 -0.919994
1623.17578125 1.055727 0.174567 -0.88116
1623.90234375 0.8344579999999999 0.565 -0.269458
1624.6328125 0.7849999999999999 0.58 -0.205
1625.34375 0.799188 0.444188 -0.355
1626.09765625 0.742876 0.169775 -0.573101
1626.8125 0.854681 0.07 -0.784681
1627.55078125 0.857428 0.068174 -0.789254
1628.265625 0.738154 -0.146846 -0.885
1629.0234375 0.788889 -0.267477 -1.056366
1629.765625 0.830257 -0.304743 -1.135
1630.51171875 0.8293719999999999 -0.320628 -1.15
1631.265625 0.8745280000000001 -0.315206 -1.189734
1632.0390625 0.9392699999999999 -0.224449 -1.163719
1632.8046875 0.7994 -0.1856 -0.985
1633.546875 0.8743249999999999 -0.295675 -1.17
1634.3359375 0.8988809999999999 -0.680025 -1.578906
1635.10546875 0.9099749999999999 -0.615025 -1.525
1635.87890625 0.893481 -0.280934 -1.174415
1636.640625 0.970443 -0.094557 -1.065
1637.44140625 0.860971 -0.055419 -0.91639
1638.23046875 0.796092 -2.7E-5 -0.796119
1639.03125 0.819681 -0.095186 -0.914867
1639.83984375 0.7699630000000001 -0.084965 -0.854928
1640.6484375 0.877189 0.172727 -0.704462
1641.44140625 0.842537 0.314627 -0.52791
1642.234375 0.727978 0.338203 -0.389775
1643.0546875 0.747633 0.271581 -0.476052
1643.828125 0.802601 0.374905 -0.427696
1644.62109375 0.781089 0.324035 -0.457054
1645.38671875 0.8546670000000001 0.199667 -0.655
1646.18359375 0.819948 0.229948 -0.59
1646.984375 0.940767 0.136447 -0.80432
1647.7734375 0.918889 -0.116111 -1.035
1648.59765625 0.779457 -0.092508 -0.871965
1649.38671875 0.8745780000000001 -0.175281 -1.049859
1650.19921875 0.824764 -0.310892 -1.135656
1651.01953125 0.8234039999999999 -0.410033 -1.233437
1651.85546875 0.8558780000000001 -0.395006 -1.250884
1652.68359375 0.748418 -0.345 -1.093418
1653.48046875 0.854921 -0.465023 -1.319944
0.0 1.848125 -1.0 -2.848125
0.0 0.967681 -1.0 -1.967681
1657.58203125 0.9334 -0.5116 -1.445
1658.4140625 0.8148380000000001 -0.115162 -0.93
1659.2421875 0.799609 0.41139 -0.388219
1660.10546875 0.759968 0.769968 0.01
1660.94921875 0.8183479999999999 1.138348 0.32
1661.77734375 0.833173 1.24896 0.415787
1662.60546875 0.8184859999999999 0.95 0.131514
1663.4375 0.839934 1.050125 0.210191
1664.27734375 0.822267 0.96 0.137733
1665.13671875 0.7956190000000001 1.398085 0.602466
1665.99609375 0.7736939999999999 1.059124 0.28543
1666.828125 0.8097749999999999 0.749775 -0.06
1667.671875 0.866485 0.479766 -0.386719
1668.5546875 0.743688 0.083688 -0.66
1669.4140625 0.770636 -0.190621 -0.961257
1670.2578125 0.7455689999999999 -0.167503 -0.913072
1671.109375 0.7898769999999999 -0.26 -1.049877
1671.96484375 0.73675 -0.31825 -1.055
1672.80078125 0.832235 -0.252765 -1.085
1673.67578125 0.8121959999999999 -0.285304 -1.0975
1674.53125 0.85884 -0.345 -1.20384
1675.38671875 0.824243 -0.418084 -1.242327
1676.23046875 0.857996 -0.415076 -1.273072
1677.12109375 0.8308899999999999 -0.269026 -1.099916
1677.9921875 0.853973 -0.020915 -0.874888
1678.84375 0.876605 -0.128281 -1.004886
1679.703125 0.894505 0.114505 -0.78
1680.56640625 0.830873 0.004803 -0.82607
1681.44140625 0.800501 -0.009491 -0.809992
1682.33203125 0.802219 0.117219 -0.685
1683.1875 0.8485710000000001 0.053571 -0.795
1684.05859375 0.8947480000000001 0.309803 -0.584945
1684.921875 0.839823 0.809899 -0.029924
1685.80078125 0.818985 0.894415 0.07543
1686.66796875 0.8501909999999999 0.695 -0.155191
1687.51953125 0.816613 0.444946 -0.371667
1688.390625 0.82643 0.21043 -0.616
1689.2265625 0.818184 -0.039082 -0.857266
1690.0859375 0.8164150000000001 -0.345227 -1.161642
1690.9453125 0.8320700000000001 -0.47793 -1.31
1691.80078125 0.823974 -0.686018 -1.509992
1692.66796875 0.76333 -0.723704 -1.487034
1693.53515625 0.769503 -0.749716 -1.519219
1694.41796875 0.733732 -0.804586 -1.538318
1695.2578125 0.7677120000000001 -0.805956 -1.573668
1696.08203125 0.736007 -0.95647 -1.692477
1696.94140625 0.7699469999999999 -0.795053 -1.565
1697.76953125 0.7322310000000001 -0.925036 -1.657267
1698.6015625 0.748167 -0.536823 -1.28499
1699.453125 0.8199019999999999 -0.255098 -1.075
1700.2890625 0.814849 -0.095027 -0.909876
1701.125 0.7688280000000001 -0.1 -0.868828
1701.98046875 0.715381 -0.029619 -0.745
1702.8203125 0.743421 0.079344 -0.664077
1703.65625 0.799653 0.18 -0.619653
1704.46484375 0.781415 0.164509 -0.616906
1705.30078125 0.755 0.23 -0.525
1706.12109375 0.804924 0.42286 -0.382064
1706.94921875 0.7829360000000001 0.267175 -0.515761
1707.78125 0.819458 0.20457 -0.614888
1708.61328125 0.72 0.13 -0.59
1709.421875 0.7940780000000001 0.114325 -0.679753
1710.25 0.802681 0.14 -0.662681
1711.10546875 0.776621 -0.065014 -0.841635
1711.94140625 0.728553 -0.075168 -0.803721
1712.765625 0.795841 -0.114091 -0.909932
1713.62890625 0.804052 0.199052 -0.605
1714.46484375 0.9438479999999999 0.205 -0.738848
1715.3125 0.8790939999999999 0.318333 -0.560761
1716.16796875 0.985751 0.157336 -0.828415
1717.01953125 0.819924 -0.170006 -0.98993
1717.8671875 0.823216 -0.190784 -1.014
1718.703125 0.944299 -0.190701 -1.135
1719.5703125 0.924344 0.029344 -0.895
1720.4296875 0.907879 0.145 -0.762879
1721.26953125 0.914792 -0.125014 -1.039806
1722.14453125 0.873243 0.339925 -0.533318
1722.98828125 0.860515 0.389355 -0.47116
1723.8515625 0.9500390000000001 0.174258 -0.775781
1724.72265625 0.9321389999999999 0.222139 -0.71
1725.59765625 0.879151 0.254664 -0.624487
1726.4609375 0.968068 0.169976 -0.798092
1727.34765625 0.8703319999999999 0.171255 -0.699077
1728.2265625 0.889205 0.345745 -0.54346
1729.1015625 0.948863 0.324449 -0.624414
1729.94921875 0.855 0.15 -0.705
1730.80859375 0.845 0.1 -0.745
1731.65625 0.886551 0.04825 -0.838301
1732.50390625 0.8942680000000001 0.06 -0.834268
1733.34765625 0.9396089999999999 0.175 -0.764609
1734.1796875 0.897152 0.042152 -0.855
1735.0234375 0.8985809999999999 -0.121172 -1.019753
1735.87890625 0.9418 -0.013966 -0.955766
1736.73828125 0.898842 -0.455728 -1.35457
1737.60546875 1.073253 0.209952 -0.863301
1738.44921875 1.0445470000000001 0.309561 -0.734986
1739.33203125 1.04032 0.182219 -0.858101
1740.19921875 0.9102709999999999 -0.01549 -0.925761
1741.08203125 0.91996 0.118908 -0.801052
1741.953125 0.894754 -0.080217 -0.974971
1742.8125 0.9043370000000001 0.2195 -0.684837
1743.6484375 0.9147250000000001 -0.12613 -1.040855
1744.53125 0.814167 -0.050365 -0.864532
1745.39453125 0.848445 0.154994 -0.693451
1746.25390625 0.858765 0.146265 -0.7125
1747.12109375 0.812426 0.095 -0.717426
1747.9765625 0.7999999999999999 0.22 -0.58
1748.83984375 0.829833 0.047699 -0.782134
1749.72265625 0.829777 -0.105 -0.934777
1750.5859375 0.8798320000000001 -0.220168 -1.1
1751.453125 0.788064 -0.221086 -1.00915
1752.30078125 0.8126600000000002 -0.41234 -1.225
1753.171875 0.8332040000000001 -0.26548 -1.098684
1754.0234375 0.838696 -0.081136 -0.919832
1754.859375 0.824121 -0.205879 -1.03
1755.69921875 0.835 -0.03 -0.865
1756.5390625 0.9098660000000001 -0.010052 -0.919918
1757.3828125 0.8928729999999999 0.008303 -0.88457
1758.2265625 0.892739 -0.076928 -0.969667
1759.08984375 0.7926610000000001 -0.132339 -0.925
1759.91796875 0.8815120000000001 -0.042156 -0.923668
1760.75 0.8966350000000001 -0.125 -1.021635
1761.62109375 0.860938 0.08779 -0.773148
1762.4609375 0.8505690000000001 -0.21 -1.060569
1763.25390625 0.921929 -0.357957 -1.279886
1764.03515625 0.999352 -0.062792 -1.062144
1764.85546875 0.865234 0.050234 -0.815
1765.65625 0.8464999999999999 -0.0935 -0.94
1766.4609375 0.850861 -0.040219 -0.89108
1767.26171875 0.89 0.0 -0.89
1768.0625 0.839202 -0.034875 -0.874077
1768.86328125 0.864086 -0.17782 -1.041906
1769.6796875 0.8655149999999999 -0.21636 -1.081875
1770.4921875 0.924931 0.001493 -0.923438
1771.3125 0.8414750000000001 -0.153056 -0.994531
1772.1015625 0.846978 -0.071303 -0.918281
1772.921875 0.8164720000000001 -0.110481 -0.926953
1773.73046875 0.919429 -0.050052 -0.969481
1774.546875 0.8164170000000001 -0.094147 -0.910564
1775.375 0.8448669999999999 -0.17 -1.014867
1776.1953125 0.869175 -0.16412 -1.033295
1777.02734375 0.8492470000000001 -0.175519 -1.024766
1777.859375 0.8306389999999999 -0.164375 -0.995014
1778.69921875 0.8313460000000001 -0.315459 -1.146805
1779.53515625 0.82813 -0.232936 -1.061066
1780.359375 0.9050199999999999 -0.06998 -0.975
1781.203125 0.840082 -0.290247 -1.130329
1782.04296875 0.8398359999999999 -0.096265 -0.936101
1782.890625 0.8138350000000001 -0.269639 -1.083474
1783.75390625 0.826846 -0.268154 -1.095
1784.6015625 0.8585379999999999 -0.386316 -1.244854
1785.453125 0.845908 -0.19402 -1.039928
1786.30078125 0.895609 -0.224384 -1.119993
1787.171875 0.8559420000000001 -0.093934 -0.949876
1788.015625 0.847432 -0.157197 -1.004629
1788.828125 0.922839 -0.126589 -1.049428
1789.68359375 0.8053199999999999 -0.230141 -1.035461
1790.5078125 0.836725 -0.160542 -0.997267
1791.31640625 0.8899360000000001 -0.150064 -1.04
1792.14453125 0.844838 -0.085038 -0.929876
1792.96875 0.878133 -0.066691 -0.944824
1793.765625 0.8519 -0.032988 -0.884888
1794.57421875 0.858694 -0.037593 -0.896287
1795.41015625 0.859555 -0.20247 -1.062025
1796.20703125 0.948668 0.083668 -0.865
1797.0390625 0.839655 -0.155199 -0.994854
1797.8515625 0.854415 -0.225 -1.079415
1798.66015625 0.9086669999999999 -0.350702 -1.259369
1799.4921875 0.8661789999999999 -0.13861 -1.004789
1800.3125 0.825 -0.72 -1.545
1801.125 0.93 0.0050 -0.925
1801.95703125 0.821482 0.078755 -0.742727
1802.76953125 0.8449530000000001 -0.085047 -0.93
1803.57421875 0.8982239999999999 0.003956 -0.894268
1804.41015625 0.859772 -0.107354 -0.967126
