100 
294 
500 
739 
957 
1156 
1362 
1567 
1763 
1973 
2184 
2404 
2614 
2820 
3026 
3216 
3413 
3551 
3651 
3858 
3976 
4100 
4306 
4458 
4706 
4830 
5103 
5249 
5549 
5686 
5956 
6081 
6337 
6472 
6743 
6882 
7167 
7307 
7564 
7689 
7950 
8080 
8503 
9239 
9429 
9637 
9866 
10107 
10344 
10579 
10787 
10984 
11187 
11434 
11650 
11948 
12077 
12184 
12356 
12558 
12781 
13040 
13274 
13585 
13783 
13989 
14149 
14308 
14739 
15008 
15230 
15423 
15629 
15850 
15984 
16079 
16251 
16541 
16770 
16976 
17098 
17389 
17544 
17841 
18065 
18286 
18492 
18691 
18891 
19105 
19347 
19580 
19819 
20013 
20218 
20416 
20633 
20858 
21076 
21237 
21495 
21692 
21903 
22115 
22331 
22548 
22692 
22970 
23106 
23370 
23576 
23794 
23926 
24245 
24390 
24678 
24802 
25082 
25220 
25538 
25706 
26151 
26426 
26581 
27120 
27427 
27568 
27841 
27981 
28317 
28494 
28992 
29294 
29544 
29853 
30142 
30393 
30623 
30839 
31062 
31326 
31605 
31848 
32062 
32281 
32506 
32735 
32978 
33151 
33456 
33596 
33868 
34032 
34301 
34527 
34756 
34986 
35199 
35393 
35593 
35808 
36017 
36248 
36475 
36690 
36883 
37015 
37303 
37445 
37754 
37892 
38190 
38394 
38589 
38744 
39052 
39282 
39499 
39714 
39937 
40075 
40339 
40535 
40744 
40949 
41102 
41360 
41551 
41748 
41881 
42173 
42410 
42644 
42851 
43042 
43177 
43447 
43593 
43922 
44161 
44378 
45001 
45262 
45500 
45729 
45950 
46155 
46365 
46612 
46811 
47107 
47345 
47572 
47782 
48005 
48248 
48504 
48729 
48955 
49059 
49160 
49372 
49528 
49807 
50054 
50297 
50517 
50713 
50903 
51124 
51334 
51513 
51807 
52023 
52222 
52416 
52627 
52856 
53108 
53292 
53567 
53769 
53967 
54174 
54414 
54657 
54890 
55107 
55322 
55453 
55731 
55862 
56164 
56383 
56600 
56734 
56992 
57188 
57390 
57617 
57863 
58103 
58303 
58493 
58621 
58906 
59055 
59381 
59625 
59831 
60023 
60246 
60406 
60718 
60941 
61166 
61366 
61561 
61766 
61988 
62226 
62469 
62723 
62977 
63192 
63411 
63645 
63901 
64142 
64339 
64643 
64863 
64974 
65081 
65322 
65572 
65809 
66046 
66254 
66465 
66670 
66892 
66982 
67117 
67329 
67536 
67740 
67950 
68109 
68400 
68619 
68826 
69032 
69232 
69444 
69650 
69887 
70098 
70313 
70527 
70734 
70873 
70998 
71103 
71218 
71303 
71418 
71554 
71789 
71889 
71992 
72122 
72235 
72432 
72637 
72847 
73073 
73292 
73501 
73702 
73898 
74101 
74327 
74484 
74581 
74768 
74974 
75109 
75397 
75617 
75827 
76050 
76276 
76419 
76707 
76915 
77122 
77336 
77562 
77791 
77937 
78206 
78335 
78615 
78819 
79048 
79286 
79516 
79720 
79907 
80113 
80344 
80566 
80786 
80998 
81207 
81393 
81588 
81810 
82040 
82258 
82370 
82469 
82619 
82719 
82898 
83095 
83293 
83510 
83728 
83933 
84072 
84356 
84545 
84733 
84936 
85165 
85316 
85417 
85603 
85801 
85983 
86180 
86374 
86586 
86828 
87053 
87265 
87461 
87665 
87801 
88080 
88226 
88514 
88660 
88930 
89058 
89323 
89455 
89741 
89882 
90333 
90730 
91009 
91151 
91540 
91706 
92012 
92147 
92588 
93018 
93217 
93660 
94062 
94557 
95069 
95511 
95972 
96497 
96929 
97359 
97831 
98321 
98726 
99163 
99638 
100041 
100476 
100931 
101369 
101784 
102233 
102684 
103112 
103535 
103971 
104420 
104821 
105274 
105703 
106118 
106537 
106969 
107427 
107861 
108297 
108772 
109215 
109627 
110107 
111296 
111551 
111686 
111986 
112215 
112430 
112651 
112874 
113022 
113328 
113455 
113747 
113966 
114177 
114406 
114622 
114770 
115077 
115288 
115504 
115717 
115930 
116074 
116385 
116598 
116802 
117010 
117227 
117454 
117599 
117906 
118115 
118315 
118525 
118743 
118882 
119186 
119406 
119636 
119837 
120047 
120256 
120395 
120687 
120913 
121145 
121346 
121549 
121761 
121995 
122224 
122451 
122669 
122883 
123094 
123320 
123557 
123797 
124027 
124259 
124405 
124736 
124881 
125209 
125357 
125681 
125823 
126125 
126284 
126637 
126817 
127188 
127343 
127626 
127764 
128118 
128286 
128622 
128771 
129058 
129190 
129530 
129710 
130049 
130205 
130621 
131074 
131572 
132031 
132454 
132935 
133392 
133811 
135059 
135264 
135463 
135679 
135930 
136174 
136396 
136612 
136741 
137026 
137165 
137451 
137689 
137911 
138123 
138324 
138529 
138664 
138964 
139238 
139481 
139606 
139894 
140039 
140320 
140564 
140835 
141067 
141276 
141482 
141698 
141921 
142084 
142392 
142630 
142839 
143050 
143202 
143474 
143698 
143953 
144201 
144347 
144610 
144817 
145035 
145255 
145496 
145742 
145950 
146144 
146277 
146566 
146710 
147009 
147239 
147446 
147641 
147774 
148055 
148283 
148502 
148736 
148957 
149155 
149354 
149571 
149794 
150009 
150146 
150469 
150600 
150874 
151086 
151315 
151546 
151771 
151982 
152184 
152376 
152591 
152819 
153042 
153250 
153477 
153689 
153889 
154095 
154313 
154533 
154748 
154989 
155206 
155411 
155538 
155837 
156084 
156319 
156471 
156753 
156887 
157171 
157311 
157637 
157793 
158118 
158336 
158568 
158805 
159036 
159262 
159420 
159722 
159925 
160145 
160371 
160592 
160819 
161059 
161302 
161493 
161703 
161851 
162147 
162373 
162599 
162809 
163017 
163229 
163457 
163691 
163915 
164133 
164349 
164556 
164777 
165005 
165235 
165451 
165677 
165904 
166125 
166262 
166564 
166702 
167015 
167254 
167464 
167676 
167884 
168129 
168361 
168588 
168804 
169014 
169235 
169448 
169673 
169909 
170134 
170365 
170583 
170732 
171031 
171269 
171492 
171726 
171961 
172173 
172314 
172610 
172859 
173093 
173239 
173538 
173690 
173985 
174140 
174478 
174629 
174932 
175147 
175373 
175607 
175834 
176064 
176291 
176510 
176727 
176942 
177176 
177394 
177634 
177877 
178022 
178302 
178437 
178731 
178879 
179194 
179335 
179622 
179750 
180047 
180191 
180496 
180640 
180945 
181075 
181352 
181490 
181799 
181963 
182253 
182404 
182706 
182842 
183117 
183251 
183551 
183777 
184010 
184216 
184413 
184619 
184847 
185078 
185313 
185533 
185746 
185944 
186083 
186387 
186630 
186866 
187088 
187319 
187527 
187666 
187964 
188204 
188430 
188654 
188868 
189075 
189281 
189505 
189792 
189956 
190273 
190480 
190686 
190897 
191122 
191399 
191638 
191861 
192069 
192299 
192536 
192776 
193026 
193261 
193389 
193689 
193908 
194133 
194364 
194620 
194864 
195083 
195288 
195421 
195735 
195873 
196245 
196389 
196679 
196808 
197124 
197272 
197620 
197777 
198087 
198215 
198510 
198655 
198967 
199111 
199444 
199589 
199867 
199999 
200293 
200433 
200756 
200924 
201214 
201347 
201636 
201793 
202140 
202315 
202638 
202772 
203053 
203196 
203531 
203682 
203996 
204148 
204437 
204644 
204860 
205100 
205323 
205582 
205757 
206028 
206239 
206461 
206695 
206926 
207156 
207306 
207572 
207782 
208003 
208237 
208471 
208700 
208910 
209119 
209340 
209566 
209788 
210006 
210222 
210450 
210659 
210863 
211076 
211299 
211532 
211759 
211981 
212175 
212381 
212598 
212817 
213048 
213271 
213403 
213692 
213916 
214136 
214358 
214579 
214799 
215014 
215226 
215435 
215655 
215879 
216108 
216345 
216568 
216776 
216989 
217217 
217454 
217700 
217937 
218168 
218375 
218614 
218874 
219129 
219359 
219583 
219705 
220015 
220251 
220507 
220747 
220984 
221243 
221467 
221682 
221833 
222174 
222409 
222631 
222855 
223076 
223298 
223534 
223795 
224036 
224254 
224472 
224690 
224928 
225177 
225415 
225633 
225836 
226075 
226302 
226533 
226757 
226920 
227200 
227415 
227648 
227870 
228087 
228317 
228562 
228792 
228995 
229219 
229447 
229674 
229919 
230146 
230357 
230560 
230786 
231017 
231253 
231482 
231706 
231914 
232125 
232366 
232592 
232833 
233080 
233333 
233555 
233768 
234025 
234270 
234527 
234796 
234935 
235248 
235479 
235754 
236016 
236280 
236521 
236744 
236967 
237275 
237528 
237789 
238028 
238256 
238487 
238738 
239010 
239246 
239481 
239707 
239935 
240165 
240415 
240658 
240904 
241139 
241349 
241566 
241788 
242043 
242291 
242520 
242738 
242861 
243168 
243400 
243676 
243902 
244119 
244328 
244540 
244765 
244994 
245232 
245470 
245702 
245919 
246123 
246336 
246562 
246751 
247029 
247244 
247453 
247657 
247875 
248111 
248363 
248579 
248794 
249002 
249213 
249438 
249676 
249932 
250156 
250392 
250616 
250837 
251066 
251304 
251546 
251778 
252005 
252224 
252446 
252687 
252995 
253260 
253470 
253683 
253904 
254126 
254365 
254630 
254860 
255071 
255226 
255523 
255762 
255987 
256239 
256451 
256672 
256911 
257143 
257369 
257603 
257862 
258087 
258209 
258527 
258770 
259000 
259245 
259494 
259702 
259823 
260141 
260399 
260644 
260877 
261118 
261328 
261558 
261806 
262041 
262265 
262499 
262734 
262957 
263179 
263336 
263645 
263787 
264128 
264254 
264545 
264754 
265038 
265278 
265511 
265745 
265955 
266194 
266369 
266723 
266968 
267194 
267414 
267653 
267932 
268214 
268460 
268691 
268938 
269176 
269434 
269712 
269919 
270203 
270439 
270655 
270885 
271142 
271380 
271631 
271846 
272078 
272284 
272536 
272793 
273041 
273259 
273471 
273689 
273853 
274160 
274306 
274619 
274840 
275060 
275285 
275500 
275731 
275879 
276195 
276412 
276624 
276855 
277067 
277319 
277571 
277816 
278027 
278236 
278450 
278678 
278930 
279161 
279378 
279592 
279826 
280061 
280294 
280531 
280776 
281003 
281223 
281453 
281697 
281938 
282188 
282452 
282678 
282887 
283123 
283356 
283595 
283857 
284088 
284282 
284524 
284824 
285100 
285339 
285578 
285790 
286008 
286152 
286537 
286795 
287033 
287259 
287480 
287710 
287963 
288205 
288440 
288670 
288893 
289104 
289324 
289568 
289826 
290061 
290278 
290478 
290699 
290926 
291087 
291428 
291652 
291859 
292075 
292298 
292551 
292804 
292961 
293259 
293396 
293692 
293912 
294146 
294388 
294631 
294861 
295071 
295190 
295507 
295762 
296022 
296258 
296481 
296688 
296925 
297184 
297376 
297715 
297954 
298161 
298342 
298636 
298879 
299154 
299402 
299632 
299864 
300096 
300354 
300643 
300930 
301180 
301400 
301639 
301897 
302193 
302493 
302726 
302948 
303173 
303424 
303691 
303981 
304219 
304437 
304680 
304929 
305184 
305428 
305667 
305885 
306112 
306354 
306594 
306830 
307083 
307310 
307533 
307751 
307985 
308215 
308457 
308690 
308914 
309123 
309358 
309517 
309848 
310067 
310296 
310497 
310709 
310943 
311170 
311395 
312072 
312297 
312514 
312741 
312959 
313113 
313440 
313662 
313877 
314013 
314373 
314641 
314872 
315099 
315316 
315534 
315763 
315923 
316252 
316474 
316701 
316968 
317231 
317474 
317706 
317847 
318119 
318355 
318603 
318841 
319069 
319209 
319493 
319716 
319968 
320213 
320446 
320552 
320649 
320781 
320867 
321079 
321293 
321528 
321763 
321908 
322186 
322425 
322630 
322820 
323028 
323183 
323480 
323629 
323905 
324109 
324291 
324492 
324733 
324971 
325207 
325411 
325618 
325800 
326007 
326255 
326461 
326713 
326913 
327122 
327319 
327526 
327732 
327961 
328196 
328396 
328604 
328806 
328951 
329219 
329448 
329708 
329968 
330191 
330331 
330588 
330751 
331110 
331297 
331620 
331831 
332025 
332238 
332517 
332762 
333178 
333397 
333613 
333866 
334164 
334440 
334637 
334939 
335067 
335358 
335581 
335972 
336268 
336479 
336686 
336900 
337139 
337340 
337706 
337940 
338131 
338274 
338578 
338821 
339054 
339275 
339494 
339687 
339831 
340132 
340275 
340586 
340727 
341036 
341244 
341458 
341672 
341882 
342097 
342314 
342551 
342757 
342904 
343179 
343408 
343646 
343874 
344086 
344287 
344486 
344706 
344924 
345137 
345367 
345497 
345776 
345999 
346233 
346450 
346662 
346901 
347111 
347326 
347557 
347810 
348032 
348165 
348261 
348523 
348758 
348995 
349218 
349451 
349674 
349901 
350005 
350107 
350204 
350300 
350374 
350548 
350872 
351155 
351431 
351681 
351790 
351897 
352024 
352128 
352387 
352637 
352883 
353120 
353342 
353541 
353783 
354060 
354312 
354540 
354753 
354950 
355162 
355407 
355654 
355894 
356100 
356244 
356539 
356758 
356989 
357231 
357455 
357680 
357818 
358107 
358320 
358475 
358773 
359016 
359249 
359454 
359577 
359842 
359993 
360339 
360498 
360794 
360921 
361196 
361334 
361656 
361820 
362125 
362268 
362544 
362686 
362985 
363131 
363487 
363632 
363944 
364085 
364374 
364513 
364848 
365026 
365360 
365509 
365944 
366269 
366418 
366848 
367019 
367305 
367449 
367783 
367955 
368342 
368520 
368815 
368954 
369286 
369454 
369814 
369979 
370270 
370410 
370727 
370886 
371221 
371376 
371690 
371830 
372133 
372289 
372592 
372734 
373041 
373188 
373479 
373609 
373917 
374063 
374374 
374614 
374832 
375017 
375217 
375376 
375664 
375913 
376135 
376352 
376551 
376772 
377017 
377186 
377444 
377544 
377648 
377877 
378082 
378184 
378285 
378403 
378517 
378647 
378758 
378923 
379224 
379351 
379625 
379754 
380074 
380308 
380463 
380770 
380989 
381183 
381424 
381700 
381945 
382172 
382391 
382600 
382748 
383063 
383340 
383585 
383791 
383898 
384046 
384270 
384514 
384641 
384732 
384834 
384944 
385089 
385185 
385378 
385521 
385615 
385801 
386088 
386315 
386573 
386816 
387028 
387219 
387445 
387654 
387897 
388135 
388349 
388562 
388774 
388989 
389092 
389208 
389305 
389427 
389593 
389696 
389793 
389872 
390030 
390231 
390502 
390718 
390917 
391159 
391390 
391608 
391735 
392014 
392227 
392363 
392674 
392915 
393121 
393321 
393529 
393718 
393863 
394198 
394425 
394637 
394840 
395053 
395273 
395508 
395728 
395960 
396115 
396407 
396596 
396846 
397089 
397329 
397464 
397786 
397911 
398202 
398431 
398684 
398950 
399177 
399393 
399599 
399832 
400073 
400336 
400593 
400803 
400941 
401226 
401473 
401715 
401943 
402114 
402401 
402614 
402826 
403066 
403212 
403526 
403766 
403979 
404169 
404381 
404615 
404847 
405073 
405303 
405504 
405706 
405926 
406168 
406398 
406615 
406835 
407031 
407248 
407466 
407711 
407929 
408157 
408393 
408611 
408805 
409005 
409232 
409381 
409692 
409927 
410137 
410337 
410552 
410749 
410919 
411264 
411399 
411702 
411834 
412136 
412372 
412615 
412847 
413083 
413219 
413502 
413633 
413951 
414098 
414422 
414576 
414862 
414995 
415313 
415467 
415823 
416052 
416259 
416462 
416678 
416819 
417140 
417296 
417591 
417795 
418018 
418238 
418364 
418668 
418898 
419115 
419325 
419533 
419725 
419940 
420138 
420408 
420640 
420841 
420964 
421244 
421375 
421686 
421907 
422132 
422333 
422541 
422751 
422885 
423183 
423408 
423627 
423822 
424045 
424242 
424455 
424672 
424805 
425147 
425277 
425555 
425760 
425968 
426188 
426340 
426664 
426803 
427080 
427299 
427532 
427763 
427928 
428208 
428374 
428655 
428866 
429082 
429314 
429455 
429784 
429932 
430229 
430354 
430662 
430899 
431127 
431384 
431602 
431798 
432007 
432241 
432471 
432671 
432926 
433144 
433350 
433564 
433806 
433945 
434250 
434388 
434702 
434833 
435137 
435270 
435584 
435718 
436032 
436184 
436458 
436664 
436901 
437143 
437366 
437587 
437716 
437998 
438221 
438451 
438685 
438907 
439124 
439262 
439553 
439769 
439986 
440204 
440426 
440645 
440871 
441066 
441275 
441414 
441729 
441956 
442182 
442400 
442602 
442723 
443045 
443296 
443527 
443751 
443977 
444193 
444327 
444659 
444890 
445117 
445327 
445560 
445773 
446007 
446251 
446498 
446734 
446954 
447164 
447373 
447590 
447821 
448059 
448284 
448492 
448706 
448929 
449063 
449396 
449549 
449843 
450024 
450253 
450470 
450610 
450911 
451133 
451369 
451572 
451784 
451981 
452204 
452422 
452651 
452879 
453073 
453283 
453418 
453726 
453957 
454184 
454393 
454536 
454803 
454929 
455220 
455435 
455661 
455888 
456103 
456232 
456508 
456633 
456939 
457080 
457382 
457600 
457802 
458009 
458227 
458469 
458620 
458927 
459137 
459345 
459556 
459778 
460013 
460155 
460443 
460679 
460833 
461119 
461341 
461575 
461725 
462041 
