43 
251 
460 
661 
864 
1066 
1275 
1442 
1697 
1913 
2120 
2323 
2520 
2735 
2954 
3164 
3376 
3587 
3790 
3993 
4197 
4407 
4629 
4841 
5041 
5243 
5443 
5644 
5851 
6061 
6273 
6489 
6695 
6894 
7098 
7300 
7519 
7735 
7947 
8152 
8366 
8569 
8769 
8980 
9197 
9421 
9633 
9832 
10037 
10245 
10449 
10663 
10875 
11087 
11295 
11496 
11696 
11903 
12119 
12332 
12543 
12751 
12949 
13154 
13353 
13557 
13775 
13991 
14203 
14404 
14605 
14806 
15015 
15223 
15440 
15654 
15861 
16062 
16260 
16461 
16666 
16882 
17092 
17301 
17500 
17704 
17907 
18111 
18320 
18539 
18752 
18954 
19154 
19357 
19570 
19780 
19992 
20206 
20416 
20620 
20820 
21022 
21231 
21451 
21668 
21876 
22079 
22281 
22484 
22692 
22903 
23119 
23338 
23545 
23742 
23946 
24151 
24361 
24575 
24785 
24997 
25201 
25401 
25600 
25808 
26018 
26239 
26452 
26655 
26856 
27061 
27264 
27473 
27687 
27900 
28110 
28309 
28501 
28705 
28914 
29123 
29335 
29547 
29748 
29938 
30150 
30350 
30563 
30784 
30995 
31201 
31400 
31601 
31806 
32010 
32218 
32435 
32646 
32844 
33040 
33240 
33437 
33648 
33858 
34064 
34266 
34467 
34666 
34861 
35063 
35272 
35489 
35696 
35894 
36092 
36295 
36495 
36700 
36910 
37120 
37326 
37524 
37722 
37920 
38126 
38333 
38544 
38749 
38946 
39145 
39344 
39542 
39745 
39957 
40167 
40368 
40561 
40759 
40959 
41161 
41369 
41581 
41793 
41999 
42196 
42393 
42598 
42806 
43020 
43236 
43441 
43645 
43850 
44051 
44253 
44466 
44683 
44896 
45101 
45295 
45498 
45704 
45912 
46122 
46335 
46541 
46744 
46942 
47140 
47351 
47485 
47726 
47940 
48150 
48349 
48559 
48766 
48974 
49191 
49413 
49622 
49819 
50020 
50223 
50436 
50648 
50861 
51079 
51287 
51485 
51688 
51898 
52114 
52334 
52547 
52750 
52955 
53156 
53312 
53558 
53772 
53985 
54199 
54399 
54592 
54796 
55004 
55216 
55422 
55634 
55839 
56041 
56237 
56441 
56656 
56871 
57084 
57292 
57495 
57696 
57900 
58108 
58321 
58537 
58752 
58958 
59160 
59361 
59576 
59795 
60011 
60225 
60440 
60647 
60845 
61052 
61266 
61484 
61699 
61911 
62114 
62319 
62524 
62731 
62943 
63159 
63372 
63577 
63778 
63980 
64192 
64408 
64617 
64834 
65040 
65241 
65443 
65651 
65861 
66082 
66297 
66502 
66707 
66906 
67112 
67326 
67540 
67756 
67975 
68179 
68377 
68576 
68784 
69002 
69214 
69424 
69631 
69840 
70039 
70239 
70447 
70660 
70800 
71050 
71254 
71452 
71655 
71861 
72066 
72275 
72480 
72688 
72889 
73085 
73285 
73496 
73709 
73918 
74130 
74331 
74534 
74739 
74944 
75158 
75377 
75589 
75793 
75993 
76190 
76398 
76609 
76820 
77032 
77246 
77447 
77641 
77845 
78048 
78265 
78477 
78689 
78895 
79095 
79294 
79498 
79709 
79921 
80138 
80344 
80544 
80743 
80948 
81155 
81359 
81564 
81765 
81965 
82156 
82346 
82537 
82740 
82942 
83143 
83340 
83540 
83734 
83931 
84129 
84331 
84548 
84764 
84973 
85173 
85377 
85589 
85802 
86025 
86244 
86462 
86665 
86865 
87070 
87278 
87491 
87711 
87927 
88121 
88322 
88527 
88718 
88920 
89129 
89339 
89536 
89733 
89927 
90120 
90317 
90523 
90729 
90933 
91070 
91311 
91507 
91692 
91884 
92091 
92289 
92473 
92659 
92837 
93014 
93196 
93376 
93560 
93747 
93942 
94126 
94303 
94483 
94660 
94843 
95037 
95230 
95417 
95607 
95802 
95981 
96162 
96347 
96544 
96743 
96949 
97147 
97339 
97532 
97730 
97928 
98128 
98338 
98546 
98754 
98950 
99146 
99345 
99551 
99758 
99970 
100171 
100364 
100556 
100741 
100926 
101114 
101307 
101497 
101684 
101866 
102044 
102222 
102407 
102592 
102785 
102980 
103179 
103371 
103560 
103742 
103932 
104127 
104334 
104531 
104728 
104924 
105114 
105303 
105490 
105686 
105885 
106088 
106291 
106491 
106677 
106870 
107064 
107259 
107453 
107656 
107863 
108059 
108246 
108440 
108633 
108836 
109046 
109247 
109444 
109637 
109834 
110027 
110217 
110417 
110628 
110825 
111016 
111203 
111383 
111566 
111753 
111938 
112127 
112315 
112508 
112691 
112863 
113036 
113215 
113396 
113580 
113767 
113951 
114127 
114303 
114481 
114658 
114831 
115021 
115213 
115408 
115596 
115783 
115966 
116157 
116347 
116539 
116740 
116938 
117131 
117316 
117497 
117676 
117860 
118054 
118247 
118439 
118632 
118823 
119008 
119200 
119393 
119591 
119799 
120012 
120219 
120415 
120613 
120810 
121021 
121227 
121389 
121641 
121851 
122051 
122243 
122442 
122641 
122851 
123058 
123260 
123458 
123656 
123847 
124043 
124246 
124449 
124662 
124866 
125057 
125247 
125448 
125640 
125837 
126032 
126227 
126421 
126608 
126791 
126977 
127164 
127361 
127553 
127748 
127936 
128119 
128304 
128490 
128674 
128868 
129071 
129276 
129471 
129661 
129854 
130047 
130251 
130460 
130674 
130882 
131090 
131295 
131497 
131696 
131907 
132133 
132353 
132559 
132765 
132969 
133173 
133375 
133586 
133804 
134019 
134220 
134419 
134623 
134833 
135049 
135262 
135476 
135683 
135891 
136091 
136290 
136505 
136722 
136931 
137135 
137337 
137534 
137733 
137940 
138144 
138352 
138560 
138766 
138958 
139154 
139351 
139557 
139765 
139968 
140171 
140372 
140565 
140753 
140947 
141147 
141351 
141553 
141751 
141940 
142136 
142323 
142518 
142717 
142916 
143115 
143309 
143495 
143681 
143874 
144068 
144270 
144473 
144677 
144871 
145070 
145268 
145462 
145663 
145879 
146092 
146290 
146489 
146683 
146880 
147077 
147281 
147488 
147702 
147903 
148097 
148290 
148484 
148682 
148890 
149097 
149302 
149503 
149701 
149897 
150093 
150292 
150498 
150709 
150906 
151101 
151297 
151497 
151687 
151886 
152091 
152295 
152497 
152691 
152881 
153076 
153278 
153482 
153689 
153895 
154093 
154293 
154491 
154689 
154885 
155098 
155305 
155510 
155702 
155897 
156097 
156300 
156503 
156711 
156924 
157128 
157324 
157519 
157716 
157913 
158122 
158329 
158531 
158728 
158927 
159124 
159311 
159510 
159719 
159928 
160127 
160324 
160517 
160717 
160910 
161106 
161313 
161512 
161713 
161910 
162104 
162292 
162489 
162696 
162900 
163100 
163302 
163498 
163696 
163889 
164085 
164296 
164507 
164709 
164905 
165102 
165293 
165487 
165689 
165892 
166096 
166300 
166496 
166684 
166875 
167070 
167277 
167488 
167688 
167888 
168088 
168282 
168469 
168668 
168874 
169079 
169282 
169477 
169666 
169862 
170055 
170252 
170454 
170652 
170843 
171040 
171229 
171413 
171593 
171784 
171974 
172159 
172343 
172527 
172703 
172882 
173064 
173246 
173434 
173634 
173827 
174018 
174200 
174385 
174577 
174773 
174968 
175172 
175382 
175587 
175775 
175966 
176160 
176356 
176557 
176761 
176968 
177166 
177363 
177557 
177758 
177960 
178162 
178376 
178592 
178791 
178981 
179184 
179391 
179602 
179805 
180013 
180224 
180427 
180618 
180812 
181026 
181243 
181442 
181644 
181846 
182052 
182243 
182440 
182643 
182854 
183057 
183249 
183431 
183616 
183794 
183980 
184169 
184365 
184551 
184744 
184932 
185115 
185294 
185483 
185682 
185885 
186079 
186277 
186471 
186667 
186860 
187054 
187259 
187466 
187673 
187876 
188077 
188270 
188477 
188685 
188895 
189106 
189313 
189520 
189724 
189925 
190122 
190338 
190551 
190751 
190953 
191152 
191350 
191550 
191754 
191959 
192171 
192380 
192573 
192767 
192963 
193166 
193376 
193584 
193790 
194007 
194210 
194402 
194602 
194810 
195021 
195232 
195439 
195637 
195831 
196022 
196219 
196422 
196622 
196826 
197039 
197241 
197428 
197622 
197828 
198046 
198256 
198458 
198660 
198798 
199041 
199247 
199463 
199679 
199889 
200096 
200296 
200490 
200685 
200886 
201091 
201301 
201510 
201711 
201904 
202098 
202291 
202496 
202707 
202913 
203119 
203321 
203515 
203711 
203908 
204114 
204326 
204542 
204749 
204949 
205148 
205351 
205554 
205765 
205974 
206189 
206394 
206593 
206789 
206998 
207209 
207416 
207625 
207833 
208036 
208234 
208431 
208636 
208850 
209063 
209265 
209469 
209664 
209867 
210066 
210276 
210486 
210704 
210912 
211110 
211309 
211507 
211713 
211922 
212137 
212346 
212553 
212757 
212954 
213148 
213358 
213577 
213792 
213990 
214183 
214384 
214589 
214788 
214990 
215202 
215417 
215626 
215812 
216004 
216212 
216422 
216620 
216823 
217027 
217231 
217381 
217613 
217828 
218044 
218257 
218466 
218665 
218829 
219055 
219259 
219455 
219659 
219875 
220087 
220277 
220470 
220670 
220876 
221083 
221285 
221490 
221700 
221899 
222088 
222285 
222441 
222702 
222927 
223140 
223341 
223542 
223750 
223954 
224163 
224373 
224588 
224796 
224995 
225192 
225394 
225600 
225809 
225968 
226225 
226433 
226640 
226841 
226991 
227250 
227475 
227690 
227895 
228103 
228306 
228519 
228727 
228943 
229161 
229374 
229576 
229774 
229980 
230196 
230420 
230630 
230844 
231049 
231253 
231451 
231656 
231873 
232090 
232307 
232512 
232718 
232924 
233131 
233339 
233554 
233768 
233983 
234185 
234384 
234593 
234809 
235028 
235238 
235454 
235659 
235867 
236069 
236275 
236495 
236715 
236930 
237129 
237334 
237540 
237747 
237957 
238170 
238387 
238597 
238796 
238993 
239196 
239405 
239618 
239831 
240039 
240245 
240447 
240651 
240855 
241073 
241287 
241504 
241713 
241911 
242114 
242321 
242530 
242747 
242962 
243170 
243377 
243577 
243773 
243979 
244189 
244401 
244607 
244808 
245006 
245209 
245413 
245617 
245835 
246044 
246252 
246457 
246605 
246848 
247067 
247284 
247499 
247715 
247922 
248120 
248323 
248522 
248738 
248957 
249169 
249370 
249574 
249777 
249931 
250172 
250381 
250595 
250805 
251001 
251193 
251398 
251602 
251812 
252025 
252232 
252444 
252648 
252845 
253043 
253261 
253473 
253683 
253888 
254087 
254289 
254496 
254698 
254907 
255126 
255338 
255537 
255728 
255920 
256118 
256323 
256531 
256736 
256942 
257143 
257336 
257526 
257731 
257931 
258140 
258348 
258553 
258746 
258945 
259151 
259352 
259560 
259778 
259999 
260192 
260391 
260596 
260808 
261011 
261224 
261446 
261649 
261853 
262055 
262263 
262465 
262680 
262897 
263105 
263298 
263496 
263699 
263904 
264098 
264311 
264527 
264733 
264918 
265115 
265321 
265537 
265738 
265944 
266159 
266367 
266551 
266744 
266948 
267163 
267364 
267570 
267776 
267978 
268134 
268365 
268575 
268792 
269008 
269220 
269418 
269612 
269812 
270018 
270226 
270432 
270644 
270849 
271045 
271243 
271436 
271640 
271852 
272064 
272269 
272474 
272669 
272872 
273074 
273280 
273492 
273706 
273912 
274112 
274313 
274513 
274725 
274939 
275146 
275358 
275567 
275766 
275960 
276164 
276376 
276595 
276807 
277011 
277222 
277428 
277631 
277841 
278061 
278276 
278489 
278690 
278889 
279095 
279299 
279510 
279723 
279934 
280136 
280339 
280536 
280736 
280945 
281161 
281373 
281580 
281780 
281981 
282190 
282394 
282538 
282800 
283016 
283220 
283415 
283616 
283821 
284031 
284240 
284449 
284659 
284859 
285057 
285260 
285465 
285681 
285898 
286111 
286314 
286519 
286719 
286928 
287138 
287348 
287564 
287773 
287974 
288169 
288374 
288582 
288792 
289001 
289208 
289414 
289613 
289809 
290014 
290229 
290443 
290652 
290854 
291056 
291258 
291459 
291669 
291883 
292099 
292306 
292505 
292704 
292906 
293112 
293329 
293546 
293754 
293963 
294169 
294366 
294566 
294771 
294991 
295201 
295405 
295600 
295806 
296005 
296205 
296414 
296628 
296838 
297040 
297237 
297433 
297642 
297848 
298054 
298266 
298473 
298670 
298870 
299070 
299275 
299489 
299703 
299909 
300073 
300305 
300506 
300659 
300905 
301117 
301334 
301545 
301741 
301938 
302135 
302344 
302558 
302772 
302977 
303192 
303392 
303589 
303793 
304004 
304221 
304436 
304638 
304840 
305049 
305250 
305452 
305671 
305883 
306100 
306303 
306501 
306702 
306915 
307125 
307336 
307550 
307756 
307957 
308159 
308360 
308498 
308760 
308975 
309187 
309389 
309585 
309790 
309998 
310139 
310395 
310616 
310828 
311028 
311229 
311429 
311645 
311859 
312070 
312278 
312489 
312691 
312893 
313098 
313319 
313541 
313752 
313957 
314167 
314377 
314588 
314743 
315005 
315227 
315442 
315642 
315846 
316058 
316223 
316475 
316690 
316901 
317107 
317305 
317503 
317712 
317927 
318140 
318347 
318552 
318754 
318956 
319159 
319374 
319591 
319808 
320015 
320220 
320420 
320624 
320836 
321055 
321272 
321482 
321688 
321892 
322092 
322298 
322509 
322727 
322942 
323148 
323296 
323542 
323752 
323962 
324175 
324389 
324601 
324803 
324999 
325203 
325415 
325632 
325797 
326050 
326257 
326462 
326659 
326860 
327074 
327295 
327505 
327709 
327916 
328118 
328323 
328532 
328743 
328962 
329175 
329373 
329574 
329776 
329979 
330200 
330415 
330626 
330838 
331038 
331238 
331440 
331653 
331869 
332085 
332296 
332496 
332701 
332905 
333114 
333330 
333544 
333758 
333969 
334169 
334374 
334587 
334805 
335020 
335237 
335439 
335646 
335849 
336052 
336263 
336487 
336698 
336907 
337108 
337312 
337519 
337724 
337935 
338154 
338371 
338574 
338774 
338979 
339188 
339407 
339617 
339827 
340038 
340241 
340438 
340639 
340846 
341061 
341273 
341476 
341673 
341876 
342073 
342275 
342487 
342702 
342914 
343117 
343314 
343506 
343704 
343905 
344116 
344321 
344527 
344725 
344929 
345127 
345333 
345545 
345768 
345984 
346189 
346391 
346600 
346810 
347022 
347238 
347460 
347673 
347874 
348075 
348282 
348496 
348712 
348927 
349139 
349348 
349549 
349748 
349958 
350171 
350388 
350599 
350808 
351010 
351216 
351419 
351626 
351837 
352049 
352251 
352450 
352646 
352842 
353054 
353206 
353463 
353678 
353883 
354083 
354285 
354489 
354699 
354914 
355129 
355332 
355535 
355733 
355934 
356145 
356358 
356573 
356785 
356993 
357190 
357394 
357598 
357812 
358030 
358242 
358445 
358651 
358854 
359054 
359261 
359475 
359689 
359899 
360093 
360293 
360500 
360704 
360914 
361130 
361345 
361557 
361761 
361958 
362170 
362387 
362601 
362812 
363024 
363227 
363432 
363630 
363835 
364056 
364274 
364479 
364683 
364884 
365090 
365299 
365510 
365725 
365946 
366153 
366347 
366549 
366752 
366968 
367186 
367395 
367611 
367822 
368027 
368225 
368432 
368647 
368865 
369074 
369274 
369477 
369682 
369872 
370095 
370312 
370464 
370720 
370924 
371126 
371337 
371552 
371767 
371981 
372196 
372402 
372609 
372809 
373020 
373243 
373462 
373672 
373876 
374078 
374286 
374492 
374702 
374917 
375134 
375340 
375539 
375741 
375945 
376160 
376374 
376592 
376804 
377013 
377213 
377418 
377628 
377843 
378063 
378276 
378483 
378686 
378888 
379097 
379306 
379521 
379729 
379940 
380141 
380342 
380547 
380759 
380979 
381191 
381403 
381602 
381805 
382005 
382214 
382429 
382646 
382866 
383069 
383272 
383475 
383685 
383897 
384111 
384323 
384535 
384737 
384937 
385138 
385350 
385571 
385787 
385998 
386204 
386411 
386611 
386821 
387036 
387252 
387469 
387673 
387868 
388071 
388271 
388473 
388681 
388815 
389108 
389308 
389506 
389700 
389914 
390127 
390335 
390542 
390745 
390946 
391149 
391348 
391552 
391776 
391989 
392189 
392389 
392590 
392795 
393004 
393214 
393433 
393651 
393856 
394053 
394256 
394458 
394674 
394885 
395091 
395304 
395510 
395712 
395911 
396117 
396333 
396552 
396761 
396958 
397161 
397366 
397571 
397781 
397994 
398209 
398419 
398620 
398812 
399022 
399230 
399441 
399647 
399852 
400053 
400210 
400443 
400644 
400863 
401076 
401283 
401482 
401683 
401883 
402088 
402293 
402506 
402661 
402915 
403117 
403319 
403457 
403701 
403918 
404131 
404343 
404552 
404756 
404953 
405152 
405363 
405582 
405797 
406002 
406208 
406415 
406623 
406831 
407048 
407263 
407483 
407688 
407888 
408090 
408303 
408471 
408725 
408945 
409152 
409359 
409559 
409765 
409980 
410202 
410415 
410624 
410826 
411028 
411231 
411435 
411651 
411867 
412040 
412284 
412484 
412687 
412893 
413106 
413319 
413530 
413736 
413940 
414136 
414331 
414509 
414736 
414949 
415150 
415347 
415536 
415729 
415920 
416113 
416312 
416508 
416708 
416896 
417073 
417248 
417432 
417623 
417817 
418010 
418201 
418390 
418578 
418766 
418957 
419156 
419364 
419572 
419769 
419962 
420158 
420357 
420551 
420757 
420964 
421171 
421373 
421572 
421726 
421953 
422162 
422382 
422586 
422789 
422996 
423190 
423386 
423590 
423805 
424008 
424226 
424436 
424619 
424808 
424998 
425180 
425365 
425558 
425739 
425922 
426102 
426277 
426444 
426621 
426807 
426999 
427180 
427373 
427560 
427748 
427934 
428123 
428312 
428509 
428713 
428916 
429112 
429300 
429492 
429696 
429900 
430099 
430316 
430536 
430735 
430927 
431130 
431337 
431547 
431758 
431970 
432176 
432375 
432564 
432754 
432949 
433151 
433357 
433564 
433758 
433952 
434153 
434351 
434553 
434761 
434971 
435179 
435376 
435572 
435771 
435976 
436183 
436392 
436598 
436795 
436994 
437190 
437385 
437585 
437802 
438010 
438211 
438406 
438604 
438803 
439005 
439210 
439419 
439631 
439831 
440027 
440224 
440424 
440630 
440843 
441053 
441262 
441464 
441661 
441858 
442058 
442259 
442474 
442684 
442885 
443074 
443272 
443465 
443663 
443857 
444064 
444265 
444465 
444653 
444844 
445038 
445242 
445448 
445651 
445855 
446055 
446250 
446443 
446639 
446844 
447056 
447264 
447398 
447627 
447819 
448007 
448194 
448387 
448582 
448778 
448968 
449152 
449338 
449521 
449705 
449899 
450092 
450284 
450475 
450668 
450853 
451035 
451220 
451420 
451619 
451824 
452031 
452231 
452423 
452625 
452832 
453040 
453250 
453467 
453675 
453878 
454076 
454279 
454488 
454706 
454918 
455128 
455332 
455537 
455739 
455937 
456150 
456363 
456568 
456761 
456959 
457152 
457350 
457544 
457745 
457947 
458148 
458332 
458518 
458700 
458884 
459068 
459269 
459460 
459645 
459834 
460017 
460197 
460372 
460555 
460742 
460933 
461125 
461310 
461484 
461665 
461844 
462022 
