3.953125 1.163143 0.924102 -0.239041
4.50390625 1.041034 0.721034 -0.32
5.4609375 1.253888 0.884533 -0.369355
6.21484375 1.171635 0.864374 -0.307261
6.93359375 1.059951 0.754951 -0.305
7.5625 1.1116650000000001 0.797649 -0.314016
8.2109375 1.322349 0.989457 -0.332892
8.8828125 1.029289 0.744289 -0.285
9.64453125 1.0812140000000001 0.784316 -0.296898
10.5546875 1.2342710000000001 0.925 -0.309271
11.41796875 1.10765 0.822844 -0.284806
12.09375 1.168273 0.813309 -0.354964
12.75390625 1.201376 0.861601 -0.339775
13.46484375 1.223984 0.863984 -0.36
13.859375 1.1397849999999998 0.82 -0.319785
14.50390625 1.218118 0.818118 -0.4
15.21875 1.21496 0.8921 -0.32286
15.80078125 1.190523 0.849447 -0.341076
16.4453125 1.058019 0.793019 -0.265
16.953125 0.9933749999999999 0.71 -0.283375
17.75390625 1.296645 0.95708 -0.339565
18.4375 1.338636 1.008672 -0.329964
18.9921875 1.10178 0.823578 -0.278202
19.640625 1.105397 0.825827 -0.27957
20.34765625 1.294481 1.036376 -0.258105
21.15234375 1.211503 0.925 -0.286503
21.72265625 0.969838 0.744867 -0.224971
22.421875 1.107329 0.904134 -0.203195
23.06640625 1.214208 0.974536 -0.239672
23.65234375 1.1145800000000001 0.872021 -0.242559
24.078125 1.163964 0.897972 -0.265992
24.78515625 1.13099 0.89599 -0.235
25.328125 1.146868 0.877897 -0.268971
25.97265625 1.033598 0.778598 -0.255
26.7890625 1.104327 0.809479 -0.294848
27.80078125 1.237892 0.964492 -0.2734
28.5234375 1.068124 0.821542 -0.246582
29.2265625 1.089021 0.820095 -0.268926
29.921875 1.290732 0.983447 -0.307285
30.6796875 1.113294 0.860872 -0.252422
31.390625 1.086374 0.826406 -0.259968
31.875 1.145 0.865 -0.28
32.78125 1.1979069999999998 0.928375 -0.269532
33.35546875 1.072019 0.774901 -0.297118
34.0390625 1.174007 0.869285 -0.304722
34.59765625 1.148616 0.868772 -0.279844
35.25390625 1.165379 0.908789 -0.25659
35.9140625 1.084823 0.814823 -0.27
36.73046875 1.248418 0.944946 -0.303472
37.640625 1.145042 0.932198 -0.212844
38.33984375 1.1469449999999999 0.896983 -0.249962
38.953125 1.137099 0.872529 -0.26457
39.859375 1.267746 1.00357 -0.264176
40.6015625 1.1082429999999999 0.883331 -0.224912
41.296875 1.213574 0.969551 -0.244023
41.70703125 1.183732 0.943837 -0.239895
42.33984375 1.243828 0.965 -0.278828
42.97265625 1.124575 0.884575 -0.24
43.58984375 1.168529 0.9528 -0.215729
44.15625 1.2484600000000001 0.96503 -0.28343
44.8671875 1.10705 0.864374 -0.242676
45.578125 1.0698940000000001 0.824913 -0.244981
46.02734375 1.2278799999999999 0.959692 -0.268188
46.70703125 1.260222 0.945265 -0.314957
47.33984375 1.151766 0.881766 -0.27
47.98046875 1.080093 0.835813 -0.24428
48.40234375 1.184811 0.907688 -0.277123
48.71875 0.652536 0.427536 -0.225
49.375 1.102054 0.79 -0.312054
49.88671875 1.019581 0.727314 -0.292267
50.7265625 1.273229 0.954348 -0.318881
51.19140625 1.198698 0.924675 -0.274023
51.89453125 0.974964 0.724964 -0.25
52.5703125 1.137082 0.822634 -0.314448
52.98828125 1.3077320000000001 0.962856 -0.344876
53.61328125 1.0986159999999998 0.753616 -0.345
54.421875 1.005929 0.703672 -0.302257
55.0703125 1.150554 0.860562 -0.289992
55.69921875 1.176321 0.862883 -0.313438
56.3125 1.067814 0.79413 -0.273684
57.1796875 1.0980210000000001 0.80334 -0.294681
58.078125 1.182531 0.87423 -0.308301
58.80078125 1.129739 0.835662 -0.294077
59.46484375 1.132874 0.817874 -0.315
59.89453125 1.2899289999999999 0.954958 -0.334971
60.40234375 1.1772529999999999 0.822253 -0.355
61.01171875 1.088786 0.784114 -0.304672
61.93359375 1.249693 0.954834 -0.294859
62.7734375 1.190495 0.925641 -0.264854
63.20703125 1.123986 0.863131 -0.260855
63.65234375 1.188295 0.873614 -0.314681
64.31640625 1.30237 0.944622 -0.357748
65.2890625 1.1229770000000001 0.818288 -0.304689
65.71875 1.227079 0.932079 -0.295
66.3125 1.113187 0.793187 -0.32
67.19921875 1.264585 0.945787 -0.318798
67.76953125 1.114325 0.784981 -0.329344
68.44921875 1.049889 0.729921 -0.319968
69.08984375 1.175581 0.887733 -0.287848
69.77734375 1.177603 0.899531 -0.278072
70.4453125 1.08946 0.85946 -0.23
71.1796875 1.140862 0.890862 -0.25
71.828125 1.207938 0.947977 -0.259961
72.609375 1.0675599999999998 0.82756 -0.24
73.23046875 1.039381 0.764935 -0.274446
73.921875 1.168224 0.856116 -0.312108
74.45703125 0.9853810000000001 0.676771 -0.30861
75.1171875 1.084678 0.759802 -0.324876
75.71484375 1.023833 0.699993 -0.32384
76.234375 1.042363 0.737451 -0.304912
76.6640625 1.241321 0.914832 -0.326489
77.4453125 1.004955 0.714955 -0.29
78.13671875 1.095486 0.795486 -0.3
78.828125 1.193839 0.873882 -0.319957
79.49609375 0.984077 0.714093 -0.269984
80.32421875 1.062191 0.78951 -0.272681
80.984375 1.221647 0.923459 -0.298188
81.7890625 1.076559 0.794754 -0.281805
82.53515625 1.0951009999999999 0.795059 -0.300042
83.16796875 1.230861 0.921354 -0.309507
83.80859375 1.160391 0.913593 -0.246798
84.20703125 1.122462 0.852491 -0.269971
84.9375 1.06619 0.77619 -0.29
85.50390625 1.2119330000000001 0.89 -0.321933
86.17578125 1.062896 0.812913 -0.249983
86.9609375 1.0147249999999999 0.759813 -0.254912
88.1171875 1.2656699999999999 1.000754 -0.264916
88.9765625 1.038847 0.808847 -0.23
89.609375 1.015516 0.765955 -0.249561
90.08203125 1.163729 0.874271 -0.289458
90.63671875 1.129632 0.836624 -0.293008
91.28515625 1.01224 0.76224 -0.25
92.16015625 1.186356 0.919212 -0.267144
92.67578125 1.148552 0.872256 -0.276296
93.46875 1.086894 0.77707 -0.309824
94.15234375 1.064146 0.77451 -0.289636
95.0078125 1.213787 0.96152 -0.252267
95.421875 1.172888 0.904447 -0.268441
96.1796875 1.06875 0.80343 -0.26532
96.8671875 1.165744 0.86247 -0.303274
97.27734375 1.27469 0.964712 -0.309978
97.83984375 1.115 0.845 -0.27
98.265625 1.19904 0.877031 -0.322009
98.953125 1.074468 0.784478 -0.28999
99.78515625 1.164652 0.882985 -0.281667
100.7109375 1.004774 0.784774 -0.22
101.36328125 1.125578 0.881938 -0.24364
101.90234375 1.108109 0.818856 -0.289253
102.875 1.0831279999999999 0.85 -0.233128
103.33203125 1.125863 0.871847 -0.254016
103.7265625 1.077709 0.802709 -0.275
104.40234375 1.188516 0.943516 -0.245
105.0703125 1.061749 0.828865 -0.232884
105.76171875 1.107896 0.882984 -0.224912
106.44140625 1.2441460000000002 1.019146 -0.225
107.1796875 1.061553 0.844519 -0.217034
107.9609375 1.104004 0.864732 -0.239272
108.78515625 1.240934 0.984137 -0.256797
109.5859375 1.044921 0.824921 -0.22
110.51171875 1.226649 0.971649 -0.255
111.3359375 1.189508 0.954508 -0.235
111.9609375 0.9976039999999999 0.78482 -0.212784
112.80078125 1.193934 0.934322 -0.259612
113.3671875 1.159308 0.894381 -0.264927
114.0 1.099875 0.835 -0.264875
114.61328125 1.094876 0.855 -0.239876
115.33984375 1.277314 0.997769 -0.279545
115.82421875 1.115788 0.885788 -0.23
116.4609375 1.100749 0.849848 -0.250901
117.13671875 1.0730819999999999 0.793794 -0.279288
117.82421875 1.252588 0.938544 -0.314044
118.234375 1.123617 0.8 -0.323617
118.61328125 1.185737 0.844719 -0.341018
119.5078125 1.071637 0.742222 -0.329415
120.1171875 1.201519 0.851562 -0.349957
120.76171875 1.048722 0.777941 -0.270781
121.15625 1.1498279999999999 0.817113 -0.332715
122.04296875 1.249599 0.915522 -0.334077
123.1484375 1.087043 0.823971 -0.263072
124.02734375 1.043029 0.763614 -0.279415
124.78125 1.251102 0.928409 -0.322693
125.55859375 0.99561 0.736606 -0.259004
126.13671875 0.967801 0.677621 -0.29018
126.65234375 1.032846 0.699212 -0.333634
127.140625 1.112425 0.807425 -0.305
127.7421875 1.068874 0.779068 -0.289806
128.328125 0.948842 0.656108 -0.292734
129.05859375 1.132776 0.814704 -0.318072
129.8671875 1.082023 0.827023 -0.255
130.5625 0.920125 0.685125 -0.235
131.34765625 1.04093 0.737418 -0.303512
131.94921875 1.1192170000000001 0.799564 -0.319653
132.640625 1.0400040000000002 0.753708 -0.286296
133.203125 0.99237 0.71 -0.28237
133.8828125 1.104818 0.807366 -0.297452
134.4921875 1.129357 0.78937 -0.339987
135.18359375 1.100817 0.775817 -0.325
135.88671875 1.062314 0.762314 -0.3
136.49609375 1.197155 0.823089 -0.374066
137.16015625 1.134932 0.823 -0.311932
137.66796875 1.005 0.65 -0.355
138.0703125 1.038684 0.745 -0.293684
139.1171875 1.21282 0.89784 -0.31498
139.8125 0.993049 0.719038 -0.274011
140.671875 1.066119 0.781119 -0.285
141.47265625 1.202543 0.937543 -0.265
142.36328125 1.116292 0.844042 -0.27225
143.05859375 1.029936 0.73995 -0.289986
143.57421875 1.067565 0.717565 -0.35
144.20703125 1.210363 0.855373 -0.35499
144.83984375 0.9713579999999999 0.703677 -0.267681
145.57421875 1.075504 0.728448 -0.347056
146.30078125 1.222608 0.90835 -0.314258
146.9765625 1.107337 0.832817 -0.27452
147.8828125 1.033431 0.768431 -0.265
148.48046875 1.080559 0.790559 -0.29
148.9453125 1.287064 1.002514 -0.28455
149.57421875 1.1041349999999999 0.844247 -0.259888
150.23828125 1.12029 0.808254 -0.312036
151.140625 1.297061 1.004334 -0.292727
151.83203125 1.161168 0.957887 -0.203281
152.46484375 1.020474 0.800474 -0.22
153.08984375 1.199009 0.876377 -0.322632
153.50390625 1.226464 0.877006 -0.349458
154.22265625 1.174429 0.874541 -0.299888
154.66796875 1.178052 0.888487 -0.289565
155.68359375 1.253533 0.953897 -0.299636
156.2421875 1.243086 0.978086 -0.265
156.80078125 1.00857 0.77857 -0.23
157.4765625 1.067506 0.757506 -0.31
158.203125 1.284489 0.986104 -0.298385
158.7890625 1.055736 0.814928 -0.240808
159.2265625 1.151989 0.918864 -0.233125
160.3671875 1.188911 0.905559 -0.283352
161.20703125 1.17617 0.936498 -0.239672
161.83984375 1.1179540000000001 0.841026 -0.276928
162.35546875 1.01924 0.709952 -0.309288
162.71484375 1.179881 0.891623 -0.288258
163.36328125 1.199101 0.894415 -0.304686
164.12109375 1.059241 0.824241 -0.235
164.8125 1.059845 0.815 -0.244845
165.53515625 1.2118470000000001 0.970265 -0.241582
166.25 1.119854 0.87 -0.249854
166.890625 1.085671 0.795703 -0.289968
167.60546875 1.209286 0.929904 -0.279382
168.30078125 1.1345589999999999 0.855196 -0.279363
169.15625 0.979656 0.759656 -0.22
169.84765625 1.176385 0.911385 -0.265
170.54296875 1.110597 0.830597 -0.28
171.19140625 1.033447 0.774813 -0.258634
171.83203125 1.012689 0.728474 -0.284215
172.4296875 1.159891 0.813817 -0.346074
173.09765625 1.13955 0.83955 -0.3
173.515625 1.061154 0.796406 -0.264748
174.17578125 1.0448520000000001 0.769852 -0.275
174.78515625 1.14406 0.85906 -0.285
175.46484375 1.133689 0.873689 -0.26
175.96484375 0.926147 0.661203 -0.264944
176.71484375 0.982381 0.68786 -0.294521
177.3046875 0.9962169999999999 0.67636 -0.319857
178.01171875 1.15576 0.875912 -0.279848
178.6328125 1.002302 0.777366 -0.224936
179.23046875 1.029213 0.78 -0.249213
179.6953125 1.1055869999999999 0.854478 -0.251109
180.35546875 1.0999729999999999 0.864973 -0.235
180.890625 0.96472 0.744224 -0.220496
181.48828125 0.990483 0.735483 -0.255
182.3203125 1.234969 0.942183 -0.292786
183.1953125 1.010779 0.846141 -0.164638
183.8828125 0.993317 0.854805 -0.138512
185.09765625 1.293865 1.108865 -0.185
185.58203125 1.105772 0.909053 -0.196719
186.22265625 1.074557 0.854557 -0.22
186.81640625 1.16754 0.914828 -0.252712
187.56640625 1.229685 0.994685 -0.235
188.2578125 1.086711 0.846655 -0.240056
188.9140625 1.1078839999999999 0.839927 -0.267957
189.71875 1.136887 0.880727 -0.25616
190.4765625 1.094601 0.775095 -0.319506
191.5234375 1.123473 0.84543 -0.278043
192.1640625 1.246459 0.934316 -0.312143
192.99609375 1.071221 0.797185 -0.274036
193.48828125 1.09 0.78 -0.31
194.13671875 1.233366 0.93354 -0.299826
194.921875 1.092009 0.838568 -0.253441
195.53515625 0.93181 0.66181 -0.27
195.9375 1.150122 0.820132 -0.32999
196.30859375 1.2646220000000001 0.889622 -0.375
197.4140625 1.193832 0.898832 -0.295
198.0 1.068959 0.775 -0.293959
198.5546875 1.134452 0.794141 -0.340311
199.4921875 1.039231 0.758071 -0.28116
200.14453125 1.149884 0.844884 -0.305
200.56640625 1.195435 0.836582 -0.358853
201.34765625 1.126411 0.81182 -0.314591
202.02734375 0.963532 0.754491 -0.209041
202.6875 1.154526 0.863026 -0.2915
203.484375 1.0623399999999998 0.808317 -0.254023
204.2421875 1.0374700000000001 0.787695 -0.249775
204.78515625 1.124041 0.824055 -0.299986
205.6953125 1.133219 0.878233 -0.254986
206.890625 1.00708 0.798642 -0.208438
207.5078125 1.275409 0.977592 -0.297817
208.265625 1.206541 0.919275 -0.287266
208.8984375 1.055733 0.766717 -0.289016
209.5234375 1.108746 0.82 -0.288746
210.30859375 1.259647 0.934952 -0.324695
210.94921875 1.124005 0.884019 -0.239986
211.32421875 1.071531 0.762508 -0.309023
211.71875 1.193738 0.818738 -0.375
212.328125 1.2285490000000001 0.868877 -0.359672
213.16796875 1.0190569999999999 0.691498 -0.327559
213.8046875 1.012403 0.688016 -0.324387
214.80078125 1.261782 0.917007 -0.344775
215.32421875 1.022555 0.727718 -0.294837
215.92578125 1.057143 0.778683 -0.27846
216.52734375 1.130238 0.814864 -0.315374
216.94140625 1.337552 0.979154 -0.358398
217.609375 1.099339 0.805723 -0.293616
218.0390625 1.075676 0.809792 -0.265884
218.66015625 1.052635 0.732776 -0.319859
219.31640625 0.9675940000000001 0.579889 -0.387705
219.96484375 1.110729 0.8 -0.310729
220.640625 0.998415 0.736309 -0.262106
221.28125 1.058973 0.718973 -0.34
221.890625 1.2337630000000002 0.896286 -0.337477
222.9140625 0.999447 0.729447 -0.27
223.765625 1.14622 0.845768 -0.300452
224.5625 1.113189 0.882634 -0.230555
225.32421875 1.029737 0.784075 -0.245662
226.0859375 1.159065 0.849097 -0.309968
226.88671875 1.21903 0.924114 -0.294916
227.58203125 1.001684 0.749916 -0.251768
228.2421875 1.095702 0.830487 -0.265215
228.9375 1.325493 1.028688 -0.296805
229.82421875 1.042585 0.816652 -0.225933
230.65625 1.173576 0.893068 -0.280508
231.4140625 1.23968 0.949469 -0.290211
232.26953125 1.014668 0.729974 -0.284694
232.91015625 1.069591 0.784591 -0.285
233.765625 1.211548 0.92158 -0.289968
234.59375 1.028785 0.782852 -0.245933
235.33984375 1.189671 0.955137 -0.234534
235.91015625 1.1396929999999998 0.861026 -0.278667
236.44140625 0.989432 0.729432 -0.26
237.015625 1.022207 0.687207 -0.335
237.71875 1.251272 0.906814 -0.344458
238.44921875 1.122391 0.813387 -0.309004
238.8984375 1.156333 0.826333 -0.33
239.5 1.038333 0.775 -0.263333
239.97265625 1.068411 0.753411 -0.315
240.59765625 1.288327 0.918411 -0.369916
241.29296875 1.034222 0.715 -0.319222
241.9765625 1.135543 0.820648 -0.314895
242.6640625 1.266035 0.981054 -0.284981
243.17578125 1.1007609999999999 0.825 -0.275761
243.80078125 1.049113 0.8185 -0.230613
244.42578125 1.0230549999999998 0.766774 -0.256281
245.015625 1.2039659999999999 0.927198 -0.276768
245.4453125 1.28877 0.947489 -0.341281
246.078125 1.081885 0.833201 -0.248684
246.46484375 1.11432 0.83 -0.28432
247.25 1.262325 0.995 -0.267325
247.98046875 1.129639 0.899932 -0.229707
248.60546875 1.044988 0.814988 -0.23
249.37109375 1.0603259999999999 0.834105 -0.226221
250.140625 1.166512 0.919714 -0.246798
250.9375 1.044219 0.805 -0.239219
251.69921875 1.185889 0.906889 -0.279
252.33984375 1.1958119999999999 0.957888 -0.237924
252.90625 1.062975 0.825147 -0.237828
253.56640625 1.114587 0.844606 -0.269981
254.22265625 1.276554 0.97902 -0.297534
254.875 1.149176 0.835 -0.314176
255.6171875 0.9637309999999999 0.711587 -0.252144
256.65234375 1.23416 0.994707 -0.239453
257.19921875 1.096449 0.842186 -0.254263
257.8515625 1.118895 0.884575 -0.23432
258.47265625 1.152697 0.927203 -0.225494
259.0 1.189375 0.885 -0.304375
259.37890625 1.291573 0.981517 -0.310056
260.015625 1.047124 0.774116 -0.273008
261.0 1.223856 0.955 -0.268856
261.53125 1.1617439999999999 0.920963 -0.240781
262.203125 1.00755 0.818693 -0.188857
262.90625 1.0577020000000001 0.849265 -0.208437
263.54296875 1.105 0.89 -0.215
264.203125 1.264716 0.974716 -0.29
264.578125 1.048556 0.809802 -0.238754
265.55859375 1.114304 0.869304 -0.245
266.2109375 1.274664 1.009664 -0.265
267.12890625 1.10753 0.842568 -0.264962
267.96875 1.186181 0.918828 -0.267353
268.734375 1.221253 0.981253 -0.24
269.1796875 1.112514 0.857514 -0.255
269.78125 1.06891 0.800818 -0.268092
270.421875 1.221505 0.933693 -0.287812
271.0234375 1.1254359999999999 0.904218 -0.221218
271.68359375 1.034004 0.834004 -0.2
272.81640625 1.210159 0.999828 -0.210331
273.6640625 1.11443 0.899873 -0.214557
274.23828125 0.930054 0.695138 -0.234916
275.0390625 1.044379 0.809379 -0.235
275.94921875 1.265818 1.011697 -0.254121
276.703125 1.069185 0.854185 -0.215
277.49609375 1.152131 0.852131 -0.3
278.1796875 1.3048950000000001 0.990214 -0.314681
278.93359375 1.088595 0.769021 -0.319574
279.82421875 1.121889 0.763506 -0.358383
280.74609375 1.236505 0.875068 -0.361437
281.45703125 1.100694 0.805782 -0.294912
282.00390625 0.9663459999999999 0.68206 -0.284286
282.65234375 1.248547 0.914119 -0.334428
283.46875 1.147653 0.812679 -0.334974
284.1875 1.0396999999999998 0.7897 -0.25
284.79296875 1.12751 0.848494 -0.279016
285.1796875 1.170777 0.906141 -0.264636
285.85546875 1.004745 0.794939 -0.209806
286.640625 0.985809 0.720809 -0.265
287.328125 1.219832 0.895 -0.324832
287.9453125 1.1529150000000001 0.834299 -0.318616
288.5546875 1.037643 0.728566 -0.309077
289.203125 1.08851 0.74851 -0.34
289.828125 1.237758 0.917758 -0.32
290.55078125 1.077256 0.797256 -0.28
291.55078125 1.053099 0.778099 -0.275
292.421875 1.2683339999999999 0.994914 -0.27342
293.01953125 1.079898 0.839898 -0.24
293.96484375 1.120736 0.822779 -0.297957
294.58203125 1.206094 0.92521 -0.280884
294.953125 1.227474 0.914297 -0.313177
295.6484375 1.069524 0.769562 -0.299962
296.21484375 0.972356 0.667356 -0.305
297.078125 1.235872 0.867089 -0.368783
298.0546875 1.013462 0.725728 -0.287734
299.015625 1.175768 0.885768 -0.29
299.9296875 1.152506 0.892535 -0.259971
300.48046875 1.009953 0.789953 -0.22
301.23828125 1.119351 0.884841 -0.23451
301.91015625 1.228496 0.979902 -0.248594
302.609375 1.057432 0.842803 -0.214629
303.29296875 1.039767 0.791204 -0.248563
304.0625 1.251328 0.97 -0.281328
304.4765625 1.048141 0.763141 -0.285
305.08984375 1.117318 0.80743 -0.309888
305.9453125 1.1520489999999999 0.888311 -0.263738
306.45703125 1.188394 0.853519 -0.334875
307.109375 1.027263 0.772263 -0.255
307.7265625 1.02732 0.75732 -0.27
308.61328125 1.263862 0.998862 -0.265
309.390625 1.088543 0.874199 -0.214344
310.09765625 1.038501 0.826251 -0.21225
310.81640625 1.213757 0.969304 -0.244453
311.453125 1.1683599999999998 0.92836 -0.24
312.34765625 1.046961 0.838207 -0.208754
313.0 1.124725 0.89 -0.234725
314.1953125 1.121258 0.946265 -0.174993
314.9140625 1.004894 0.839894 -0.165
315.33984375 1.049888 0.82 -0.229888
316.04296875 1.293225 0.97447 -0.318755
316.8828125 1.078702 0.849561 -0.229141
317.75390625 1.118665 0.843779 -0.274886
318.578125 1.2355049999999999 0.940533 -0.294972
319.16796875 1.0686499999999999 0.808824 -0.259826
319.78515625 1.08115 0.794345 -0.286805
320.55078125 1.247164 0.940438 -0.306726
321.05078125 1.200428 0.899815 -0.300613
321.796875 1.044419 0.799419 -0.245
322.390625 1.014217 0.684217 -0.33
323.04296875 1.223814 0.887095 -0.336719
323.703125 1.147154 0.797154 -0.35
324.1796875 1.016645 0.691645 -0.325
324.6953125 0.9005460000000001 0.630546 -0.27
325.41796875 1.211784 0.872331 -0.339453
325.8515625 1.22871 0.893976 -0.334734
326.328125 1.054162 0.749162 -0.305
327.50390625 1.0536379999999999 0.7938 -0.259838
328.17578125 1.185796 0.895796 -0.29
328.6171875 1.204415 0.845 -0.359415
329.29296875 1.035171 0.769716 -0.265455
329.8046875 0.9907090000000001 0.676033 -0.314676
330.484375 1.241269 0.934423 -0.306846
331.3203125 1.077084 0.847514 -0.22957
332.01953125 0.954519 0.739988 -0.214531
332.984375 1.257942 0.972942 -0.285
334.51953125 1.11785 0.929893 -0.187957
335.203125 1.237538 1.062443 -0.175095
335.88671875 1.201512 1.011536 -0.189976
336.5078125 1.132607 0.950789 -0.181818
337.3203125 1.060485 0.865485 -0.195
338.04296875 1.253501 1.033501 -0.22
338.69140625 1.104892 0.914892 -0.19
339.45703125 1.056295 0.824463 -0.231832
340.078125 1.1496 0.8846 -0.265
340.65625 1.149858 0.854604 -0.295254
341.2421875 0.995788 0.759947 -0.235841
342.34375 1.164368 0.908799 -0.255569
343.19921875 1.1764299999999999 0.93643 -0.24
343.875 1.038451 0.82 -0.218451
344.5546875 1.109577 0.785961 -0.323616
345.1640625 1.169799 0.854799 -0.315
345.84765625 1.0772819999999999 0.827282 -0.25
346.4921875 1.1114419999999998 0.819807 -0.291635
346.89453125 1.037891 0.71 -0.327891
347.62890625 1.178988 0.925269 -0.253719
348.3828125 1.025 0.835 -0.19
349.3828125 1.179979 0.934321 -0.245658
350.03515625 1.148279 0.91906 -0.229219
350.58203125 0.99818 0.74318 -0.255
351.3125 1.071393 0.753667 -0.317726
352.125 1.1940680000000001 0.915 -0.279068
352.6875 0.998661 0.798661 -0.2
353.453125 1.019707 0.802104 -0.217603
354.0546875 1.120382 0.828098 -0.292284
354.6484375 1.163904 0.881482 -0.282422
355.4453125 1.019479 0.778022 -0.241457
356.0625 0.951797 0.696797 -0.255
356.6875 1.142215 0.883466 -0.258749
357.0859375 1.099821 0.844859 -0.254962
357.76171875 0.987553 0.804428 -0.183125
358.50390625 1.003534 0.804894 -0.19864
359.0390625 1.048429 0.809894 -0.238535
359.7890625 1.139271 0.899927 -0.239344
360.44140625 1.060845 0.825845 -0.235
361.3671875 1.147702 0.913073 -0.234629
362.2421875 1.113453 0.981444 -0.132009
362.71484375 1.045881 0.92243 -0.123451
363.421875 1.041236 0.866112 -0.175124
363.859375 1.140023 0.910703 -0.22932
364.49609375 1.200915 0.955915 -0.245
365.3671875 0.9951669999999999 0.746026 -0.249141
366.09375 1.054025 0.83925 -0.214775
366.68359375 1.2394180000000001 0.974507 -0.264911
367.33203125 1.026621 0.796621 -0.23
368.21875 1.041479 0.812705 -0.228774
368.93359375 1.1789 0.934896 -0.244004
369.890625 1.017377 0.797396 -0.219981
370.6328125 1.021739 0.771739 -0.25
371.64453125 1.23015 0.949196 -0.280954
372.38671875 1.048152 0.818152 -0.23
373.234375 1.1253790000000001 0.855809 -0.26957
373.91015625 1.23849 0.964856 -0.273634
374.5625 1.0929659999999999 0.82 -0.272966
375.25390625 0.953132 0.703132 -0.25
375.98828125 1.1928779999999999 0.843691 -0.349187
376.69140625 1.186939 0.85438 -0.332559
377.41796875 1.11211 0.813033 -0.299077
378.03125 1.065187 0.718906 -0.346281
381.7421875 1.066724 0.779458 -0.287266
383.796875 1.12276 0.87 -0.25276
385.28515625 1.2614109999999998 0.994366 -0.267045
386.9296875 1.294638 1.004638 -0.29
388.03125 1.254062 0.934062 -0.32
389.6015625 1.328038 1.005719 -0.322319
390.95703125 1.137995 0.869142 -0.268853
392.89453125 1.190897 0.879964 -0.310933
394.33984375 1.322113 0.982874 -0.339239
395.65625 1.137333 0.882447 -0.254886
396.91796875 1.2391649999999998 0.974776 -0.264389
397.58203125 0.927713 0.062844 -0.864869
398.26171875 1.221429 0.831859 -0.38957
399.51171875 1.191483 0.861508 -0.329975
400.90234375 1.3486420000000001 0.993959 -0.354683
402.078125 1.1404320000000001 0.872386 -0.268046
403.109375 0.851086 0.092905 -0.758181
404.37890625 1.140977 0.776065 -0.364912
405.609375 1.274932 0.840576 -0.434356
406.80078125 1.149313 0.765229 -0.384084
407.953125 1.289862 0.859915 -0.429947
409.09765625 1.132622 0.782622 -0.35
410.2578125 1.273351 0.844613 -0.428738
411.48046875 1.081829 0.774301 -0.307528
412.7734375 1.301494 0.914792 -0.386702
413.96484375 1.107266 0.798694 -0.308572
415.1953125 1.298007 0.923303 -0.374704
416.453125 1.096162 0.79 -0.306162
417.81640625 1.246579 0.924548 -0.322031
419.15625 1.071598 0.780714 -0.290884
420.4140625 1.224401 0.914871 -0.30953
421.625 1.134329 0.825 -0.309329
422.86328125 1.215427 0.897953 -0.317474
424.1796875 1.134274 0.79373 -0.340544
425.41015625 1.213348 0.878348 -0.335
426.59375 1.104465 0.799682 -0.304783
427.56640625 0.940506 0.084803 -0.855703
428.48046875 1.122494 0.754994 -0.3675
430.4296875 1.189471 0.898019 -0.291452
431.03125 0.528055 0.34 -0.188055
432.32421875 1.214143 0.909885 -0.304258
434.12890625 1.269917 0.913996 -0.355921
435.41796875 1.1170140000000002 0.847014 -0.27
436.57421875 0.925052 0.152126 -0.772926
437.36328125 1.161768 0.876768 -0.285
438.546875 1.245814 0.932829 -0.312985
439.07421875 0.689284 0.406929 -0.282355
440.4609375 1.132762 0.899978 -0.232784
442.453125 1.12743 0.914704 -0.212726
444.3125 1.1728020000000001 0.94369 -0.229112
446.13671875 1.225866 0.888582 -0.337284
448.03515625 1.121379 0.832961 -0.288418
449.21484375 1.164101 0.87877 -0.285331
451.03515625 1.302895 0.997924 -0.304971
452.25390625 1.11946 0.867435 -0.252025
453.59765625 1.2883799999999999 1.00338 -0.285
454.97265625 1.1047289999999998 0.854729 -0.25
456.21484375 1.247886 0.946231 -0.301655
457.5078125 1.148251 0.848251 -0.3
458.7734375 1.207027 0.930648 -0.276379
459.74609375 0.922323 0.101034 -0.821289
460.77734375 1.3675140000000001 0.915 -0.452514
461.98828125 1.1009229999999999 0.781635 -0.319288
463.8203125 1.063452 0.789436 -0.274016
465.07421875 1.338967 0.882376 -0.456591
466.33984375 1.132622 0.812961 -0.319661
467.56640625 1.166815 0.78953 -0.377285
468.09375 0.588438 0.264063 -0.324375
469.4140625 1.111427 0.82204 -0.289387
470.640625 1.249096 0.890623 -0.358473
471.64453125 0.959762 0.124941 -0.834821
472.62890625 1.317707 0.923946 -0.393761
473.8359375 1.124053 0.829883 -0.29417
475.10546875 1.229402 0.944841 -0.284561
476.390625 1.161593 0.928374 -0.233219
477.44921875 0.732791 0.08766 -0.645131
477.81640625 0.07283199999999998 -0.162168 -0.235
478.42578125 0.438774 0.19 -0.248774
479.06640625 1.156844 0.81953 -0.337314
479.5390625 0.511314 0.219789 -0.291525
479.91015625 0.444971 0.275 -0.169971
480.578125 1.316864 0.992406 -0.324458
481.078125 0.998366 0.73873 -0.259636
481.57421875 1.024217 0.744598 -0.279619
482.0625 1.065206 0.702045 -0.363161
482.5 1.23116 0.88 -0.35116
483.00390625 1.135777 0.780777 -0.355
483.71875 1.021077 0.764023 -0.257054
484.17578125 0.552779 0.316929 -0.23585
484.890625 1.317272 0.992396 -0.324876
485.39453125 1.148631 0.79961 -0.349021
486.04296875 1.1335140000000001 0.793761 -0.339753
486.578125 0.934363 0.67 -0.264363
487.1015625 1.139753 0.77 -0.369753
487.62890625 1.147036 0.778911 -0.368125
488.2421875 1.0765959999999999 0.772426 -0.30417
489.078125 1.053998 0.738998 -0.315
489.60546875 1.06989 0.75996 -0.30993
490.34765625 1.161721 0.866791 -0.29493
491.09765625 1.084857 0.809857 -0.275
491.82421875 1.076082 0.780254 -0.295828
492.26171875 1.2494239999999999 0.888026 -0.361398
492.8515625 1.137291 0.832291 -0.305
493.36328125 1.003079 0.73322 -0.269859
494.078125 1.083672 0.75 -0.333672
494.83984375 1.222779 0.912779 -0.31
495.28515625 1.222182 0.952762 -0.26942
495.84375 1.1275 0.8525 -0.275
496.67578125 1.109005 0.843591 -0.265414
497.2890625 1.243863 0.944595 -0.299268
497.70703125 1.239121 0.935 -0.304121
498.43359375 0.975302 0.754389 -0.220913
498.93359375 0.944027 0.70495 -0.239077
499.640625 1.251646 0.941696 -0.30995
500.18359375 1.080674 0.82836 -0.252314
500.78125 1.034258 0.864258 -0.17
501.2578125 1.0223 0.8048 -0.2175
501.71875 1.1191659999999999 0.839635 -0.279531
502.109375 1.047946 0.762946 -0.285
502.67578125 1.109153 0.835 -0.274153
503.2734375 1.00711 0.76328 -0.24383
504.0 1.0550000000000002 0.775 -0.28
504.3984375 0.707595 0.402655 -0.30494
504.765625 0.49814499999999995 0.348145 -0.15
505.37109375 1.1024829999999999 0.816226 -0.286257
506.0078125 1.018851 0.729301 -0.28955
507.20703125 1.22 0.95 -0.27
508.15234375 1.055599 0.829859 -0.22574
509.01171875 1.179295 0.920783 -0.258512
509.4140625 0.639945 0.354945 -0.285
510.2421875 1.114568 0.819597 -0.294971
510.8046875 0.920123 0.634962 -0.285161
511.1953125 1.223779 0.893779 -0.33
511.890625 1.246372 0.926518 -0.319854
512.30859375 1.139726 0.889726 -0.25
512.78125 0.9600629999999999 0.705139 -0.254924
513.2109375 1.014707 0.695 -0.319707
514.80859375 1.155703 0.878542 -0.277161
516.76953125 1.159536 0.934986 -0.22455
517.71875 1.0861100000000001 0.86611 -0.22
519.72265625 1.044638 0.834638 -0.21
520.34375 1.086728 0.817705 -0.269023
522.1796875 1.087529 0.871248 -0.216281
522.734375 1.051454 0.791578 -0.259876
523.828125 1.299088 0.937897 -0.361191
525.1796875 1.077795 0.8246 -0.253195
526.08984375 0.962635 0.131907 -0.830728
526.3046875 1.0309760000000001 0.200248 -0.830728
526.6640625 1.139687 0.834687 -0.305
527.7890625 1.10725 0.79743 -0.30982
529.63671875 1.104775 0.85 -0.254775
531.5859375 1.143964 0.889859 -0.254105
533.51953125 1.164482 0.919951 -0.244531
535.32421875 1.2554319999999999 0.998039 -0.257393
537.23046875 1.2561520000000002 0.949988 -0.306164
539.1484375 1.069923 0.826957 -0.242966
540.94921875 1.14591 0.945488 -0.200422
542.83984375 1.200803 0.968677 -0.232126
544.828125 1.1932099999999999 0.952104 -0.241106
546.671875 1.073995 0.833995 -0.24
547.8046875 1.243141 0.982559 -0.260582
548.734375 0.992209 0.123042 -0.869167
549.4921875 1.36302 0.992737 -0.370283
550.98828125 1.11903 0.884114 -0.234916
552.875 1.094612 0.865 -0.229612
554.0546875 1.333183 0.997306 -0.335877
554.8984375 0.9221739999999999 0.144941 -0.777233
556.4765625 1.258145 0.996503 -0.261642
557.66015625 1.129875 0.909875 -0.22
558.50390625 0.8849940000000001 0.158023 -0.726971
559.95703125 1.126926 0.861926 -0.265
561.13671875 1.335221 1.005545 -0.329676
562.140625 0.9085749999999999 0.286016 -0.622559
563.48046875 1.337877 1.009893 -0.327984
564.625 1.132266 0.89 -0.242266
565.58203125 0.924815 0.25 -0.674815
566.91015625 1.1128399999999998 0.87784 -0.235
568.16796875 1.334657 1.041926 -0.292731
569.12890625 0.8419340000000001 0.205493 -0.636441
570.47265625 1.268479 0.954869 -0.31361
571.59765625 1.123436 0.883866 -0.23957
572.6015625 0.836865 0.169783 -0.667082
574.0078125 1.142159 0.934806 -0.207353
575.25 1.334289 0.975 -0.359289
576.19921875 0.9301729999999999 0.227285 -0.702888
577.48828125 1.280257 0.945 -0.335257
578.66015625 1.142517 0.902517 -0.24
580.67578125 1.19997 0.996361 -0.203609
581.8515625 1.272176 0.962833 -0.309343
582.76171875 0.9278489999999999 0.158303 -0.769546
582.9765625 0.113841 0.233841 0.12
583.73828125 1.108771 0.848771 -0.26
584.95703125 1.238828 0.923828 -0.315
585.9140625 0.9606129999999999 0.139774 -0.820839
586.21875 1.297792 0.476953 -0.820839
586.73828125 1.201513 0.873691 -0.327822
588.2421875 1.114978 0.881626 -0.233352
589.4453125 1.322677 1.007783 -0.314894
590.7109375 1.13975 0.879891 -0.259859
591.640625 0.8929119999999999 0.098154 -0.794758
592.4375 1.147017 0.837049 -0.309968
593.90234375 1.203818 0.939362 -0.264456
595.0859375 1.114632 0.899823 -0.214809
596.28515625 1.11496 0.846418 -0.268542
597.19921875 0.8539059999999999 0.143925 -0.709981
598.0390625 1.051075 0.799825 -0.25125
599.5078125 1.237044 0.988517 -0.248527
600.67578125 1.074122 0.825437 -0.248685
601.86328125 1.24174 0.963794 -0.277946
602.80859375 0.957582 0.144675 -0.812907
603.64453125 1.210936 0.884844 -0.326092
605.1953125 1.121345 0.922634 -0.198711
606.45703125 1.2752050000000001 1.020326 -0.254879
607.640625 1.0572219999999999 0.882396 -0.174826
608.546875 0.9326880000000001 0.102025 -0.830663
610.16796875 1.041894 0.824851 -0.217043
611.38671875 1.304513 0.977083 -0.32743
612.2265625 0.925813 0.152694 -0.773119
612.48828125 1.227417 0.454298 -0.773119
613.68359375 1.242197 0.897525 -0.344672
614.83203125 1.130982 0.876657 -0.254325
615.86328125 0.933971 0.214714 -0.719257
616.1640625 1.1842570000000001 0.465 -0.719257
617.19140625 1.1291550000000001 0.849184 -0.279971
618.3515625 1.250067 0.862207 -0.38786
619.24609375 0.876548 0.09171 -0.784838
619.5234375 1.023353 0.473505 -0.549848
620.70703125 1.236396 0.890791 -0.345605
621.984375 1.079248 0.814248 -0.265
623.24609375 1.272294 0.961018 -0.311276
624.45703125 1.051469 0.836498 -0.214971
625.70703125 1.252686 0.965 -0.287686
626.95703125 1.037887 0.807887 -0.23
628.25390625 1.230826 0.953779 -0.277047
629.50390625 1.082185 0.832803 -0.249382
630.63671875 1.282505 0.948457 -0.334048
631.796875 1.08561 0.817564 -0.268046
633.046875 1.236697 0.935 -0.301697
634.25390625 1.076271 0.866439 -0.209832
635.16015625 0.95362 0.12243 -0.83119
636.578125 1.078462 0.819118 -0.259344
637.09765625 0.626863 0.333738 -0.293125
638.3828125 1.1831909999999999 0.921472 -0.261719
639.625 1.258551 0.98 -0.278551
640.859375 1.111055 0.930418 -0.180637
641.796875 0.931698 0.204902 -0.726796
643.18359375 1.10323 0.939558 -0.163672
644.41015625 1.278548 1.009457 -0.269091
645.296875 0.876561 0.219299 -0.657262
646.83203125 1.149828 0.946937 -0.202891
648.015625 1.125202 0.958567 -0.166635
648.9375 0.881397 0.257143 -0.624254
650.27734375 1.1072170000000001 0.928069 -0.179148
651.5234375 1.262011 0.977564 -0.284447
652.53515625 0.9455260000000001 0.256396 -0.68913
653.8671875 1.182039 0.902106 -0.279933
655.01953125 1.126914 0.914834 -0.21208
655.96875 0.8811720000000001 0.126172 -0.755
656.66796875 1.275079 0.95259 -0.322489
658.18359375 1.06337 0.739366 -0.324004
659.41796875 1.21098 0.91098 -0.3
660.5546875 1.07332 0.83724 -0.23608
661.4921875 0.829751 0.16278 -0.666971
662.9453125 1.056718 0.771796 -0.284922
664.2109375 1.186925 0.888399 -0.298526
665.140625 0.876954 0.147282 -0.729672
666.53125 1.1341 0.854473 -0.279627
667.640625 1.056055 0.796217 -0.259838
668.65234375 0.917308 0.18 -0.737308
669.9765625 1.0465200000000001 0.796644 -0.249876
671.21875 1.251079 0.95429 -0.296789
672.125 0.8562890000000001 0.19 -0.666289
673.47265625 1.242657 0.91671 -0.325947
674.65234375 1.0891229999999998 0.814166 -0.274957
675.68359375 0.9093720000000001 0.174394 -0.734978
677.03125 1.0688529999999998 0.833853 -0.235
678.22265625 1.275 0.985 -0.29
679.1171875 0.8701540000000001 0.154561 -0.715593
680.52734375 1.221788 0.951916 -0.269872
681.765625 1.056613 0.854588 -0.202025
682.78125 0.886662 0.255 -0.631662
684.05078125 1.066606 0.826606 -0.24
685.1875 1.263019 0.88939 -0.373629
686.12890625 0.825021 0.143101 -0.68192
687.48828125 1.143238 0.839915 -0.303323
688.71875 1.108828 0.883828 -0.225
689.6640625 0.856948 0.164845 -0.692103
690.88671875 1.170507 0.873491 -0.297016
692.03125 1.073957 0.81929 -0.254667
692.9765625 0.813023 0.14 -0.673023
694.30859375 1.062352 0.814626 -0.247726
695.52734375 1.1730559999999999 0.927137 -0.245919
696.38671875 0.896815 0.136815 -0.76
697.8203125 1.137434 0.892943 -0.244491
699.01953125 1.104117 0.834943 -0.269174
699.96875 0.8509279999999999 0.148125 -0.702803
701.4375 1.049132 0.815937 -0.233195
702.57421875 1.2121300000000002 0.909842 -0.302288
703.45703125 0.879092 0.112592 -0.7665
704.88671875 1.290908 0.941076 -0.349832
706.046875 1.058495 0.82981 -0.228685
707.08203125 0.9040839999999999 0.214169 -0.689915
707.2890625 0.123776 0.055444 -0.068332
708.3828125 1.048356 0.790098 -0.258258
709.5703125 1.2637559999999999 0.940614 -0.323142
710.453125 0.919776 0.159794 -0.759982
710.7265625 1.123324 0.363342 -0.759982
712.0390625 1.214931 0.930575 -0.284356
713.23828125 1.069008 0.804008 -0.265
714.12109375 0.903785 0.083853 -0.819932
714.37890625 1.108047 0.288115 -0.819932
715.515625 1.018746 0.754085 -0.264661
716.71484375 1.249516 0.9172 -0.332316
717.66015625 0.817353 0.179706 -0.637647
717.96875 1.1594829999999998 0.521836 -0.637647
719.0 1.174861 0.85 -0.324861
720.16796875 1.053024 0.793947 -0.259077
721.0234375 0.854768 0.096321 -0.758447
721.265625 0.298433 0.218433 -0.08
722.31640625 1.084523 0.849542 -0.234981
723.55859375 1.178395 0.877858 -0.300537
724.47265625 0.862217 0.154258 -0.707959
724.734375 1.119394 0.411435 -0.707959
725.80078125 1.054114 0.790699 -0.263415
726.97265625 1.101043 0.891043 -0.21
727.828125 0.874244 0.127592 -0.746652
728.09375 1.143449 0.396797 -0.746652
729.265625 1.104968 0.884032 -0.220936
730.50390625 1.055629 0.767629 -0.288
731.390625 0.815864 0.019443 -0.796421
731.68359375 1.084848 0.514848 -0.57
732.7890625 1.051704 0.829868 -0.221836
733.92578125 1.239076 0.984955 -0.254121
734.84765625 0.904714 0.18333 -0.721384
735.11328125 1.0916000000000001 0.370216 -0.721384
736.30859375 1.259416 0.979562 -0.279854
737.484375 1.041085 0.836253 -0.204832
738.359375 0.835559 0.135 -0.700559
738.578125 0.129691 0.127713 -0.001978
739.63671875 1.073774 0.855847 -0.217927
740.18359375 0.48485 0.254872 -0.229978
741.44921875 1.2144970000000002 0.926606 -0.287891
742.6640625 1.0715819999999998 0.77204 -0.299542
743.609375 0.845464 0.185443 -0.660021
744.83984375 1.014736 0.765381 -0.249355
745.3125 0.575446 0.300446 -0.275
746.66796875 1.113388 0.813635 -0.299753
747.8828125 1.225279 0.919685 -0.305594
749.08203125 1.0245360000000001 0.81188 -0.212656
749.99609375 0.9056010000000001 0.143048 -0.762553
750.25 1.167553 0.405 -0.762553
751.375 1.036246 0.85 -0.186246
752.56640625 1.277113 0.954769 -0.322344
753.45703125 0.8988419999999999 0.144916 -0.753926
753.7265625 1.1002049999999999 0.346279 -0.753926
754.88671875 1.250995 0.933728 -0.317267
755.43359375 0.506954 0.289947 -0.217007
756.63671875 1.1165310000000002 0.861859 -0.254672
757.76171875 1.127977 0.837421 -0.290556
758.94140625 1.146801 0.808881 -0.33792
759.90625 0.7985730000000001 0.109141 -0.689432
761.24609375 1.076497 0.818742 -0.257755
763.02734375 1.084679 0.864715 -0.219964
764.1875 1.222994 0.912241 -0.310753
765.4609375 1.029951 0.819951 -0.21
766.359375 0.8880049999999999 0.132172 -0.755833
767.89453125 1.0293809999999999 0.8049 -0.224481
769.0859375 1.233955 0.909569 -0.324386
770.9609375 1.023096 0.784778 -0.238318
772.2109375 1.069925 0.869925 -0.2
773.4375 1.085134 0.805134 -0.28
774.26171875 0.891923 0.11822 -0.773703
774.53125 1.3081559999999999 0.534453 -0.773703
775.69140625 1.056321 0.77664 -0.279681
776.921875 1.102109 0.869588 -0.232521
777.47265625 0.46499999999999997 0.269619 -0.195381
778.84375 1.244446 0.943024 -0.301422
780.03515625 1.063046 0.789361 -0.273685
781.20703125 1.215172 0.90289 -0.312282
781.94921875 0.860903 0.14288 -0.718023
782.16015625 0.894351 0.176328 -0.718023
783.1328125 1.084438 0.781626 -0.302812
784.421875 1.146463 0.854913 -0.29155
785.2578125 0.9213049999999999 0.068572 -0.852733
785.46875 1.013514 0.160781 -0.852733
785.78125 1.214068 0.845212 -0.368856
786.79296875 1.112498 0.851327 -0.261171
788.00390625 1.215 0.885 -0.33
788.5703125 0.56726 0.323576 -0.243684
789.9453125 1.064027 0.792544 -0.271483
791.16796875 1.1424889999999999 0.855 -0.287489
792.36328125 1.0929769999999999 0.825031 -0.267946
793.2109375 0.903752 0.101934 -0.801818
793.48046875 1.307028 0.50521 -0.801818
794.71875 1.058813 0.78884 -0.269973
795.99609375 1.0940889999999999 0.825797 -0.268292
797.21875 1.123651 0.823862 -0.299789
798.0234375 0.8933439999999999 0.134206 -0.759138
799.54296875 1.078856 0.873856 -0.205
800.71484375 1.194915 0.950381 -0.244534
801.91796875 1.076179 0.856179 -0.22
802.94140625 0.873359 0.239297 -0.634062
804.27734375 1.0595249999999998 0.819525 -0.24
805.421875 1.228014 0.973466 -0.254548
806.62109375 1.074023 0.819453 -0.25457
807.640625 0.836395 0.133347 -0.703048
808.375 1.1477840000000001 0.9 -0.247784
809.80859375 1.244203 0.958652 -0.285551
810.98046875 1.092139 0.849995 -0.242144
812.15625 1.221826 0.8721 -0.349726
813.09765625 0.8596919999999999 0.144692 -0.715
814.55859375 1.122471 0.84403 -0.278441
815.7265625 1.085203 0.856822 -0.228381
816.62109375 0.843621 0.153424 -0.690197
817.97265625 1.161371 0.841371 -0.32
819.18359375 1.0419209999999999 0.732336 -0.309585
820.109375 0.849102 0.077754 -0.771348
821.4765625 1.053355 0.743355 -0.31
822.65625 1.18779 0.878508 -0.309282
823.484375 0.895282 0.067559 -0.827723
823.74609375 1.2245979999999999 0.396875 -0.827723
824.890625 1.171756 0.879227 -0.292529
826.140625 1.038136 0.78103 -0.257106
827.04296875 0.868638 0.090188 -0.77845
827.3046875 1.128892 0.350442 -0.77845
828.4375 1.01762 0.792692 -0.224928
829.6015625 1.188924 0.908345 -0.280579
830.49609375 0.879988 0.16 -0.719988
830.77734375 1.203997 0.484009 -0.719988
832.0234375 1.175143 0.896756 -0.278387
833.25390625 1.05945 0.798954 -0.260496
834.14453125 0.8617680000000001 0.079964 -0.781804
834.4140625 1.276748 0.494944 -0.781804
835.5078125 1.0527060000000001 0.84821 -0.204496
836.6875 1.238421 0.925833 -0.312588
837.6640625 0.8836249999999999 0.219937 -0.663688
837.98046875 1.188688 0.525 -0.663688
839.00390625 1.220988 0.862738 -0.35825
840.12890625 1.0561880000000001 0.806188 -0.25
841.0625 0.82033 0.165909 -0.654421
841.35546875 1.0977700000000001 0.505 -0.59277
842.3125 1.104458 0.87 -0.234458
843.53125 1.1642109999999999 0.864339 -0.299872
844.5078125 0.878329 0.243526 -0.634803
844.8046875 1.16713 0.532327 -0.634803
845.79296875 1.1557659999999998 0.841227 -0.314539
846.9140625 1.099516 0.849602 -0.249914
847.8515625 0.8407100000000001 0.172548 -0.668162
848.15625 1.173162 0.505 -0.668162
849.2890625 1.179892 0.943385 -0.236507
850.46875 1.118733 0.834271 -0.284462
851.4375 0.887292 0.1895 -0.697792
851.64453125 0.119782 0.040395 -0.079387
852.7578125 1.068564 0.800416 -0.268148
853.91015625 1.197667 0.917787 -0.27988
854.828125 0.869729 0.144902 -0.724827
855.140625 0.449077 0.529077 0.08
856.27734375 1.2272750000000001 0.9 -0.327275
857.4375 0.977419 0.727419 -0.25
858.3359375 0.872841 0.094725 -0.778116
858.5625 0.116285 0.030156 -0.086129
859.59765625 1.090436 0.817755 -0.272681
860.8125 1.293463 0.955781 -0.337682
861.74609375 0.802728 0.17828 -0.624448
862.0390625 1.096777 0.554924 -0.541853
863.1015625 1.25776 0.921667 -0.336093
864.25 1.085 0.82 -0.265
865.13671875 0.8930689999999999 0.128411 -0.764658
865.34765625 0.099064 0.026448 -0.072616
866.4296875 1.1453989999999998 0.870918 -0.274481
867.66796875 1.075171 0.820171 -0.255
868.6171875 0.823501 0.123992 -0.699509
868.88671875 1.1059320000000001 0.406423 -0.699509
869.97265625 1.0659800000000001 0.852647 -0.213333
871.14453125 1.215535 0.94996 -0.265575
872.015625 0.837949 0.154004 -0.683945
872.2734375 1.13331 0.449365 -0.683945
873.38671875 1.2328679999999999 0.922299 -0.310569
874.5859375 1.069819 0.789857 -0.279962
875.51953125 0.834487 0.125 -0.709487
875.73828125 0.125645 0.105757 -0.019888
876.75390625 1.0782120000000002 0.818212 -0.26
877.9140625 1.279683 0.924732 -0.354951
878.78515625 0.940427 0.164594 -0.775833
879.04296875 1.080287 0.304454 -0.775833
880.2109375 1.2035179999999999 0.874637 -0.328881
881.39453125 1.059697 0.779809 -0.279888
882.24609375 0.920085 0.079011 -0.841074
882.5234375 1.081552 0.478774 -0.602778
883.65625 1.064923 0.819409 -0.245514
884.8515625 1.1124530000000001 0.834756 -0.277697
885.75390625 0.904474 0.163949 -0.740525
886.0625 1.242025 0.5015 -0.740525
887.27734375 1.041382 0.826382 -0.215
888.390625 1.17566 0.961491 -0.214169
889.22265625 0.920301 0.169479 -0.750822
889.48046875 1.124968 0.374146 -0.750822
890.62890625 1.262757 0.967803 -0.294954
891.8359375 1.0513409999999999 0.839509 -0.211832
892.7421875 0.859391 0.139485 -0.719906
893.01171875 1.105133 0.385227 -0.719906
894.10546875 1.099612 0.88 -0.219612
895.2421875 1.213345 0.953391 -0.259954
896.11328125 0.82824 0.172635 -0.655605
896.41796875 1.029753 0.57 -0.459753
897.52734375 1.111381 0.868725 -0.242656
898.7578125 1.131761 0.941986 -0.189775
899.63671875 0.92967 0.158254 -0.771416
899.90625 1.3014160000000001 0.53 -0.771416
900.99609375 1.146249 0.852798 -0.293451
902.171875 1.08156 0.754812 -0.326748
903.078125 0.929393 0.099519 -0.829874
903.30078125 0.118505 0.04 -0.078505
904.47265625 1.053108 0.807091 -0.246017
905.69140625 1.261264 0.939233 -0.322031
906.47265625 0.909664 0.154664 -0.755
906.765625 1.09307 0.549922 -0.543148
907.8125 1.247691 0.925 -0.322691
908.9921875 1.069734 0.815 -0.254734
909.95703125 0.8298059999999999 0.1384 -0.691406
910.25 0.556562 0.56 0.003438
911.2421875 1.099432 0.937079 -0.162353
912.421875 1.13907 0.904707 -0.234363
913.14453125 0.8746090000000001 0.114994 -0.759615
913.359375 0.111493 0.185609 0.074116
914.63671875 1.054262 0.8181 -0.236162
915.88671875 1.112193 0.857288 -0.254905
917.09765625 1.067204 0.807543 -0.259661
917.8984375 0.907317 0.056826 -0.850491
918.11328125 0.03532899999999999 0.082545 0.047216
919.3515625 0.931996 0.664462 -0.267534
920.5625 0.911604 0.567143 -0.344461
921.78515625 1.079948 0.829948 -0.25
922.65625 0.871453 0.076953 -0.7945
922.94921875 1.287951 0.493451 -0.7945
924.15234375 1.093364 0.883516 -0.209848
925.27734375 1.254845 0.958363 -0.296482
926.3828125 1.098732 0.883764 -0.214968
927.30859375 0.92939 0.119947 -0.809443
928.7734375 1.071619 0.856619 -0.215
929.9140625 1.204741 0.889609 -0.315132
930.98828125 1.100154 0.890447 -0.209707
931.91015625 0.878151 0.141603 -0.736548
933.30078125 1.196578 0.877571 -0.319007
934.53125 1.094362 0.777095 -0.317267
935.69140625 1.271606 0.894135 -0.377471
936.55078125 0.894254 0.092209 -0.802045
936.8125 1.264724 0.462679 -0.802045
937.96484375 1.261148 0.92712 -0.334028
939.2265625 1.080879 0.826591 -0.254288
940.4921875 1.199797 0.91981 -0.279987
941.28125 0.940976 0.078281 -0.862695
941.8046875 1.2082410000000001 0.879467 -0.328774
942.80078125 1.224397 0.949543 -0.274854
943.9921875 1.05384 0.88 -0.17384
945.21875 1.208364 0.945259 -0.263105
946.078125 0.939546 0.139551 -0.799995
947.6328125 1.2473290000000001 0.959056 -0.288273
948.75 1.109458 0.855 -0.254458
949.87890625 1.337273 0.939082 -0.398191
950.796875 0.9190969999999999 0.104775 -0.814322
952.2421875 1.209082 0.859145 -0.349937
953.40625 1.074336 0.873491 -0.200845
954.5703125 1.13805 0.909129 -0.228921
955.4453125 0.875996 0.21343 -0.662566
955.71484375 1.281717 0.619151 -0.662566
956.8515625 1.076014 0.868514 -0.2075
958.08203125 1.089566 0.91974 -0.169826
959.296875 1.1210040000000001 0.886957 -0.234047
960.23046875 0.702847 -0.045014 -0.747861
961.54296875 1.081566 0.886566 -0.195
962.75390625 1.152461 0.961803 -0.190658
963.9453125 1.079283 0.936892 -0.142391
964.875 0.895 0.24 -0.655
966.25 1.03 0.895 -0.135
967.40625 1.218256 1.034058 -0.184198
968.55859375 1.047975 0.928753 -0.119222
969.55078125 0.8676980000000001 0.179814 -0.687884
971.0078125 1.0445849999999999 0.879585 -0.165
972.203125 1.279855 1.029386 -0.250469
973.3125 1.037682 0.843469 -0.194213
974.28515625 0.843837 0.13428 -0.709557
975.67578125 1.083054 0.843054 -0.24
976.8984375 1.29451 0.975 -0.31951
977.84375 0.945335 0.178679 -0.766656
979.06640625 1.202317 0.889626 -0.312691
979.59375 0.646949 0.367019 -0.27993
980.9140625 1.089828 0.874828 -0.215
982.1484375 1.262525 1.036277 -0.226248
983.09375 0.831244 0.224594 -0.60665
984.47265625 1.25472 0.97972 -0.275
985.6484375 1.0814810000000001 0.871545 -0.209936
986.48828125 0.9703510000000001 0.169397 -0.800954
986.765625 1.290065 0.489111 -0.800954
987.953125 1.1898069999999998 1.004916 -0.184891
989.09765625 1.110702 0.917775 -0.192927
990.10546875 0.833633 0.159716 -0.673917
990.38671875 1.268189 0.594272 -0.673917
991.22265625 1.107485 0.882965 -0.22452
992.42578125 1.202004 0.968115 -0.233889
993.38671875 0.882648 0.235 -0.647648
993.6875 1.2007729999999999 0.553125 -0.647648
994.73828125 1.1899359999999999 0.917002 -0.272934
995.30859375 0.5793710000000001 0.329832 -0.249539
996.515625 1.259906 0.93 -0.329906
997.60546875 1.083116 0.819988 -0.263128
998.6015625 0.9024049999999999 0.14116 -0.761245
999.890625 1.056802 0.807344 -0.249458
1001.109375 1.267047 0.932933 -0.334114
1001.96875 0.81338 0.153711 -0.659669
1003.265625 1.210955 0.942607 -0.268348
1004.4609375 1.293902 1.014048 -0.279854
1005.51171875 1.3269 1.0969 -0.23
1006.0 1.21279 0.955 -0.25779
1007.3828125 1.311311 1.18729 -0.124021
1008.46875 1.237848 1.115192 -0.122656
1009.421875 0.7305900000000001 0.129203 -0.601387
1010.58984375 1.188443 0.986155 -0.202288
1011.71875 1.16541 0.96041 -0.205
1012.83984375 1.153247 0.912656 -0.240591
1013.87109375 1.123198 0.85328 -0.269918
1014.91796875 0.7975669999999999 0.10779 -0.689777
1016.00390625 1.136937 0.889151 -0.247786
1017.1640625 1.135191 0.876101 -0.25909
1018.1875 0.8408260000000001 0.141518 -0.699308
1019.453125 1.1549369999999999 0.885 -0.269937
1020.5390625 1.096355 0.861542 -0.234813
1021.5546875 0.831655 0.134416 -0.697239
1022.84375 1.211563 0.922121 -0.289442
1024.03125 1.203794 0.963906 -0.239888
1025.1015625 0.883127 0.119847 -0.76328
1025.3203125 0.133224 0.078349 -0.054875
1026.3125 1.172957 0.995 -0.177957
1027.44140625 1.161604 0.949836 -0.211768
1028.52734375 0.727002 0.11865 -0.608352
1028.82421875 1.1783519999999998 0.57 -0.608352
1029.796875 1.23413 0.954461 -0.279669
1030.98828125 1.2379010000000001 1.052647 -0.185254
1032.015625 0.846609 0.088154 -0.758455
1032.2890625 1.2433429999999999 0.484888 -0.758455
1033.1796875 1.235045 0.986662 -0.248383
1034.32421875 1.169543 0.891652 -0.277891
1035.4296875 0.728424 0.115 -0.613424
1035.7265625 1.107198 0.493774 -0.613424
1036.62890625 1.175346 0.912198 -0.263148
1037.83203125 1.154611 0.930248 -0.224363
1038.76953125 0.899509 0.165 -0.734509
1039.04296875 1.160748 0.498148 -0.6626
1039.3828125 1.286949 0.957862 -0.329087
1040.734375 1.1036549999999998 0.755527 -0.348128
1041.98046875 1.1623269999999999 0.884957 -0.27737
1043.16796875 1.0708 0.7808 -0.29
1044.1171875 0.92258 0.137691 -0.784889
1044.328125 0.09115799999999999 -0.036914 -0.128072
1045.3671875 1.104811 0.814811 -0.29
1046.578125 1.199217 0.929408 -0.269809
1047.484375 0.8737309999999999 0.110057 -0.763674
1047.75 1.043674 0.28 -0.763674
1048.859375 1.298337 0.933337 -0.365
1050.0625 1.128395 0.840714 -0.287681
1050.953125 0.851954 0.133938 -0.718016
1051.2265625 1.1562329999999998 0.547225 -0.609008
1052.2109375 1.125 0.895 -0.23
1053.49609375 1.250544 1.022218 -0.228326
1054.43359375 0.830819 0.159808 -0.671011
1054.73046875 1.0377800000000001 0.535 -0.50278
1055.78125 1.229412 0.974095 -0.255317
1056.91796875 1.168673 0.895687 -0.272986
1057.8671875 0.809905 0.215 -0.594905
1058.16015625 1.1670639999999999 0.582064 -0.585
1059.11328125 1.363794 0.993794 -0.37
1060.31640625 1.208058 0.933714 -0.274344
1061.3671875 0.838702 0.078789 -0.759913
1061.578125 0.106501 0.01125 -0.095251
1062.4765625 1.140693 0.895 -0.245693
1063.625 1.261317 0.97 -0.291317
1064.58984375 0.818817 0.231861 -0.586956
1064.8984375 1.146662 0.559706 -0.586956
1065.96484375 1.188588 0.934043 -0.254545
1067.1328125 1.1175920000000001 0.862592 -0.255
1068.125 0.8999999999999999 0.19 -0.71
1068.40625 1.13375 0.50375 -0.63
1069.33203125 1.115556 0.655781 -0.459775
1070.52734375 1.184413 0.824166 -0.360247
1071.50390625 0.869011 0.224011 -0.645
1071.80859375 1.279876 0.634876 -0.645
1072.9140625 1.169454 1.169532 7.8E-5
1074.05078125 1.344495 1.233134 -0.111361
1074.99609375 0.897813 0.41279 -0.485023
1075.29296875 1.081755 0.74 -0.341755
1075.6328125 1.187346 1.068133 -0.119213
1077.0234375 1.178341 0.998341 -0.18
1078.2734375 1.3237290000000002 1.064712 -0.259017
1079.4453125 1.17995 0.995 -0.18495
1080.421875 0.8855459999999999 0.248535 -0.637011
1081.69140625 1.168078 0.929304 -0.238774
1082.93359375 1.318999 0.974171 -0.344828
1083.92578125 0.836062 0.211062 -0.625
1085.22265625 1.313847 0.947688 -0.366159
1086.29296875 1.128098 0.818331 -0.309767
1087.3046875 0.818133 0.046267 -0.771866
1087.5234375 0.121563 0.011563 -0.11
1088.4609375 1.124514 0.824953 -0.299561
1089.00390625 0.56003 0.219066 -0.340964
1089.3671875 0.46832 0.299783 -0.168537
1090.40234375 1.2204709999999999 0.898971 -0.3215
1091.5546875 1.150795 0.822664 -0.328131
1092.4921875 0.805992 0.194258 -0.611734
1092.76953125 1.1057549999999998 0.529971 -0.575784
1093.78515625 1.171326 0.899526 -0.2718
1095.03515625 1.109717 0.904717 -0.205
1096.0234375 0.797615 0.122694 -0.674921
1096.3203125 0.9585049999999999 0.49 -0.468505
1097.41796875 1.105949 0.885949 -0.22
1098.57421875 1.285093 0.914101 -0.370992
1099.5 0.5946610000000001 1.62 1.025339
1101.828125 0.678155 0.244854 -0.433301
1102.3359375 0.831628 0.099361 -0.732267
1103.6171875 1.2616049999999999 -0.047571 -1.309176
1104.58984375 1.229035 -0.059813 -1.288848
1105.05859375 1.0858189999999999 -0.059152 -1.144971
1106.32421875 1.2790650000000001 0.60184 -0.677225
1108.0390625 1.263837 0.906794 -0.357043
1109.28515625 1.213606 1.034766 -0.17884
1110.28125 1.156714 0.9321 -0.224614
1111.29296875 1.207675 0.99816 -0.209515
1112.2421875 1.096889 0.929355 -0.167534
1112.76171875 0.9798910000000001 0.801405 -0.178486
1113.2109375 1.348512 1.135 -0.213512
1114.18359375 1.179243 1.009562 -0.169681
1115.28515625 1.076305 0.907242 -0.169063
1116.36328125 0.801517 0.193583 -0.607934
1117.66015625 1.068671 0.942863 -0.125808
1119.6640625 0.874757 0.779757 -0.095
1121.0625 1.096667 0.981667 -0.115
1122.31640625 1.173227 1.038774 -0.134453
1123.55078125 1.1400860000000002 0.875086 -0.265
1124.84765625 1.101814 0.827984 -0.27383
1126.22265625 1.034224 0.79233 -0.241894
1128.26953125 1.194889 0.904889 -0.29
1128.83984375 1.074109 0.679375 -0.394734
1130.30859375 1.059099 0.364712 -0.694387
1132.265625 1.05597 0.906309 -0.149661
1133.17578125 1.156672 1.21684 0.060168
1134.1328125 1.119221 1.286178 0.166957
1135.21875 1.155726 1.351438 0.195712
1136.34765625 0.954536 0.409536 -0.545
1137.65234375 1.1660279999999998 1.064525 -0.101503
1138.8984375 1.097255 0.888121 -0.209134
1140.0703125 1.16186 0.88686 -0.275
1141.203125 1.098461 0.824495 -0.273966
1142.359375 1.186129 0.851253 -0.334876
1143.61328125 1.0952540000000002 0.805 -0.290254
1144.8046875 1.196514 0.911828 -0.284686
1145.828125 0.8246290000000001 0.104663 -0.719966
1146.38671875 1.3329659999999999 1.058303 -0.274663
1146.8125 1.30712 0.992448 -0.314672
1147.73828125 1.139288 0.795 -0.344288
1148.94140625 1.306476 0.959771 -0.346705
1149.9921875 0.809485 0.129534 -0.679951
1150.63671875 1.085979 0.803379 -0.2826
1152.05078125 1.118011 0.839181 -0.27883
1153.18359375 1.1249529999999999 0.839953 -0.285
1154.34375 1.159198 0.914286 -0.244912
1155.42578125 0.8940189999999999 0.184019 -0.71
1156.79296875 1.178506 0.928506 -0.25
1157.921875 1.109029 0.89182 -0.217209
1158.95703125 0.772638 0.190407 -0.582231
1159.5390625 1.165171 0.979651 -0.18552
1159.9765625 1.223775 0.980442 -0.243333
1160.9296875 1.23278 0.954663 -0.278117
1162.1328125 1.082357 0.894056 -0.188301
1163.203125 0.949921 0.283937 -0.665984
1164.46875 1.043407 0.846364 -0.197043
1164.94921875 0.526657 0.312591 -0.214066
1166.30859375 1.119757 0.914771 -0.204986
1167.5234375 1.1663029999999999 0.961741 -0.204562
1168.5546875 0.7989419999999999 0.192931 -0.606011
1169.83203125 1.148539 0.920238 -0.228301
1170.96875 1.1110010000000001 0.902391 -0.20861
1171.953125 0.962125 0.232285 -0.72984
1173.26953125 1.119974 0.869974 -0.25
1174.51171875 1.21481 0.883 -0.33181
1175.4765625 0.9505600000000001 0.202471 -0.748089
1176.74609375 1.195004 0.880026 -0.314978
1177.87109375 1.082069 0.843033 -0.239036
1178.93359375 0.9414060000000001 0.186347 -0.755059
1179.59375 1.19375 0.92875 -0.265
1180.01953125 1.234873 0.904889 -0.329984
1181.0703125 1.234295 0.90115 -0.333145
1182.22265625 1.123496 0.846352 -0.277144
1183.3515625 1.253379 0.978379 -0.275
1184.51171875 1.1232820000000001 0.918529 -0.204753
1185.59765625 0.963994 0.303994 -0.66
1187.0 1.1500000000000001 0.935 -0.215
1188.84765625 1.211154 0.931278 -0.279876
1189.99609375 1.10317 0.838184 -0.264986
1191.00390625 0.8729990000000001 0.192999 -0.68
1192.359375 1.067541 0.818365 -0.249176
1193.57421875 1.162209 0.893039 -0.26917
1194.078125 0.518467 0.280215 -0.238252
1195.34765625 1.224869 0.964869 -0.26
1196.5390625 1.0968660000000001 0.859732 -0.237134
1197.57421875 1.012874 0.259548 -0.753326
1197.7890625 0.100135 0.076229 -0.023906
1198.92578125 1.0993410000000001 0.849373 -0.249968
1200.09765625 1.22519 0.939405 -0.285785
1201.015625 0.850817 0.175234 -0.675583
1201.29296875 1.0757430000000001 0.553668 -0.522075
1202.38671875 1.194635 0.869687 -0.324948
1203.59765625 1.112743 0.839541 -0.273202
1204.828125 1.226089 0.936116 -0.289973
1205.359375 0.536735 0.292282 -0.244453
1206.6171875 1.093409 0.878603 -0.214806
1207.75390625 1.152897 0.922897 -0.23
1208.75390625 0.871073 0.238949 -0.632124
1210.13671875 1.154489 0.921938 -0.232551
1211.32421875 1.136335 0.929852 -0.206483
1212.4609375 1.14028 0.942119 -0.198161
1213.41796875 0.906628 0.221516 -0.685112
1214.7421875 1.1449470000000002 0.899947 -0.245
1216.76171875 1.2187510000000001 0.903837 -0.314914
1217.890625 1.073205 0.82867 -0.244535
1219.0703125 1.187948 0.871122 -0.316826
1219.99609375 0.892909 0.109011 -0.783898
1220.71484375 1.135381 0.825381 -0.31
1221.16796875 1.0071759999999998 0.647176 -0.36
1222.234375 1.142104 0.79 -0.352104
1223.3828125 0.903341 0.003018 -0.900323
1224.59375 1.09806 0.842905 -0.255155
1225.72265625 1.12882 0.82882 -0.3
1226.78515625 0.924081 0.214129 -0.709952
1228.125 1.0839079999999999 0.835 -0.248908
1228.640625 0.573465 0.310508 -0.262957
1229.92578125 1.090967 0.819577 -0.27139
1231.0859375 1.216246 0.904979 -0.311267
1232.0703125 0.937144 0.239428 -0.697716
1233.43359375 1.2447 0.954836 -0.289864
1234.62890625 1.101188 0.846188 -0.255
1235.671875 0.8331329999999999 0.10418 -0.728953
1236.25 1.069254 0.82 -0.249254
1237.57421875 1.159371 0.885436 -0.273935
1238.8046875 1.107332 0.847332 -0.26
1240.03125 1.181831 0.897113 -0.284718
1241.046875 0.944534 0.219489 -0.725045
1241.6875 1.15567 0.920687 -0.234983
1243.08203125 1.206149 0.9213 -0.284849
1244.234375 1.09463 0.87963 -0.215
1245.4609375 1.2424950000000001 0.934722 -0.307773
1246.4765625 0.9450510000000001 0.271978 -0.673073
1247.83984375 1.190748 0.942912 -0.247836
1248.9609375 1.106765 0.893886 -0.212879
1249.95703125 0.903867 0.213755 -0.690112
1251.34765625 1.0737320000000001 0.853732 -0.22
1252.5703125 1.224131 0.96335 -0.260781
1254.46484375 1.235458 0.895948 -0.33951
1255.5625 1.130545 0.842576 -0.287969
1257.5234375 1.198039 0.938047 -0.259992
1258.7578125 1.1286209999999999 0.860892 -0.267729
1259.734375 0.5535289999999999 -0.257506 -0.811035
1261.0625 1.091834 0.88319 -0.208644
1262.26171875 1.2144490000000001 0.939743 -0.274706
1263.453125 1.083746 0.864916 -0.21883
1265.43359375 1.153159 0.910845 -0.242314
1266.578125 1.235344 0.946048 -0.289296
1267.42578125 0.975868 0.207768 -0.7681
1267.6875 1.3377430000000001 0.569643 -0.7681
1268.89453125 1.203993 0.934934 -0.269059
1270.1328125 1.094373 0.894541 -0.199832
1271.29296875 1.254797 0.99259 -0.262207
1272.24609375 0.908903 0.293078 -0.615825
1272.453125 0.09838100000000001 0.148381 0.05
1273.53125 1.189274 0.939063 -0.250211
1274.03125 0.519747 0.27498 -0.244767
1275.390625 1.140469 0.870486 -0.269983
1276.6328125 1.186622 0.896622 -0.29
1277.76953125 1.129852 0.879928 -0.249924
1278.70703125 0.9847569999999999 0.192262 -0.792495
1278.91796875 0.131398 0.082602 -0.048796
1279.94921875 1.110603 0.866697 -0.243906
1281.203125 1.2349539999999999 0.945 -0.289954
1282.09765625 0.966348 0.163209 -0.803139
1282.36328125 1.1441370000000002 0.340998 -0.803139
1283.52734375 1.2190239999999999 0.984192 -0.234832
1285.33984375 1.1363130000000001 0.881577 -0.254736
1286.4765625 1.124631 0.859631 -0.265
1287.71875 1.214407 0.874894 -0.339513
1288.734375 0.970859 0.164224 -0.806635
1290.015625 1.1482350000000001 0.841129 -0.307106
1291.8515625 1.1120539999999999 0.825 -0.287054
1293.05078125 1.281084 0.917025 -0.364059
1294.2578125 1.136237 0.881914 -0.254323
1295.2578125 0.907645 0.223526 -0.684119
1295.47265625 0.08998400000000001 0.076103 -0.013881
1296.51171875 1.121637 0.839583 -0.282054
1297.6484375 1.272623 0.918289 -0.354334
1298.55078125 0.914637 0.201423 -0.713214
1298.85546875 1.152439 0.584986 -0.567453
1299.9609375 1.21426 0.899863 -0.314397
1301.12890625 1.1631930000000001 0.908193 -0.255
1302.0546875 0.901183 0.201267 -0.699916
1302.2734375 0.12431299999999999 0.095524 -0.028789
1303.34375 1.226674 0.957129 -0.269545
1304.44921875 1.137157 0.916829 -0.220328
1305.484375 1.032529 0.225 -0.807529
1305.78125 1.328404 0.520875 -0.807529
1306.74609375 1.119129 0.884809 -0.23432
1307.92578125 1.23152 0.948075 -0.283445
1308.76953125 0.899394 0.175509 -0.723885
1308.98046875 0.09859799999999999 0.119531 0.020933
1310.171875 1.226048 0.948184 -0.277864
1311.37109375 1.130238 0.880322 -0.249916
1312.41796875 0.9933240000000001 0.213324 -0.78
1312.640625 0.093946 0.022891 -0.071055
1313.75390625 1.092288 0.842718 -0.24957
1314.90625 1.265476 0.96596 -0.299516
1315.8515625 0.9825060000000001 0.322506 -0.66
1316.13671875 1.273774 0.613774 -0.66
1317.2109375 1.2718260000000001 1.004828 -0.266998
1318.41015625 1.168019 0.929403 -0.238616
1319.453125 0.8932329999999999 0.134203 -0.75903
1319.7265625 1.278049 0.519019 -0.75903
1320.6640625 1.139245 0.874739 -0.264506
1321.85546875 1.2873169999999998 0.964594 -0.322723
1322.8515625 0.95278 0.279936 -0.672844
1323.16015625 1.2468650000000001 0.574021 -0.672844
1324.20703125 1.227529 0.912686 -0.314843
1325.3828125 1.153618 0.89109 -0.262528
1326.37890625 0.903762 0.110759 -0.793003
1326.66015625 1.299369 0.506366 -0.793003
1327.5625 1.1458 0.859706 -0.286094
1328.765625 1.0990090000000001 0.784085 -0.314924
1329.80859375 0.971926 0.139242 -0.832684
1330.09765625 1.327356 0.494672 -0.832684
1331.0234375 1.139391 0.830534 -0.308857
1332.2109375 1.261755 0.939955 -0.3218
1333.1171875 0.98992 0.22 -0.76992
1333.41015625 1.24037 0.553043 -0.687327
1334.44921875 1.2767089999999999 0.910488 -0.366221
1335.6328125 1.129647 0.843163 -0.286484
1336.72265625 0.963665 0.123665 -0.84
1337.02734375 1.3199999999999998 0.48 -0.84
1338.02734375 1.11351 0.828971 -0.284539
1339.1796875 1.284719 0.920076 -0.364643
1340.15625 0.896007 0.147012 -0.748995
1340.45703125 1.105508 0.550855 -0.554653
1341.60546875 1.249969 0.950295 -0.299674
1342.7890625 1.159511 0.929511 -0.23
1343.80859375 0.904712 0.149733 -0.754979
1344.01953125 0.10802 0.075631 -0.032389
1344.99609375 1.1485370000000001 0.904927 -0.24361
1346.16796875 1.29478 0.95598 -0.3388
1347.15234375 0.898622 0.189465 -0.709157
1347.46875 1.0675569999999999 0.613359 -0.454198
1348.5859375 1.29904 0.999606 -0.299434
1349.6875 1.175494 0.972333 -0.203161
1350.66015625 0.920884 0.191509 -0.729375
1350.87109375 0.11670900000000001 0.122812 0.006103
1351.91796875 1.151905 0.926961 -0.224944
1353.109375 1.3022969999999998 1.004854 -0.297443
1354.15234375 0.9333239999999999 0.164465 -0.768859
1354.4375 1.324234 0.555375 -0.768859
1355.4609375 1.302994 1.009867 -0.293127
1356.5703125 1.1436929999999998 0.898693 -0.245
1357.52734375 1.003344 0.269448 -0.733896
1357.83203125 1.302506 0.56861 -0.733896
1358.8984375 1.165423 0.960423 -0.205
1360.15625 1.272068 0.977662 -0.294406
1361.1171875 0.887996 0.258745 -0.629251
1361.390625 1.2048480000000001 0.615 -0.589848
1362.39453125 1.131003 0.849951 -0.281052
1363.55078125 1.158432 0.868657 -0.289775
1364.515625 1.008522 0.219199 -0.789323
1364.80859375 1.330234 0.540911 -0.789323
1365.8515625 1.219877 0.980534 -0.239343
1367.015625 1.142495 0.942495 -0.2
1368.046875 0.9188560000000001 0.195 -0.723856
1368.3359375 1.216987 0.614944 -0.602043
1369.23046875 1.129995 0.919995 -0.21
1370.484375 1.234312 0.966328 -0.267984
1371.82421875 1.163087 0.933939 -0.229148
1373.015625 1.293728 0.965222 -0.328506
1374.1875 1.125601 0.896524 -0.229077
1375.37109375 1.252535 0.982535 -0.27
1376.546875 1.148105 0.963105 -0.185
1377.82421875 1.279648 0.990436 -0.289212
1379.03515625 1.135146 0.952776 -0.18237
1380.16796875 1.300254 1.001948 -0.298306
1381.29296875 1.125526 0.905526 -0.22
1382.52734375 1.2928250000000001 0.978993 -0.313832
1383.7265625 1.115358 0.87783 -0.237528
1384.95703125 1.256204 0.936204 -0.32
1386.11328125 1.112192 0.8972 -0.214992
1387.25 1.234518 0.935 -0.299518
1388.41015625 1.094263 0.91 -0.184263
1389.6796875 1.232396 0.93748 -0.294916
1390.90234375 1.106877 0.879318 -0.227559
1392.08203125 1.213122 0.938635 -0.274487
1393.2578125 1.102105 0.921252 -0.180853
1394.46484375 1.238356 0.956267 -0.282089
1395.6953125 1.1473769999999999 0.9449 -0.202477
1396.9140625 1.1879469999999999 0.929311 -0.258636
1398.0703125 1.135087 0.910743 -0.224344
1399.1953125 1.161969 0.88275 -0.279219
1400.40234375 1.129198 0.879707 -0.249491
1401.65234375 1.163009 0.873553 -0.289456
1402.83984375 1.130825 0.897051 -0.233774
1403.98828125 1.1587049999999999 0.90189 -0.256815
1405.1171875 1.13159 0.893875 -0.237715
1406.26953125 1.116965 0.849826 -0.267139
1407.48828125 1.191502 0.96843 -0.223072
1408.73828125 1.12927 0.904438 -0.224832
1409.87890625 1.220888 0.936025 -0.284863
1410.95703125 0.743274 0.1 -0.643274
1412.16015625 1.221057 0.949113 -0.271944
1413.30859375 1.108838 0.944771 -0.164067
1414.52734375 1.2354289999999999 0.936091 -0.299338
1415.69921875 1.107847 0.913277 -0.19457
1416.83984375 1.261732 0.930509 -0.331223
1417.92578125 0.8256979999999999 0.109108 -0.71659
1419.20703125 1.27044 0.93834 -0.3321
1420.4375 1.145075 0.962419 -0.182656
1421.57421875 1.207533 0.922915 -0.284618
1422.69921875 1.126372 0.915488 -0.210884
1423.83984375 1.208091 0.9154 -0.292691
1425.0 1.119415 0.91 -0.209415
1426.20703125 1.176362 0.906423 -0.269939
1427.34765625 1.155974 0.905974 -0.25
1428.44140625 1.10696 0.843994 -0.262966
1429.52734375 1.154031 0.866764 -0.287267
1430.73046875 1.0842930000000002 0.795 -0.289293
1431.94921875 1.149386 0.849885 -0.299501
1433.09765625 1.133451 0.83 -0.303451
1434.23828125 1.138004 0.848004 -0.29
1435.390625 1.0718839999999998 0.832212 -0.239672
1436.57421875 1.164598 0.885254 -0.279344
1437.81640625 1.09469 0.85469 -0.24
1439.02734375 1.199585 0.882104 -0.317481
1440.1328125 1.119106 0.869106 -0.25
1441.265625 1.233917 0.894032 -0.339885
1442.4140625 1.130633 0.914669 -0.215964
1443.65625 1.244783 0.909987 -0.334796
1444.73828125 1.122886 0.901272 -0.221614
1445.93359375 1.31505 0.91325 -0.4018
1446.9921875 1.174677 0.934677 -0.24
1448.15234375 1.230107 0.921382 -0.308725
1449.35546875 1.1430799999999999 0.914955 -0.228125
1450.62890625 0.979258 0.07 -0.909258
1451.1796875 1.424854 0.874303 -0.550551
1451.56640625 1.2694320000000001 0.944951 -0.324481
1452.578125 1.140743 0.906124 -0.234619
1453.765625 1.259199 0.899253 -0.359946
1455.67578125 1.19328 0.865759 -0.327521
1456.84765625 1.157634 0.882634 -0.275
1458.6953125 1.233963 0.901237 -0.332726
1459.8203125 1.15253 0.807895 -0.344635
1461.03125 0.541171 0.07384 -0.467331
1462.25 1.14616 0.86 -0.28616
1462.74609375 1.263377 0.786894 -0.476483
1464.17578125 1.068008 0.885293 -0.182715
1464.75390625 0.685651 0.430719 -0.254932
1466.1328125 1.13 0.94 -0.19
1468.19921875 1.04617 0.858444 -0.187726
1468.71875 1.012589 0.439453 -0.573136
1470.16796875 1.212678 0.877861 -0.334817
1470.72265625 0.659379 0.439491 -0.219888
1472.1015625 1.120018 0.890389 -0.229629
1474.15625 0.9742390000000001 0.829258 -0.144981
1474.6640625 0.978774 0.504974 -0.4738
1476.1484375 1.121343 0.936609 -0.184734
1476.66015625 0.537723 0.352723 -0.185
1478.0703125 1.21264 0.966707 -0.245933
1478.66796875 0.545855 0.400855 -0.145
1480.15625 1.238499 0.911338 -0.327161
1482.09765625 0.998445 0.789649 -0.208796
1482.58203125 0.88308 0.248424 -0.634656
1484.0078125 1.105999 0.887561 -0.218438
1484.56640625 1.294149 0.83889 -0.455259
1486.05859375 1.053803 0.86789 -0.185913
1486.6015625 1.077771 0.652778 -0.424993
1486.984375 1.3299159999999999 0.975 -0.354916
1488.03125 1.1614200000000001 0.912969 -0.248451
1488.515625 0.5929 0.3679 -0.225
1489.93359375 1.204037 0.949356 -0.254681
1492.04296875 0.933118 0.53 -0.403118
1492.53125 1.03818 0.373571 -0.664609
1494.00390625 1.099151 0.86 -0.239151
1494.515625 0.714168 0.369209 -0.344959
1494.8515625 0.683046 0.373187 -0.309859
1495.94140625 1.1612939999999998 0.853926 -0.307368
1496.46875 0.629745 0.314621 -0.315124
1498.01171875 1.144508 0.892402 -0.252106
1500.00390625 0.9749680000000001 0.755 -0.219968
1500.4765625 1.0003929999999999 0.320524 -0.679869
1501.92578125 1.141052 0.899154 -0.241898
1502.46484375 0.513981 0.329565 -0.184416
1504.015625 1.25533 0.878483 -0.376847
1504.52734375 1.369128 0.759501 -0.609627
1505.18359375 1.158977 0.929145 -0.229832
1506.19921875 1.238349 0.865913 -0.372436
1506.66015625 1.2942019999999999 0.76681 -0.527392
1508.1171875 1.1260050000000001 0.857079 -0.268926
1508.73828125 0.593461 0.325 -0.268461
1510.26171875 1.103013 0.898013 -0.205
1512.2265625 0.9797530000000001 0.8 -0.179753
1512.703125 0.825161 0.285 -0.540161
1514.26171875 1.0759210000000001 0.871318 -0.204603
1514.79296875 1.22721 0.843469 -0.383741
1516.359375 1.165293 0.918457 -0.246836
1516.94140625 0.598564 0.44988 -0.148684
1518.33984375 1.214077 0.965806 -0.248271
1520.265625 1.1002399999999999 0.875328 -0.224912
1520.7890625 1.124875 0.564875 -0.56
1521.21875 1.139585 0.552679 -0.586906
1522.3125 1.2547679999999999 0.867537 -0.387231
1522.8203125 0.628239 0.388104 -0.240135
1524.28515625 1.202954 0.878646 -0.324308
1525.1484375 1.184818 0.920157 -0.264661
1526.33203125 1.070923 0.837721 -0.233202
1526.91796875 0.758772 0.413772 -0.345
1528.51171875 1.089114 0.879114 -0.21
1530.484375 0.909725 0.6925 -0.217225
1530.9375 0.943667 0.328667 -0.615
1532.50390625 1.156335 0.891459 -0.264876
1534.56640625 1.074355 0.834365 -0.23999
1535.05078125 1.106862 0.499548 -0.607314
1536.51953125 1.1746349999999999 0.884809 -0.289826
1537.66015625 1.120132 0.893465 -0.226667
1538.8828125 1.235912 0.9332 -0.302712
1539.88671875 0.938459 0.314095 -0.624364
1540.59375 1.151435 0.889744 -0.261691
1542.0546875 1.0829090000000001 0.864052 -0.218857
1544.0078125 0.9982599999999999 0.81826 -0.18
1544.5234375 0.93165 0.33665 -0.595
1546.05078125 1.242141 1.062141 -0.18
1547.99609375 1.151666 0.944738 -0.206928
1548.48828125 1.252402 0.579002 -0.6734
1548.8984375 1.4714550000000002 1.12315 -0.348305
1549.83984375 1.286456 0.940492 -0.345964
1550.75 1.323804 0.99 -0.333804
1551.7890625 1.285023 0.984899 -0.300124
1552.30859375 1.203668 0.734648 -0.46902
1552.6953125 1.261972 0.929006 -0.332966
1553.67578125 1.286022 1.011945 -0.274077
1554.1640625 1.24397 0.754976 -0.488994
1554.5234375 1.267077 0.94822 -0.318857
1555.52734375 1.278294 1.008326 -0.269968
1556.046875 1.237782 0.85222 -0.385562
1557.52734375 1.230187 1.020648 -0.209539
1559.54296875 0.97685 0.774716 -0.202134
1560.0234375 0.9170340000000001 0.367034 -0.55
1560.375 1.204943 0.565 -0.639943
1561.4765625 1.131471 0.887786 -0.243685
1561.98046875 0.691146 0.419986 -0.27116
1562.4296875 0.502008 0.292931 -0.209077
1563.67578125 1.128018 0.846628 -0.28139
1564.94140625 1.182658 0.89268 -0.289978
1565.48046875 0.62479 0.354981 -0.269809
1566.89453125 1.2097229999999999 0.920797 -0.288926
1567.39453125 1.103861 0.424947 -0.678914
1568.90625 1.1340620000000001 0.899062 -0.235
1570.97265625 0.669861 0.264861 -0.405
1571.4765625 1.0377260000000001 0.492726 -0.545
1572.90234375 1.1311520000000002 0.926174 -0.204978
1574.9609375 0.9998640000000001 0.829976 -0.169888
1575.45703125 0.909983 0.321119 -0.588864
1576.97265625 1.199727 0.986087 -0.21364
1578.8828125 1.05192 0.899567 -0.152353
1580.8203125 1.071796 0.966796 -0.105
1581.35546875 1.028943 0.489987 -0.538956
1582.859375 1.2034509999999998 1.043451 -0.16
1584.70703125 1.003563 0.860829 -0.142734
1585.20703125 0.944098 0.445414 -0.498684
1585.59375 1.126832 0.525 -0.601832
1586.15625 1.1989 0.9239 -0.275
1587.73828125 1.215322 0.980322 -0.235
1588.6796875 1.141428 0.907502 -0.233926
1589.859375 1.121079 0.878398 -0.242681
1590.3984375 0.6927270000000001 0.422727 -0.27
1591.80859375 1.134259 0.889295 -0.244964
1593.89453125 0.8670009999999999 0.509994 -0.357007
1594.4140625 0.951221 0.375 -0.576221
1595.80078125 1.1832070000000001 0.958207 -0.225
1596.67578125 1.145242 0.876412 -0.26883
1597.19140625 1.188882 0.899663 -0.289219
1597.6015625 1.345816 1.042859 -0.302957
1598.1953125 1.113705 0.854661 -0.259044
1598.68359375 1.205117 0.924697 -0.28042
1599.16796875 1.275242 0.966179 -0.309063
1599.60546875 1.2552750000000001 0.905275 -0.35
1600.12890625 1.150155 0.76828 -0.381875
1600.9375 1.258661 0.913661 -0.345
1601.50390625 1.204635 0.884635 -0.32
1601.9296875 1.252202 0.903158 -0.349044
1602.52734375 1.183866 0.843866 -0.34
1603.0 1.0947529999999999 0.74 -0.354753
1603.5546875 1.248199 0.908199 -0.34
1604.3671875 1.23757 0.903796 -0.333774
1605.19140625 1.084058 0.769058 -0.315
1605.78515625 1.1988509999999999 0.842065 -0.356786
1606.26171875 1.139021 0.81 -0.329021
1606.8203125 1.089235 0.75818 -0.331055
1607.49609375 1.13765 0.828169 -0.309481
1608.23828125 1.2040950000000001 0.924095 -0.28
1608.734375 1.084085 0.727925 -0.35616
1609.44921875 1.056628 0.776628 -0.28
1610.1015625 1.192862 0.85782 -0.335042
1611.0 1.239594 0.905 -0.334594
1611.55078125 0.9801200000000001 0.681737 -0.298383
1612.13671875 1.082231 0.772231 -0.31
1612.62890625 1.146975 0.803135 -0.34384
1613.08984375 1.06739 0.717729 -0.349661
1613.73828125 1.0686710000000001 0.756885 -0.311786
1614.3359375 1.03466 0.754774 -0.279886
1614.89453125 1.176683 0.819912 -0.356771
1615.33203125 1.143075 0.809265 -0.33381
1615.72265625 1.059032 0.769862 -0.28917
1616.1484375 1.171255 0.876333 -0.294922
1616.57421875 1.168925 0.848925 -0.32
1616.9453125 1.179166 0.87651 -0.302656
1617.359375 1.137493 0.802493 -0.335
1618.140625 1.037396 0.782396 -0.255
1618.64453125 1.0869520000000001 0.780448 -0.306504
1619.7890625 1.1970560000000001 0.974535 -0.222521
1620.453125 1.059195 0.869195 -0.19
1620.98828125 1.065235 0.788181 -0.277054
1621.4921875 1.152755 0.867793 -0.284962
1621.98828125 1.060031 0.742856 -0.317175
1622.84765625 1.019317 0.799859 -0.219458
1623.49609375 1.044241 0.814241 -0.23
1624.22265625 1.203314 0.909184 -0.29413
1624.91796875 1.0608279999999999 0.808785 -0.252043
1625.58984375 1.069598 0.839598 -0.23
1626.43359375 1.233854 0.988854 -0.245
1626.9296875 1.074251 0.85636 -0.217891
1627.4140625 1.205551 0.985551 -0.22
1628.6015625 1.2340840000000002 1.019084 -0.215
1629.3828125 1.1445699999999999 0.975 -0.16957
1630.10546875 1.09435 0.929921 -0.164429
1630.765625 1.169447 0.964915 -0.204532
1631.55859375 1.173919 0.973919 -0.2
1631.9921875 1.257825 1.016575 -0.24125
1632.3671875 1.203888 0.974056 -0.229832
1632.85546875 1.074981 0.844981 -0.23
1633.4375 1.240527 0.990841 -0.249686
1634.15625 1.089688 0.900363 -0.189325
1634.8203125 1.126829 0.931829 -0.195
1635.55078125 1.111901 0.896887 -0.215014
1636.13671875 1.100833 0.92 -0.180833
1636.90234375 1.163555 0.94505 -0.218505
1637.44140625 1.084236 0.889507 -0.194729
1638.375 1.2643769999999999 1.035 -0.229377
1638.890625 1.019458 0.799487 -0.219971
1639.59765625 1.042982 0.813173 -0.229809
1640.34375 1.224725 0.959725 -0.265
1641.0390625 1.13483 0.89983 -0.235
1641.65625 1.041973 0.768333 -0.27364
1642.39453125 1.054349 0.834934 -0.219415
1642.8515625 1.314651 1.040897 -0.273754
1643.3984375 1.1701570000000001 0.910157 -0.26
1644.22265625 1.122734 0.895 -0.227734
1644.84765625 1.162189 0.933865 -0.228324
1645.46875 1.237616 1.006094 -0.231522
1646.26171875 1.1009740000000001 0.896267 -0.204707
1647.0078125 1.031604 0.831604 -0.2
1647.88671875 1.209286 0.989286 -0.22
1648.33203125 1.15918 0.991004 -0.168176
1649.12109375 1.090654 0.910654 -0.18
1649.85546875 1.1252849999999999 0.934924 -0.190361
1650.453125 1.287496 1.008348 -0.279148
1651.171875 1.134153 0.894153 -0.24
1651.62890625 1.08988 0.934099 -0.155781
1652.359375 1.175108 0.935333 -0.239775
1653.03515625 1.138001 0.928018 -0.209983
1653.75390625 1.1108660000000001 0.850866 -0.26
1654.34765625 0.9984869999999999 0.798487 -0.2
1655.15234375 1.23377 0.979368 -0.254402
1655.65234375 1.059084 0.814448 -0.244636
1656.52734375 1.035251 0.814318 -0.220933
1657.125 1.0898949999999998 0.835 -0.254895
1657.92578125 1.1865640000000002 0.906607 -0.279957
1658.5234375 1.084428 0.839428 -0.245
1659.2421875 1.147362 0.842426 -0.304936
1659.953125 1.239013 0.939013 -0.3
1660.62109375 1.120393 0.845393 -0.275
1661.1640625 1.005269 0.719817 -0.285452
1661.78125 1.033425 0.759651 -0.273774
1662.3828125 1.205 0.9 -0.305
1663.21875 1.08757 0.820462 -0.267108
1663.95703125 1.056854 0.792491 -0.264363
1664.67578125 1.275 1.0 -0.275
1665.12109375 1.086599 0.836723 -0.249876
1665.73828125 1.102074 0.832308 -0.269766
1666.18359375 1.185179 0.904266 -0.280913
1666.9921875 1.1865999999999999 0.913643 -0.272957
1667.69921875 1.2614670000000001 0.977346 -0.284121
1668.23046875 1.0687929999999999 0.799963 -0.26883
1669.08984375 1.175533 0.915202 -0.260331
1669.80078125 1.255664 0.981945 -0.273719
1670.62109375 1.1693259999999999 0.866973 -0.302353
1671.41796875 1.136132 0.866151 -0.269981
1672.01171875 1.116853 0.781853 -0.335
1672.73046875 1.134717 0.849675 -0.285042
1673.25390625 0.9425760000000001 0.726076 -0.2165
1673.86328125 1.138774 0.885 -0.253774
1674.35546875 1.16017 0.875294 -0.284876
1674.765625 1.280795 0.980824 -0.299971
1675.390625 1.188043 0.865 -0.323043
1676.12109375 1.143875 0.819343 -0.324532
1676.859375 1.131742 0.842106 -0.289636
1677.53515625 1.271947 0.951947 -0.32
1678.05078125 1.0786259999999999 0.688626 -0.39
1678.78125 1.120795 0.819894 -0.300901
1679.25390625 1.113727 0.865719 -0.248008
1679.90234375 1.280665 0.921806 -0.358859
1680.546875 1.139011 0.86 -0.279011
1681.20703125 1.0815649999999999 0.812561 -0.269004
1681.88671875 1.180436 0.900749 -0.279687
1682.54296875 1.159401 0.889862 -0.269539
1683.265625 1.0778860000000001 0.825988 -0.251898
1683.8828125 1.034511 0.794511 -0.24
1684.52734375 1.203073 0.916382 -0.286691
1685.09765625 1.098728 0.834707 -0.264021
1685.74609375 1.105277 0.841023 -0.264254
1686.16796875 0.545 0.32 -0.225
1686.6640625 1.0996380000000001 0.764779 -0.334859
1687.2734375 1.2174369999999999 0.923986 -0.293451
1687.66796875 0.9262459999999999 0.641246 -0.285
1688.3203125 1.049021 0.766455 -0.282566
1689.0859375 1.139754 0.904979 -0.234775
1689.7578125 1.167 0.912 -0.255
1690.42578125 1.137811 0.853448 -0.284363
1691.296875 1.108172 0.879242 -0.22893
1691.91796875 1.219705 0.954705 -0.265
1692.61328125 1.166495 0.886669 -0.279826
1693.2265625 1.067743 0.818037 -0.249706
1693.9765625 1.2108539999999999 0.930854 -0.28
1694.828125 1.098894 0.839355 -0.259539
1695.5703125 1.103885 0.854617 -0.249268
1696.015625 1.107525 0.864275 -0.24325
1696.703125 1.255234 0.95087 -0.304364
1697.31640625 1.213892 0.929048 -0.284844
1698.10546875 1.1149010000000001 0.825289 -0.289612
1698.8828125 1.215964 0.933534 -0.28243
1699.53515625 1.204361 0.999361 -0.205
1700.37890625 1.063836 0.880168 -0.183668
1701.1171875 1.108179 0.881544 -0.226635
1702.0 1.214062 0.965 -0.249062
1702.7265625 1.118935 0.878935 -0.24
1703.296875 1.0836489999999999 0.833649 -0.25
1703.86328125 1.170707 0.854557 -0.31615
1704.38671875 1.043333 0.783458 -0.259875
1704.98046875 1.099411 0.884411 -0.215
1705.86328125 1.125605 0.900693 -0.224912
1706.3203125 1.186528 0.971571 -0.214957
1706.9921875 1.116196 0.886676 -0.22952
1707.59765625 0.993037 0.778069 -0.214968
1708.1796875 1.035 0.82 -0.215
1708.671875 1.182518 0.879519 -0.302999
1709.046875 1.174572 0.849572 -0.325
1709.7734375 1.052681 0.802681 -0.25
1710.5546875 1.0848900000000001 0.814562 -0.270328
1711.05859375 1.104212 0.779212 -0.325
1711.73828125 1.1136 0.8636 -0.25
1712.4140625 1.101668 0.821836 -0.279832
1713.12890625 1.075 0.79 -0.285
1713.79296875 1.330759 0.929463 -0.401296
1714.265625 1.138333 0.778343 -0.35999
1715.125 1.104854 0.78 -0.324854
1715.73046875 1.191762 0.854887 -0.336875
1716.53125 1.1757710000000001 0.835771 -0.34
1717.07421875 1.080986 0.781838 -0.299148
1717.515625 1.1095320000000002 0.81 -0.299532
1718.26953125 1.232184 0.894848 -0.337336
1718.9375 1.1827420000000002 0.907742 -0.275
1719.48828125 1.045149 0.783085 -0.262064
1720.0625 1.040134 0.745134 -0.295
1720.6796875 1.166522 0.85162 -0.314902
1721.3359375 1.1843439999999998 0.924638 -0.259706
1721.83203125 1.012314 0.777336 -0.234978
1722.3671875 1.097656 0.817948 -0.279708
1722.8515625 1.045023 0.785023 -0.26
1723.515625 1.200065 0.921523 -0.278542
1724.27734375 1.1137730000000001 0.878773 -0.235
1724.9296875 1.098779 0.868779 -0.23
1725.67578125 1.296862 1.04405 -0.252812
1726.11328125 1.197194 0.982409 -0.214785
1726.7421875 1.069034 0.864098 -0.204936
1727.44140625 1.124077 0.889077 -0.235
1728.1796875 1.238142 1.003233 -0.234909
1728.9140625 1.077207 0.86995 -0.207257
1729.5390625 1.068591 0.83956 -0.229031
1730.140625 1.169245 0.889245 -0.28
1730.67578125 1.102446 0.7762 -0.326246
1731.375 1.1296119999999998 0.82 -0.309612
1731.8359375 1.13988 0.84988 -0.29
1732.4453125 1.261439 0.892689 -0.36875
1733.08984375 1.210359 0.845397 -0.364962
1733.7421875 1.126905 0.786544 -0.340361
1734.30859375 1.1688770000000002 0.789834 -0.379043
1734.94921875 1.162344 0.842344 -0.32
1735.63671875 1.1605050000000001 0.843152 -0.317353
1736.47265625 1.097432 0.817418 -0.280014
1737.4296875 1.165889 0.874467 -0.291422
1738.109375 1.1099999999999999 0.865 -0.245
1738.69140625 1.10555 0.804888 -0.300662
1739.39453125 1.189687 0.894934 -0.294753
1740.0703125 1.2875260000000002 1.019926 -0.2676
1740.5234375 1.1397490000000001 0.947643 -0.192106
1741.1953125 1.075969 0.861378 -0.214591
1741.734375 0.977653 0.7529 -0.224753
1742.21875 1.192031 0.932461 -0.25957
1742.94921875 1.1347749999999999 0.865 -0.269775
1743.63671875 1.1225209999999999 0.874737 -0.247784
1744.1171875 1.186315 0.907963 -0.278352
1745.3125 1.201393 0.992148 -0.209245
1745.91796875 1.139151 0.964027 -0.175124
1746.390625 1.050057 0.865282 -0.184775
1746.9609375 1.133457 0.883926 -0.249531
1747.5859375 1.234763 0.974763 -0.26
1748.125 1.116898 0.825 -0.291898
1748.95703125 1.15208 0.822444 -0.329636
1749.4375 1.19018 0.900446 -0.289734
1750.08984375 1.273972 0.941212 -0.33276
1750.8125 1.13226 0.827222 -0.305038
1751.27734375 1.107855 0.779849 -0.328006
1752.0390625 1.114929 0.774929 -0.34
1752.65234375 1.264591 0.927798 -0.336793
1753.39453125 1.147639 0.864958 -0.282681
1753.8671875 1.240833 0.957079 -0.283754
1754.32421875 1.197351 0.882407 -0.314944
1755.04296875 1.210955 0.875066 -0.335889
1755.76953125 1.2023570000000001 0.924918 -0.277439
1756.5625 1.145 0.855 -0.29
1757.2734375 1.000794 0.786191 -0.214603
1757.71484375 1.213648 0.95437 -0.259278
1758.35546875 1.176412 0.874891 -0.301521
1759.12890625 1.055548 0.770548 -0.285
1759.734375 1.128308 0.806375 -0.321933
1760.3828125 1.26074 0.912612 -0.348128
1761.15625 1.05139 0.79 -0.26139
1762.1875 1.0470169999999999 0.854336 -0.192681
1762.97265625 1.326911 1.06402 -0.262891
1763.671875 1.16801 0.933479 -0.234531
1764.47265625 1.062711 0.867711 -0.195
1765.26171875 1.248259 1.028844 -0.219415
1765.7421875 1.202885 0.972917 -0.229968
1766.21875 1.194077 0.964141 -0.229936
1766.94921875 1.173977 0.930905 -0.243072
1767.64453125 1.26454 1.019879 -0.244661
1768.48046875 1.203348 0.979897 -0.223451
1769.19140625 1.151836 0.91 -0.241836
1770.23046875 1.244403 1.019988 -0.224415
1770.8984375 1.15609 0.95109 -0.205
1771.375 1.154968 0.85 -0.304968
1771.8828125 1.031258 0.778724 -0.252534
1772.51171875 1.209986 0.9 -0.309986
1773.046875 1.180662 0.864272 -0.31639
1773.703125 1.238231 0.959913 -0.278318
1774.1953125 1.167692 0.922692 -0.245
1774.8046875 1.124744 0.880015 -0.244729
1775.38671875 1.213986 0.944744 -0.269242
1776.015625 1.178804 0.908804 -0.27
1776.75 1.109928 0.86 -0.249928
1777.34765625 1.083472 0.855938 -0.227534
1777.76953125 1.228672 1.035 -0.193672
1778.5 1.1849159999999999 0.97 -0.214916
1779.23046875 1.104748 0.904916 -0.199832
1779.98046875 1.123523 0.935572 -0.187951
1780.60546875 1.2058799999999998 1.029359 -0.176521
1781.12890625 1.003154 0.823154 -0.18
1782.0625 1.195712 0.97413 -0.221582
1782.83984375 1.254481 0.985397 -0.269084
1783.4375 1.16982 0.9545 -0.21532
1784.1875 1.130782 0.898676 -0.232106
1784.7109375 1.029634 0.849905 -0.179729
1785.37890625 1.31982 1.041206 -0.278614
1786.02734375 1.318946 1.008877 -0.310069
1786.76953125 1.109921 0.874966 -0.234955
1790.54296875 1.1845 1.09311 -0.09139
1792.16015625 1.139805 0.956422 -0.183383
1793.8984375 1.199491 1.093007 -0.106484
1794.58984375 1.190447 1.015646 -0.174801
1795.890625 1.181359 1.006768 -0.174591
1797.91796875 1.288523 1.073523 -0.215
1799.90625 1.206687 1.002156 -0.204531
1801.16796875 1.168352 0.99 -0.178352
1803.0703125 1.223401 1.02392 -0.199481
