462187 
141 
309 
484 
646 
819 
1012 
1201 
1377 
1546 
1693 
1841 
1998 
2157 
2321 
2511 
2683 
2854 
3030 
3200 
3369 
3527 
3686 
3856 
4027 
4196 
4369 
4538 
4703 
4863 
5031 
5203 
5372 
5544 
5726 
5913 
6084 
6251 
6424 
6588 
6748 
6916 
7093 
7265 
7439 
7609 
7770 
7932 
8096 
8264 
8428 
8591 
8760 
8930 
9097 
9264 
9429 
9588 
9752 
9924 
10100 
10276 
10461 
10642 
10815 
10981 
11152 
11323 
11492 
11662 
11842 
12024 
12195 
12372 
12548 
12717 
12873 
13034 
13208 
13383 
13556 
13715 
13867 
14019 
14165 
14317 
14485 
14658 
14836 
15008 
15180 
15350 
15512 
15667 
15821 
15988 
16174 
16361 
16540 
16714 
16891 
17064 
17236 
17402 
17566 
17742 
17930 
18108 
18282 
18461 
18636 
18799 
18968 
19146 
19322 
19497 
19679 
19856 
20026 
20194 
20362 
20529 
20695 
20860 
21030 
21201 
21378 
21545 
21707 
21871 
22030 
22192 
22363 
22545 
22723 
22888 
23048 
23203 
23362 
23518 
23677 
23842 
24013 
24179 
24352 
24521 
24685 
24847 
25011 
25180 
25345 
25517 
25697 
25875 
26034 
26193 
26348 
26511 
26678 
26842 
27018 
27179 
27336 
27496 
27655 
27814 
27970 
28125 
28296 
28485 
28678 
28873 
29061 
29226 
29385 
29538 
29693 
29859 
30046 
30230 
30418 
30583 
30744 
30908 
31070 
31233 
31417 
31579 
31759 
31937 
32108 
32276 
32435 
32589 
32744 
32911 
33081 
33251 
33420 
33585 
33733 
33890 
34059 
34236 
34406 
34581 
34755 
34925 
35092 
35256 
35408 
35560 
35713 
35877 
36055 
36228 
36401 
36575 
36748 
36911 
37076 
37245 
37400 
37558 
37720 
37889 
38055 
38215 
38377 
38531 
38681 
38832 
38989 
39152 
39315 
39471 
39628 
39784 
39935 
40083 
40227 
40373 
40512 
40656 
40804 
40955 
41115 
41275 
41431 
41582 
41728 
41881 
42039 
42203 
42363 
42519 
42680 
42843 
42997 
43151 
43302 
43453 
43609 
43768 
43932 
44098 
44265 
44427 
44583 
44739 
44896 
45051 
45214 
45377 
45541 
45710 
45874 
46034 
46193 
46346 
46501 
46649 
46807 
46977 
47148 
47316 
47482 
47642 
47798 
47950 
48117 
48293 
48468 
48640 
48815 
48991 
49160 
49330 
49506 
49673 
49841 
50017 
50197 
50373 
50548 
50721 
50891 
51055 
51221 
51389 
51557 
51729 
51906 
52079 
52249 
52412 
52570 
52727 
52883 
53046 
53216 
53389 
53565 
53738 
53903 
54066 
54225 
54391 
54563 
54731 
54899 
55073 
55239 
55398 
55558 
55719 
55879 
56039 
56205 
56381 
56552 
56720 
56887 
57045 
57205 
57368 
57529 
57695 
57863 
58025 
58191 
58353 
58511 
58672 
58832 
58999 
59159 
59332 
59513 
59699 
59871 
60032 
60197 
60350 
60505 
60665 
60831 
61000 
61166 
61330 
61494 
61655 
61817 
61979 
62148 
62328 
62502 
62678 
62854 
63024 
63181 
63338 
63496 
63659 
63827 
63999 
64171 
64349 
64517 
64680 
64846 
65009 
65176 
65343 
65515 
65690 
65866 
66030 
66192 
66357 
66519 
66678 
66843 
67013 
67185 
67347 
67512 
67675 
67831 
67986 
68149 
68315 
68481 
68648 
68818 
68989 
69154 
69308 
69461 
69612 
69765 
69926 
70090 
70254 
70428 
70594 
70756 
70915 
71073 
71235 
71391 
71551 
71723 
71894 
72057 
72215 
72369 
72522 
72676 
72831 
72989 
73146 
73305 
73467 
73627 
73781 
73932 
74079 
74239 
74399 
74563 
74728 
74893 
75054 
75206 
75361 
75516 
75670 
75828 
75993 
76156 
76319 
76482 
76648 
76801 
76955 
77114 
77267 
77422 
77581 
77746 
77912 
78077 
78243 
78412 
78575 
78737 
78899 
79066 
79235 
79407 
79585 
79772 
79950 
80122 
80288 
80448 
80605 
80769 
80938 
81106 
81277 
81446 
81614 
81775 
81938 
82108 
82281 
82455 
82629 
82803 
82965 
83124 
83288 
83452 
83624 
83796 
83971 
84143 
84311 
84474 
84632 
84785 
84936 
85091 
85261 
85436 
85611 
85781 
85945 
86110 
86268 
86426 
86581 
86739 
86903 
87067 
87230 
87400 
87567 
87721 
87869 
88034 
88200 
88360 
88530 
88702 
88864 
89025 
89173 
89321 
89471 
89617 
89773 
89939 
90109 
90282 
90445 
90604 
90758 
90910 
91063 
91215 
91378 
91551 
91720 
91890 
92052 
92208 
92364 
92515 
92671 
92832 
92995 
93167 
93339 
93514 
93690 
93861 
94020 
94177 
94337 
94498 
94666 
94837 
95004 
95171 
95331 
95492 
95656 
95826 
96007 
96183 
96351 
96515 
96678 
96834 
96991 
97144 
97294 
97451 
97624 
97802 
97976 
98146 
98317 
98481 
98636 
98796 
98963 
99128 
99292 
99462 
99642 
99810 
99970 
100126 
100292 
100455 
100619 
100796 
100976 
101147 
101322 
101494 
101666 
101830 
101993 
102156 
102325 
102498 
102663 
102825 
102987 
103149 
103310 
103470 
103641 
103824 
103999 
104170 
104342 
104507 
104660 
104817 
104981 
105152 
105320 
105490 
105664 
105832 
105991 
106147 
106294 
106440 
106591 
106744 
106910 
107072 
107231 
107391 
107547 
107698 
107850 
108003 
108155 
108303 
108458 
108618 
108779 
108938 
109089 
109239 
109387 
109534 
109680 
109835 
110006 
110179 
110352 
110517 
110670 
110820 
110966 
111111 
111260 
111409 
111564 
111720 
111883 
112047 
112204 
112361 
112510 
112666 
112826 
112987 
113152 
113317 
113483 
113644 
113794 
113944 
114098 
114251 
114412 
114569 
114731 
114897 
115058 
115216 
115371 
115524 
115681 
115833 
115990 
116153 
116319 
116481 
116635 
116792 
116946 
117099 
117256 
117416 
117582 
117751 
117913 
118076 
118241 
118397 
118548 
118703 
118863 
119028 
119187 
119360 
119534 
119699 
119861 
120019 
120177 
120336 
120500 
120675 
120848 
121018 
121188 
121354 
121510 
121662 
121812 
121963 
122118 
122286 
122473 
122661 
122823 
122979 
123131 
123278 
123431 
123591 
123759 
123935 
124104 
124278 
124456 
124619 
124777 
124934 
125097 
125263 
125433 
125606 
125776 
125951 
126116 
126283 
126447 
126611 
126781 
126947 
127112 
127282 
127445 
127602 
127762 
127929 
128096 
128267 
128447 
128616 
128786 
128945 
129103 
129258 
129408 
129561 
129722 
129887 
130052 
130225 
130402 
130572 
130737 
130887 
131036 
131185 
131335 
131488 
131643 
131806 
131965 
132125 
132298 
132480 
132652 
132830 
133004 
133174 
133346 
133524 
133691 
133859 
134016 
134183 
134370 
134563 
134749 
134934 
135112 
135296 
135471 
135637 
135802 
135967 
136139 
136308 
136483 
136663 
136841 
137016 
137181 
137347 
137518 
137696 
137866 
138032 
138199 
138369 
138545 
138723 
138892 
139056 
139220 
139388 
139553 
139712 
139874 
140040 
140197 
140358 
140527 
140708 
140889 
141064 
141230 
141388 
141540 
141688 
141842 
142000 
142162 
142320 
142490 
142666 
142842 
143006 
143170 
143317 
143466 
143617 
143769 
143930 
144092 
144251 
144406 
144565 
144728 
144894 
145061 
145232 
145403 
145574 
145742 
145903 
146065 
146222 
146375 
146536 
146700 
146876 
147052 
147218 
147379 
147528 
147676 
147825 
147973 
148126 
148286 
148448 
148619 
148790 
148967 
149132 
149289 
149443 
149598 
149759 
149923 
150090 
150258 
150420 
150575 
150724 
150878 
151035 
151190 
151350 
151515 
151687 
151852 
152013 
152173 
152328 
152484 
152653 
152822 
152987 
153152 
153311 
153473 
153625 
153778 
153938 
154104 
154270 
154439 
154608 
154773 
154939 
155105 
155263 
155420 
155573 
155736 
155900 
156068 
156244 
156420 
156586 
156750 
156907 
157066 
157222 
157383 
157555 
157728 
157900 
158067 
158237 
158404 
158566 
158726 
158886 
159064 
159244 
159416 
159583 
159743 
159897 
160054 
160218 
160383 
160548 
160712 
160875 
161043 
161208 
161367 
161523 
161679 
161843 
162008 
162170 
162334 
162501 
162660 
162815 
162963 
163109 
163260 
163423 
163594 
163760 
163925 
164102 
164276 
164443 
164603 
164754 
164904 
165053 
165175 
165365 
165514 
165661 
165802 
165943 
166088 
166235 
166391 
166545 
166709 
166877 
167042 
167208 
167372 
167534 
167686 
167845 
168013 
168184 
168350 
168521 
168693 
168859 
169021 
169178 
169336 
169499 
169665 
169833 
170006 
170179 
170354 
170514 
170671 
170831 
170985 
171140 
171297 
171461 
171630 
171794 
171958 
172116 
172270 
172429 
172586 
172748 
172926 
173108 
173283 
173450 
173608 
173761 
173907 
174052 
174196 
174351 
174515 
174684 
174858 
175026 
175191 
175358 
175524 
175696 
175867 
176035 
176199 
176366 
176526 
176682 
176842 
177001 
177155 
177319 
177493 
177668 
177839 
177999 
178155 
178301 
178442 
178586 
178732 
178889 
179076 
179268 
179454 
179620 
179786 
179948 
180108 
180258 
180416 
180585 
180761 
180933 
181112 
181290 
181475 
181652 
181831 
182008 
182181 
182348 
182519 
182691 
182855 
183014 
183183 
183353 
183522 
183693 
183870 
184047 
184215 
184376 
184532 
184686 
184840 
185000 
185170 
185334 
185497 
185662 
185833 
186013 
186177 
186337 
186499 
186672 
186857 
187050 
187231 
187394 
187553 
187713 
187872 
188029 
188184 
188343 
188505 
188664 
188821 
188977 
189127 
189276 
189427 
189585 
189755 
189932 
190102 
190270 
190427 
190578 
190727 
190874 
191030 
191185 
191340 
191497 
191655 
191814 
191975 
192129 
192276 
192425 
192578 
192734 
192895 
193070 
193238 
193407 
193568 
193717 
193863 
194009 
194158 
194307 
194458 
194605 
194754 
194908 
195057 
195226 
195406 
195586 
195753 
195920 
196092 
196264 
196429 
196584 
196740 
196895 
197051 
197209 
197382 
197577 
197765 
197948 
198122 
198283 
198433 
198586 
198738 
198893 
199056 
199231 
199422 
199610 
199783 
199956 
200128 
200298 
200473 
200653 
200833 
201002 
201175 
201347 
201515 
201680 
201847 
202015 
202186 
202363 
202539 
202710 
202867 
203029 
203195 
203357 
203523 
203696 
203862 
204031 
204192 
204358 
204526 
204692 
204850 
205006 
205168 
205333 
205501 
205668 
205837 
206011 
206173 
206332 
206502 
206671 
206841 
207004 
207170 
207330 
207484 
207634 
207781 
207924 
208072 
208222 
208383 
208548 
208709 
208867 
209022 
209174 
209327 
209482 
209644 
209806 
209969 
210139 
210304 
210465 
210629 
210790 
210945 
211100 
211263 
211432 
211603 
211770 
211933 
212097 
212253 
212408 
212572 
212742 
212915 
213077 
213245 
213411 
213572 
213730 
213889 
214045 
214205 
214368 
214537 
214706 
214872 
215033 
215185 
215340 
215494 
215652 
215828 
216011 
216193 
216362 
216524 
216680 
216833 
216987 
217143 
217310 
217490 
217678 
217861 
218037 
218211 
218377 
218540 
218706 
218872 
219045 
219217 
219387 
219558 
219724 
219894 
220056 
220218 
220381 
220554 
220727 
220898 
221068 
221230 
221391 
221552 
221711 
221872 
222041 
222205 
222370 
222535 
222701 
222860 
223015 
223172 
223334 
223497 
223661 
223838 
224015 
224185 
224342 
224494 
224648 
224807 
224967 
225134 
225301 
225479 
225664 
225835 
226004 
226169 
226325 
226482 
226639 
226804 
226982 
227157 
227320 
227474 
227630 
227792 
227963 
228144 
228328 
228507 
228676 
228842 
229007 
229178 
229350 
229519 
229691 
229863 
230028 
230192 
230358 
230522 
230681 
230836 
230993 
231166 
231348 
231532 
231704 
231870 
232029 
232187 
232350 
232517 
232692 
232862 
233042 
233229 
233405 
233574 
233732 
233888 
234047 
234220 
234404 
234586 
234763 
234932 
235097 
235260 
235416 
235571 
235733 
235909 
236090 
236277 
236458 
236622 
236785 
236948 
237112 
237287 
237456 
237620 
237787 
237953 
238113 
238277 
238441 
238603 
238767 
238937 
239120 
239312 
239489 
239655 
239816 
239972 
240125 
240282 
240441 
240601 
240764 
240933 
241114 
241293 
241467 
241631 
241795 
241963 
242135 
242312 
242491 
242667 
242827 
242980 
243137 
243307 
243482 
243660 
243835 
244012 
244188 
244363 
244533 
244699 
244857 
245013 
245179 
245359 
245536 
245712 
245880 
246048 
246216 
246389 
246567 
246734 
246905 
247071 
247242 
247405 
247561 
247723 
247899 
248085 
248276 
248460 
248638 
248808 
248976 
249135 
249296 
249467 
249653 
249847 
250047 
250227 
250402 
250576 
250750 
250909 
251067 
251233 
251408 
251589 
251763 
251938 
252129 
252323 
252509 
252684 
252857 
253027 
253193 
253362 
253527 
253691 
253866 
254051 
254241 
254423 
254614 
254808 
254990 
255166 
255324 
255484 
255655 
255826 
255998 
256169 
256343 
256515 
256689 
256854 
257024 
257206 
257385 
257564 
257753 
257935 
258102 
258261 
258431 
258600 
258766 
258935 
259105 
259282 
259448 
259613 
259775 
259943 
260118 
260287 
260451 
260618 
260785 
260946 
261102 
261246 
261388 
261536 
261698 
261867 
262041 
262214 
262383 
262548 
262707 
262865 
263012 
263161 
263324 
263488 
263660 
263843 
264021 
264192 
264351 
264521 
264694 
264872 
265053 
265233 
265402 
265560 
265715 
265866 
266013 
266161 
266318 
266485 
266661 
266830 
267001 
267178 
267341 
267497 
267654 
267808 
267965 
268124 
268289 
268451 
268615 
268781 
268946 
269111 
269271 
269434 
269597 
269768 
269945 
270116 
270286 
270449 
270606 
270762 
270917 
271079 
271249 
271414 
271576 
271738 
271901 
272057 
272207 
272358 
272517 
272681 
272845 
273014 
273187 
273357 
273528 
273696 
273857 
274012 
274165 
274320 
274470 
274622 
274781 
274939 
275098 
275261 
275422 
275587 
275749 
275915 
276090 
276261 
276425 
276582 
276737 
276893 
277050 
277208 
277374 
277542 
277706 
277870 
278034 
278192 
278351 
278505 
278664 
278830 
278992 
279159 
279321 
279474 
279625 
279777 
279930 
280088 
280250 
280417 
280580 
280751 
280930 
281101 
281267 
281442 
281622 
281797 
281975 
282159 
282336 
282524 
282700 
282874 
283039 
283203 
283378 
283569 
283758 
283936 
284108 
284282 
284449 
284608 
284775 
284934 
285106 
285281 
285459 
285642 
285819 
285988 
286151 
286320 
286490 
286665 
286831 
287002 
287179 
287349 
287516 
287687 
287852 
288017 
288186 
288362 
288533 
288700 
288863 
289023 
289185 
289349 
289524 
289706 
289880 
290056 
290231 
290408 
290578 
290744 
290903 
291065 
291236 
291402 
291574 
291743 
291906 
292073 
292240 
292409 
292590 
292771 
292945 
293119 
293289 
293450 
293610 
293774 
293937 
294102 
294272 
294454 
294640 
294814 
294982 
295152 
295316 
295479 
295648 
295825 
296000 
296176 
296348 
296524 
296692 
296859 
297027 
297200 
297383 
297563 
297733 
297898 
298055 
298207 
298358 
298515 
298675 
298839 
299008 
299186 
299363 
299530 
299698 
299863 
300020 
300177 
300334 
300502 
300671 
300837 
300999 
301157 
301317 
301477 
301646 
301818 
301987 
302164 
302337 
302512 
302680 
302841 
303000 
303157 
303319 
303487 
303669 
303844 
304020 
304192 
304362 
304528 
304697 
304865 
305038 
305209 
305383 
305560 
305733 
305906 
306077 
306248 
306417 
306598 
306782 
306957 
307120 
307276 
307428 
307581 
307740 
307904 
308079 
308259 
308430 
308605 
308779 
308936 
309091 
309246 
309409 
309576 
309743 
309918 
310101 
310268 
310433 
310601 
310775 
310946 
311126 
311308 
311487 
311668 
311846 
312017 
312184 
312349 
312518 
312688 
312870 
313055 
313236 
313401 
313572 
313743 
313907 
314077 
314259 
314435 
314608 
314786 
314959 
315126 
315290 
315456 
315631 
315809 
315987 
316171 
316352 
316521 
316684 
316844 
317005 
317162 
317323 
317481 
317647 
317822 
317984 
318142 
318306 
318468 
318631 
318796 
318973 
319156 
319329 
319499 
319667 
319838 
320000 
320167 
320340 
320512 
320683 
320854 
321026 
321196 
321361 
321531 
321697 
321867 
322036 
322213 
322384 
322546 
322709 
322869 
323033 
323203 
323377 
323550 
323723 
323899 
324071 
324239 
324404 
324566 
324733 
324897 
325073 
325250 
325422 
325592 
325762 
325928 
326085 
326254 
326425 
326595 
326766 
326934 
327105 
327270 
327428 
327589 
327756 
327927 
328096 
328268 
328441 
328606 
328768 
328928 
329090 
329253 
329419 
329594 
329766 
329941 
330116 
330290 
330454 
330615 
330780 
330947 
331125 
331311 
331490 
331663 
331827 
331989 
332149 
332310 
332474 
332643 
332824 
332999 
333177 
333355 
333527 
333691 
333858 
334029 
334199 
334374 
334556 
334734 
334906 
335071 
335241 
335417 
335590 
335768 
335953 
336131 
336302 
336476 
336648 
336811 
336979 
337152 
337329 
337505 
337685 
337859 
338029 
338204 
338377 
338548 
338724 
338905 
339084 
339259 
339435 
339609 
339773 
339933 
340103 
340282 
340457 
340637 
340819 
340994 
341157 
341322 
341492 
341666 
341845 
342026 
342208 
342383 
342554 
342728 
342904 
343077 
343248 
343426 
343614 
343798 
343977 
344144 
344315 
344486 
344655 
344832 
345025 
345220 
345402 
345591 
345775 
345949 
346118 
346297 
346485 
346668 
346851 
347035 
347214 
347384 
347559 
347743 
347926 
348104 
348277 
348452 
348629 
348805 
348976 
349149 
349334 
349523 
349709 
349902 
350085 
350253 
350418 
350586 
350750 
350920 
351096 
351278 
351457 
351633 
351807 
351971 
352132 
352291 
352452 
352625 
352799 
352969 
353139 
353305 
353463 
353621 
353786 
353956 
354133 
354304 
354479 
354660 
354830 
354994 
355162 
355337 
355501 
355674 
355862 
356045 
356222 
356398 
356571 
356736 
356905 
357083 
357265 
357446 
357539 
357645 
357808 
357995 
358175 
358353 
358519 
358682 
358851 
359016 
359179 
359337 
359496 
359655 
359813 
359974 
360140 
360301 
360469 
360647 
360819 
360996 
361166 
361327 
361487 
361643 
361805 
361968 
362123 
362277 
362425 
362575 
362726 
362877 
363047 
363223 
363392 
363566 
363748 
363931 
364098 
364263 
364426 
364589 
364758 
364924 
365093 
365269 
365448 
365622 
365784 
365955 
366131 
366313 
366488 
366673 
366858 
367037 
367205 
367372 
367542 
367710 
367883 
368070 
368260 
368450 
368629 
368806 
368983 
369154 
369326 
369505 
369691 
369869 
370045 
370227 
370400 
370560 
370727 
370900 
371080 
371266 
371461 
371648 
371821 
371991 
372157 
372320 
372485 
372652 
372822 
372998 
373169 
373344 
373515 
373674 
373845 
374018 
374197 
374383 
374570 
374750 
374921 
375102 
375294 
375492 
375692 
375884 
376060 
376240 
376418 
376585 
376748 
376927 
377130 
377327 
377518 
377718 
377909 
378081 
378251 
378424 
378633 
378872 
379124 
379361 
379576 
379768 
379945 
380120 
380296 
380473 
380650 
380832 
381012 
381200 
381393 
381584 
381766 
381954 
382143 
382328 
382502 
382675 
382842 
383008 
383171 
383330 
383496 
383672 
383841 
384003 
384157 
384317 
384479 
384639 
384811 
384992 
385174 
385347 
385515 
385680 
385841 
386001 
386160 
386328 
386512 
386691 
386864 
387042 
387208 
387368 
387530 
387698 
387865 
388036 
388207 
388387 
388563 
388730 
388897 
389068 
389237 
389409 
389589 
389770 
389943 
390115 
390289 
390460 
390638 
390822 
391001 
391186 
391376 
391562 
391737 
391908 
392074 
392240 
392418 
392610 
392793 
392970 
393144 
393313 
393473 
393635 
393807 
393979 
394155 
394336 
394525 
394704 
394875 
395043 
395218 
395393 
395570 
395756 
395935 
396109 
396285 
396455 
396623 
396791 
396964 
397141 
397318 
397499 
397678 
397851 
398023 
398195 
398361 
398530 
398711 
398893 
399066 
399234 
399399 
399557 
399710 
399870 
400037 
400206 
400385 
400563 
400743 
400921 
401096 
401260 
401429 
401605 
401780 
401960 
402143 
402321 
402490 
402657 
402835 
403011 
403186 
403365 
403554 
403735 
403917 
404098 
404275 
404443 
404613 
404795 
404981 
405162 
405343 
405515 
405683 
405849 
406021 
406207 
406400 
406582 
406766 
406958 
407133 
407298 
407465 
407637 
407817 
408002 
408180 
408357 
408536 
408701 
408875 
409063 
409255 
409449 
409630 
409811 
409988 
410157 
410318 
410479 
410642 
410820 
411018 
411220 
411415 
411592 
411767 
411949 
412149 
412341 
412526 
412705 
412881 
413059 
413225 
413387 
413554 
413732 
413911 
414093 
414291 
414481 
414664 
414847 
415034 
415210 
415383 
415564 
415754 
415938 
416115 
416287 
416455 
416623 
416786 
416955 
417134 
417319 
417495 
417675 
417851 
418027 
418196 
418369 
418546 
418722 
418897 
419076 
419249 
419414 
419574 
419739 
419914 
420090 
420269 
420454 
420637 
420801 
420964 
421132 
421295 
421457 
421621 
421795 
421990 
422184 
422394 
422583 
422758 
422934 
423117 
423294 
423469 
423641 
423808 
423969 
424128 
424292 
424462 
424643 
424834 
425018 
425212 
425404 
425590 
425757 
425931 
426106 
426285 
426465 
426649 
426831 
427013 
427182 
427357 
427532 
427709 
427884 
428068 
428251 
428431 
428602 
428769 
428938 
429107 
429279 
429460 
429645 
429824 
429998 
430171 
430341 
430507 
430674 
430846 
431026 
431202 
431382 
431564 
431739 
431902 
432068 
432243 
432418 
432597 
432779 
432956 
433135 
433306 
433475 
433649 
433830 
434003 
434190 
434382 
434571 
434742 
434910 
435081 
435245 
435416 
435603 
435792 
435968 
436145 
436323 
436490 
436657 
436830 
437002 
437173 
437347 
437533 
437711 
437878 
438041 
438206 
438377 
438546 
438725 
438911 
439093 
439263 
439428 
439595 
439761 
439929 
440099 
440277 
440455 
440631 
440804 
440974 
441146 
441318 
441498 
441674 
441851 
442030 
442216 
442387 
442549 
442712 
442883 
443045 
443204 
443366 
443534 
443704 
443881 
444057 
444226 
444384 
444542 
444710 
444883 
445047 
445212 
445379 
445551 
445717 
445876 
446040 
446215 
446395 
446564 
446737 
446909 
447069 
447226 
447381 
447545 
447713 
447883 
448060 
448242 
448423 
448586 
448747 
448912 
449069 
449224 
449376 
449536 
449712 
449889 
450059 
450227 
450406 
450581 
450757 
450942 
451130 
451313 
451486 
451659 
451834 
451999 
452156 
452335 
452520 
452698 
452882 
453062 
453227 
453387 
453544 
453744 
453956 
454167 
454371 
454562 
454736 
454901 
455072 
455244 
455431 
455620 
455819 
456023 
456227 
456409 
456590 
456776 
456959 
457147 
457340 
457532 
457709 
457893 
458074 
458251 
458417 
458595 
458784 
458966 
459158 
459349 
459525 
459687 
459859 
460038 
460219 
460396 
460563 
460725 
460887 
461050 
461216 
461402 
461599 
461793 
461977 
462171 
