109 
208 
403 
496 
676 
767 
932 
1026 
1200 
1300 
1477 
1576 
1774 
1870 
2031 
2117 
2300 
2393 
2581 
2677 
2844 
2942 
3082 
3180 
3330 
3426 
3605 
3700 
3866 
3956 
4094 
4183 
4364 
4459 
4671 
4771 
4950 
5046 
5200 
5296 
5485 
5576 
5761 
5862 
5998 
6136 
6422 
6710 
6978 
7239 
7510 
7803 
8084 
8338 
8607 
8874 
9143 
9403 
9666 
9931 
10204 
10442 
10691 
10983 
11250 
11483 
11737 
12007 
12284 
12537 
12799 
13069 
13338 
13580 
13864 
14155 
14434 
14684 
14941 
15198 
15470 
15733 
15987 
16274 
16527 
16789 
17079 
17369 
17618 
17861 
18134 
18404 
18659 
18931 
19209 
19470 
19701 
19986 
20274 
20550 
20822 
21096 
21358 
21617 
21875 
22130 
22393 
22644 
22904 
23182 
23457 
23699 
23959 
24231 
24508 
24778 
25042 
25323 
25595 
25831 
26091 
26380 
26658 
26908 
27162 
27417 
27695 
27955 
28210 
28493 
28760 
28999 
29280 
29563 
29816 
30060 
30334 
30582 
30845 
31104 
31358 
31612 
31846 
32096 
32381 
32678 
32937 
33199 
33469 
33745 
34009 
34273 
34555 
34826 
35060 
35327 
35619 
35894 
36144 
36393 
36642 
36922 
37180 
37448 
37736 
38012 
38282 
38572 
38860 
39113 
39382 
39646 
39943 
40212 
40477 
40745 
41011 
41237 
41503 
41795 
42065 
42310 
42565 
42823 
43081 
43316 
43582 
43849 
44107 
44334 
44626 
44917 
45181 
45429 
45683 
45953 
46241 
46507 
46773 
47047 
47313 
47549 
47787 
48052 
48343 
48567 
48766 
48970 
49210 
49436 
49672 
49993 
50314 
50595 
50920 
51221 
51526 
51806 
52079 
52378 
52686 
52962 
53212 
53476 
53773 
54062 
54315 
54591 
54862 
55116 
55364 
55616 
55879 
56147 
56410 
56650 
56927 
57220 
57492 
57715 
57940 
58192 
58489 
58767 
59036 
59318 
59583 
59833 
60102 
60369 
60638 
60881 
61134 
61410 
61711 
61967 
62213 
62464 
62695 
62964 
63263 
63559 
63816 
64087 
64360 
64645 
64895 
65150 
65434 
65704 
65950 
66227 
66525 
66800 
67058 
67321 
67604 
67886 
68140 
68411 
68683 
68955 
69223 
69480 
69739 
70004 
70245 
70493 
70801 
71090 
71351 
71626 
71903 
72173 
72417 
72664 
72922 
73182 
73413 
73655 
73953 
74241 
74510 
74777 
75046 
75331 
75589 
75844 
76121 
76389 
76617 
76877 
77169 
77451 
77701 
77956 
78227 
78513 
78777 
79006 
79258 
79509 
79737 
80024 
80325 
80603 
80854 
81116 
81391 
81657 
81921 
82190 
82456 
82693 
82962 
83233 
83497 
83748 
84002 
84264 
84556 
84827 
85085 
85364 
85643 
85886 
86137 
86414 
86706 
86973 
87253 
87545 
87846 
88112 
88386 
88661 
88934 
89212 
89495 
89770 
90045 
90298 
90555 
90861 
91133 
91371 
91618 
91876 
92149 
92402 
92667 
92936 
93198 
93426 
93689 
93967 
94225 
94482 
94733 
95005 
95296 
95558 
95804 
96075 
96360 
96587 
96832 
97116 
97406 
97673 
97946 
98224 
98502 
98759 
99027 
99302 
99549 
99803 
100072 
100350 
100625 
100877 
101003 
101257 
101524 
101774 
102000 
102255 
102538 
102808 
103103 
103397 
103675 
103929 
104186 
104319 
104616 
104880 
105147 
105430 
105689 
105934 
106211 
106504 
106768 
107016 
107282 
107577 
107856 
108100 
108365 
108624 
108878 
109145 
109415 
109683 
109957 
110202 
110443 
110737 
111022 
111267 
111533 
111803 
112067 
112351 
112644 
112917 
113146 
113403 
113703 
113994 
114247 
114521 
114786 
115053 
115326 
115606 
115877 
116140 
116383 
116635 
116926 
117205 
117454 
117709 
117980 
118272 
118529 
118788 
119059 
119327 
119556 
119834 
120126 
120390 
120641 
120900 
121148 
121417 
121672 
121927 
122191 
122460 
122706 
122980 
123249 
123516 
123751 
123996 
124251 
124533 
124794 
125054 
125332 
125589 
125811 
126078 
126363 
126638 
126880 
127135 
127406 
127689 
127946 
128206 
128465 
128714 
128965 
129225 
129491 
129752 
130008 
130137 
130397 
130690 
130970 
131223 
131484 
131753 
132001 
132241 
132489 
132765 
133009 
133252 
133515 
133823 
134084 
134341 
134615 
134876 
135135 
135398 
135672 
135935 
136172 
136413 
136689 
136972 
137214 
137466 
137721 
137975 
138245 
138508 
138781 
139054 
139313 
139561 
139864 
140147 
140379 
140643 
140917 
141176 
141455 
141744 
142011 
142248 
142478 
142713 
143012 
143280 
143561 
143840 
144095 
144348 
144625 
144898 
145168 
145426 
145672 
145957 
146240 
146489 
146726 
146979 
147229 
147475 
147733 
148000 
148275 
148510 
148727 
149019 
149304 
149559 
149821 
150094 
150357 
150622 
150911 
151178 
151453 
151713 
151960 
152234 
152513 
152781 
153015 
153271 
153552 
153842 
154093 
154361 
154640 
154883 
155135 
155403 
155665 
155916 
156143 
156392 
156670 
156933 
157173 
157427 
157682 
157914 
158177 
158458 
158726 
159003 
159258 
159518 
159811 
160094 
160333 
160594 
160861 
161119 
161386 
161659 
161925 
162174 
162397 
162621 
162897 
163181 
163436 
163696 
163957 
164208 
164468 
164745 
165011 
165260 
165511 
165766 
166060 
166330 
166580 
166845 
167105 
167382 
167635 
167888 
168157 
168429 
168669 
168953 
169252 
169507 
169746 
169992 
170245 
170528 
170796 
171066 
171327 
171574 
171794 
172050 
172299 
172560 
172816 
173059 
173294 
173558 
173809 
174054 
174327 
174602 
174837 
175108 
175395 
175670 
175914 
176164 
176419 
176701 
176957 
177195 
177455 
177726 
177976 
178263 
178547 
178812 
179055 
179306 
179564 
179856 
180124 
180380 
180635 
180876 
181096 
181306 
181505 
181713 
181925 
182120 
182306 
182503 
182849 
183166 
183407 
183618 
183824 
184017 
184327 
184618 
184884 
185145 
185427 
185709 
185997 
186283 
186562 
186801 
187013 
187239 
187498 
187766 
188032 
188304 
188559 
188788 
189033 
189264 
189512 
189786 
190063 
190306 
190537 
190751 
190951 
191145 
191335 
191524 
191695 
191901 
192165 
192417 
192659 
192955 
193234 
193539 
193844 
194126 
194415 
194703 
194973 
195243 
195498 
195762 
196032 
196288 
196580 
196876 
197160 
197429 
197658 
197879 
198171 
198456 
198709 
198999 
199286 
199564 
199842 
200109 
200366 
200622 
200866 
201089 
201325 
201606 
201892 
202155 
202416 
202702 
203002 
203277 
203534 
203782 
204033 
204315 
204580 
204838 
205109 
205377 
205613 
205848 
206109 
206383 
206647 
206880 
207118 
207420 
207702 
207941 
208185 
208443 
208689 
208945 
209206 
209462 
209726 
209972 
210213 
210472 
210734 
210980 
211216 
211461 
211720 
211978 
212204 
212450 
212752 
213036 
213288 
213598 
213914 
214188 
214413 
214656 
214936 
215236 
215496 
215760 
216037 
216302 
216605 
216897 
217177 
217424 
217649 
217900 
218212 
218488 
218756 
219040 
219320 
219599 
219905 
220202 
220474 
220716 
220959 
221246 
221531 
221795 
222037 
222280 
222536 
222833 
223086 
223323 
223599 
223870 
224122 
224404 
224696 
224959 
225191 
225444 
225714 
225972 
226208 
226458 
226717 
226949 
227203 
227488 
227755 
227993 
228237 
228483 
228723 
228966 
229218 
229465 
229724 
229947 
230165 
230409 
230654 
230885 
231147 
231414 
231666 
231922 
232201 
232474 
232756 
233002 
233228 
233508 
233812 
234078 
234334 
234612 
234879 
235130 
235396 
235673 
235914 
236136 
236365 
236633 
236864 
237096 
237398 
237685 
237944 
238241 
238515 
238749 
238967 
239205 
239462 
239715 
239978 
240249 
240505 
240735 
240981 
241272 
241544 
241775 
241999 
242231 
242468 
242712 
242965 
243213 
243485 
243727 
243965 
244256 
244538 
244777 
245010 
245243 
245483 
245728 
245973 
246232 
246515 
246755 
246983 
247263 
247519 
247735 
247961 
248225 
248484 
248729 
249018 
249293 
249542 
249762 
249981 
250247 
250552 
250821 
251092 
251356 
251589 
251822 
252056 
252283 
252502 
252712 
252903 
253086 
253296 
253543 
253835 
254109 
254390 
254677 
254962 
255265 
255550 
255831 
256083 
256362 
256650 
256915 
257155 
257381 
257626 
257894 
258184 
258453 
258705 
258982 
259228 
259479 
259694 
259895 
260109 
260353 
260550 
260740 
260953 
261304 
261608 
261914 
262211 
262498 
262807 
263085 
263364 
263644 
263925 
264221 
264496 
264783 
265065 
265334 
265604 
265905 
266189 
266451 
266693 
266924 
267211 
267501 
267737 
268004 
268292 
268563 
268810 
269057 
269308 
269576 
269826 
270075 
270385 
270665 
270918 
271170 
271441 
271713 
271994 
272267 
272541 
272823 
273075 
273335 
273616 
273895 
274160 
274411 
274668 
274948 
275205 
275439 
275721 
275993 
276241 
276513 
276779 
277058 
277310 
277554 
277819 
278115 
278379 
278598 
278853 
279117 
279379 
279660 
279937 
280199 
280422 
280658 
280909 
281205 
281454 
281717 
281997 
282255 
282507 
282776 
283048 
283289 
283507 
283754 
284032 
284319 
284577 
284841 
285103 
285335 
285606 
285895 
286163 
286414 
286684 
286942 
287217 
287482 
287746 
288017 
288269 
288493 
288758 
289049 
289340 
289611 
289888 
290166 
290463 
290748 
291032 
291283 
291529 
291821 
292083 
292341 
292589 
292834 
293043 
293302 
293583 
293843 
294078 
294320 
294560 
294797 
295022 
295240 
295455 
295675 
295876 
296086 
296328 
296597 
296829 
297049 
297288 
297541 
297758 
297982 
298214 
298449 
298658 
298864 
299095 
299366 
299642 
299926 
300202 
300454 
300725 
301024 
301292 
301551 
301832 
302087 
302345 
302635 
302905 
303157 
303422 
303686 
303917 
304177 
304485 
304774 
305058 
305325 
305630 
305928 
306203 
306493 
306783 
307062 
307381 
307660 
307918 
308199 
308480 
308760 
309037 
309301 
309546 
309818 
310096 
310368 
310628 
310885 
311149 
311405 
311691 
311955 
312211 
312451 
312690 
312914 
313166 
313473 
313759 
314023 
314281 
314510 
314738 
314978 
315222 
315434 
315648 
315880 
316125 
316376 
316614 
316852 
317090 
317317 
317529 
317754 
318005 
318226 
318423 
318618 
318820 
319110 
319403 
319671 
319940 
320200 
320431 
320636 
320866 
321173 
321448 
321663 
321877 
322116 
322381 
322669 
322928 
323168 
323434 
323695 
323913 
324138 
324383 
324637 
324897 
325022 
325264 
325524 
325784 
326014 
326241 
326489 
326724 
326933 
327165 
327411 
327664 
327903 
328145 
328402 
328686 
328935 
329194 
329473 
329746 
330003 
330313 
330599 
330858 
331130 
331403 
331678 
331974 
332254 
332507 
332781 
333056 
333326 
333614 
333900 
334147 
334368 
334646 
334962 
335222 
335439 
335682 
335940 
336201 
336465 
336733 
337003 
337247 
337476 
337723 
337992 
338242 
338503 
338770 
339016 
339233 
339495 
339762 
340000 
340231 
340479 
340749 
341028 
341292 
341553 
341818 
342068 
342190 
342469 
342768 
343033 
343274 
343546 
343813 
344065 
344332 
344572 
344815 
345032 
345247 
345503 
345763 
345986 
346214 
346448 
346676 
346879 
347108 
347354 
347563 
347760 
347992 
348264 
348539 
348788 
349065 
349340 
349579 
349811 
350066 
350341 
350578 
350833 
351091 
351333 
351588 
351860 
352112 
352352 
352595 
352824 
353048 
353325 
353576 
353807 
354073 
354326 
354559 
354839 
355120 
355374 
355623 
355877 
356115 
356387 
356661 
356921 
357162 
357414 
357667 
357916 
358169 
358426 
358681 
358942 
359207 
359475 
359734 
360002 
360251 
360488 
360746 
361033 
361294 
361552 
361819 
362058 
362307 
362583 
362841 
363110 
363356 
363623 
363905 
364163 
364414 
364675 
364920 
365134 
365383 
365688 
365929 
366158 
366403 
366659 
366866 
367089 
367331 
367567 
367782 
368025 
368271 
368523 
368774 
369026 
369258 
369474 
369719 
369951 
370210 
370461 
370710 
370936 
371142 
371341 
371572 
371800 
372058 
372329 
372572 
372793 
373038 
373318 
373570 
373800 
374034 
374259 
374458 
374690 
374930 
375176 
375384 
375584 
375771 
375947 
376116 
376312 
376638 
376913 
377154 
377415 
377695 
377975 
378216 
378463 
378720 
378978 
379259 
379560 
379838 
380104 
380368 
380629 
380885 
381153 
381422 
381703 
381961 
382215 
382488 
382723 
382961 
383226 
383482 
383728 
384029 
384299 
384549 
384803 
385029 
385229 
385486 
385760 
385981 
386196 
386433 
386683 
386905 
387161 
387424 
387638 
387848 
388078 
388353 
388648 
388933 
389207 
389457 
389716 
389980 
390273 
390534 
390764 
391020 
391280 
391539 
391821 
392073 
392289 
392522 
392774 
392998 
393239 
393531 
393813 
394086 
394358 
394632 
394899 
395158 
395395 
395619 
395838 
396048 
396276 
396513 
396755 
396975 
397207 
397466 
397705 
397935 
398180 
398403 
398619 
398902 
399179 
399447 
399703 
399959 
400191 
400439 
400686 
400918 
401152 
401365 
401597 
401812 
402042 
402301 
402579 
402826 
403065 
403302 
403535 
403736 
403959 
404186 
404413 
404635 
404832 
405029 
405285 
405584 
405828 
406037 
406249 
406486 
406700 
406918 
407178 
407454 
407709 
407922 
408130 
408358 
408626 
408856 
409072 
409328 
409588 
409837 
410090 
410343 
410583 
410816 
411020 
411217 
411419 
411678 
411945 
412176 
412412 
412663 
412918 
413172 
413419 
413672 
413932 
414154 
414371 
414633 
414891 
415123 
415348 
415599 
415867 
416099 
416342 
416596 
416858 
417125 
417383 
417660 
417952 
418233 
418491 
418749 
419006 
419275 
419550 
419830 
420120 
420390 
420676 
420975 
421261 
421539 
421815 
422070 
422364 
422650 
422929 
423199 
423446 
423707 
424001 
424263 
424519 
424806 
425064 
425295 
425551 
425822 
426057 
426263 
426483 
426762 
427047 
427295 
427549 
427829 
428086 
428332 
428600 
428856 
429087 
429317 
429564 
429797 
430053 
430321 
430589 
430855 
431095 
431354 
431649 
431912 
432170 
432428 
432676 
432885 
433112 
433356 
433588 
433797 
434006 
434211 
434423 
434636 
434839 
435029 
435215 
435440 
435640 
435857 
436112 
436397 
436640 
436843 
437061 
437292 
437538 
437801 
438028 
438273 
438535 
438799 
439032 
439315 
439585 
439829 
440071 
440323 
440594 
440886 
441175 
441451 
441718 
441991 
442266 
442543 
442789 
443030 
443278 
443539 
443785 
444048 
444316 
444549 
444781 
445033 
445329 
445601 
445834 
446074 
446278 
446469 
446644 
446840 
447195 
447475 
447756 
448043 
448329 
448576 
448817 
449095 
449363 
449607 
449808 
450070 
450367 
450651 
450904 
451147 
451407 
451681 
451933 
452157 
452400 
452671 
452939 
453198 
453465 
453727 
453980 
454204 
454441 
454725 
454999 
455228 
455461 
455704 
455964 
456257 
456493 
456714 
456955 
457181 
457391 
457647 
457931 
458190 
458429 
458691 
458956 
459228 
459499 
459776 
460021 
460231 
460434 
460651 
460890 
461210 
461505 
461759 
461980 
