207 
340 
428 
683 
922 
1161 
1389 
1619 
1751 
1837 
2090 
2332 
2557 
2777 
3015 
3145 
3476 
3713 
3936 
4170 
4404 
4624 
4869 
5107 
5329 
5464 
5803 
5939 
6288 
6419 
6765 
6906 
7236 
7383 
7716 
7852 
8197 
8423 
8654 
8878 
9093 
9227 
9561 
9694 
10029 
10169 
10503 
10635 
10974 
11201 
11422 
11653 
11878 
12006 
12355 
12590 
12720 
13064 
13304 
13437 
13785 
13930 
14284 
14520 
14651 
14993 
15126 
15464 
15605 
15924 
16161 
16387 
16614 
16856 
17093 
17343 
17585 
17815 
17947 
18303 
18528 
18763 
18995 
19221 
19448 
19682 
19810 
20163 
20410 
20649 
20877 
21110 
21250 
21595 
21725 
22079 
22213 
22550 
22788 
23010 
23240 
23472 
23699 
23928 
24166 
24399 
24633 
24873 
25117 
25350 
25598 
25839 
26074 
26318 
26552 
26783 
27029 
27261 
27490 
27732 
27963 
28188 
28421 
28645 
28877 
29109 
29341 
29576 
29809 
29939 
30278 
30513 
30743 
30965 
31192 
31423 
31644 
31870 
32003 
32338 
32579 
32813 
33041 
33277 
33504 
33636 
33976 
34109 
34450 
34610 
34938 
35180 
35406 
35540 
35876 
36109 
36239 
36581 
36814 
37047 
37274 
37497 
37629 
37966 
38211 
38444 
38668 
38903 
39132 
39360 
39595 
39823 
40049 
40287 
40511 
40639 
40985 
41212 
41339 
41676 
41902 
42035 
42364 
42500 
42837 
43060 
43185 
43513 
43733 
43966 
44200 
44426 
44561 
44926 
45157 
45292 
45650 
45903 
46035 
46387 
46627 
46757 
47100 
47338 
47472 
47818 
47953 
48297 
48532 
48662 
48994 
49133 
49469 
49609 
49944 
50099 
50428 
50558 
50902 
51040 
51378 
51618 
51847 
52077 
52322 
52555 
52684 
53033 
53172 
53521 
53757 
53984 
54120 
54467 
54601 
54947 
55082 
55423 
55662 
55885 
56124 
56361 
56585 
56822 
57063 
57304 
57545 
57791 
58039 
58167 
58511 
58754 
58982 
59113 
59458 
59591 
59938 
60172 
60388 
60524 
60861 
60994 
61336 
61561 
61695 
62035 
62261 
62396 
62735 
62973 
63107 
63448 
63625 
63951 
64176 
64309 
64654 
64901 
65130 
65352 
65595 
65724 
66063 
66308 
66542 
66774 
67003 
67133 
67478 
67718 
67945 
68170 
68401 
68533 
68879 
69118 
69358 
69585 
69717 
70055 
70186 
70531 
70765 
70990 
71120 
71462 
71691 
71918 
72048 
72387 
72522 
72856 
72998 
73339 
73565 
73696 
74023 
74247 
74380 
74702 
74926 
75070 
75389 
75517 
75863 
75995 
76334 
76477 
76806 
77046 
77177 
77510 
77741 
77871 
78207 
78435 
78565 
78903 
79134 
79264 
79600 
79831 
79963 
80299 
80429 
80769 
80989 
81204 
81428 
81644 
81871 
82105 
82326 
82455 
82802 
82936 
83270 
83502 
83722 
83855 
84192 
84417 
84555 
84888 
85112 
85244 
85573 
85800 
85933 
86252 
86485 
86614 
86933 
87159 
87288 
87618 
87851 
88077 
88300 
88432 
88761 
88895 
89221 
89448 
89668 
89888 
90113 
90332 
90557 
90785 
91004 
91229 
91468 
91690 
91916 
92153 
92375 
92503 
92838 
92970 
93308 
93540 
93758 
93897 
94231 
94363 
94697 
94920 
95050 
95381 
95605 
95732 
96065 
96289 
96416 
96747 
96974 
97108 
97442 
97668 
97803 
98140 
98358 
98487 
98813 
99041 
99265 
99494 
99731 
99960 
100193 
100425 
100655 
100893 
101028 
101366 
101613 
101840 
102057 
102291 
102512 
102739 
102973 
103195 
103424 
103661 
103887 
104111 
104345 
104574 
104806 
105036 
105261 
105492 
105721 
105941 
106169 
106402 
106630 
106853 
107084 
107317 
107532 
107755 
107885 
108215 
108455 
108687 
108906 
109136 
109272 
109609 
109847 
110069 
110298 
110534 
110756 
110991 
111234 
111461 
111587 
111934 
112166 
112301 
112646 
112875 
113012 
113358 
113583 
113714 
114045 
114274 
114404 
114729 
114866 
115199 
115425 
115641 
115772 
116116 
116342 
116574 
116817 
117043 
117271 
117509 
117737 
117867 
118215 
118347 
118693 
118933 
119153 
119289 
119627 
119762 
120104 
120239 
120579 
120817 
121034 
121260 
121489 
121619 
121962 
122202 
122441 
122666 
122895 
123029 
123368 
123616 
123849 
124074 
124314 
124539 
124765 
125005 
125229 
125457 
125699 
125931 
126160 
126398 
126628 
126852 
127082 
127314 
127544 
127771 
127998 
128226 
128456 
128681 
128903 
129134 
129364 
129588 
129820 
130049 
130280 
130512 
130742 
130968 
131206 
131435 
131664 
131902 
132128 
132358 
132588 
132812 
133039 
133276 
133508 
133731 
133974 
134212 
134433 
134667 
134896 
135123 
135356 
135583 
135813 
136047 
136272 
136498 
136729 
136959 
137190 
137421 
137652 
137877 
138099 
138320 
138540 
138764 
138992 
139211 
139443 
139579 
139916 
140158 
140390 
140614 
140853 
140981 
141323 
141572 
141808 
142037 
142270 
142399 
142750 
142993 
143227 
143458 
143691 
143818 
144161 
144405 
144638 
144857 
145090 
145315 
145446 
145792 
146021 
146152 
146508 
146742 
146871 
147222 
147460 
147588 
147929 
148167 
148300 
148641 
148878 
149011 
149352 
149488 
149832 
150060 
150195 
150527 
150762 
150898 
151231 
151457 
151584 
151917 
152050 
152387 
152607 
152744 
153069 
153289 
153421 
153768 
154008 
154138 
154484 
154720 
154955 
155183 
155412 
155642 
155877 
156102 
156238 
156581 
156812 
156943 
157281 
157414 
157758 
157986 
158203 
158430 
158658 
158881 
159113 
159242 
159583 
159831 
160055 
160275 
160515 
160644 
160985 
161235 
161468 
161700 
161935 
162064 
162418 
162664 
162892 
163113 
163346 
163581 
163803 
164038 
164273 
164496 
164728 
164959 
165185 
165425 
165652 
165877 
166119 
166342 
166469 
166812 
167041 
167173 
167514 
167744 
167975 
168206 
168424 
168650 
168884 
169116 
169339 
169576 
169808 
170041 
170274 
170506 
170736 
170979 
171206 
171338 
171691 
171925 
172058 
172397 
172628 
172760 
173105 
173331 
173566 
173793 
174011 
174144 
174487 
174720 
174853 
175195 
175423 
175653 
175879 
176105 
176234 
176571 
176805 
176937 
177274 
177514 
177748 
177966 
178192 
178422 
178647 
178872 
179102 
179332 
179562 
179786 
180015 
180239 
180473 
180706 
180925 
181161 
181291 
181629 
181871 
182096 
182327 
182563 
182692 
183035 
183279 
183504 
183727 
183950 
184081 
184420 
184655 
184883 
185110 
185344 
185470 
185817 
186064 
186299 
186531 
186771 
187001 
187130 
187478 
187709 
187838 
188189 
188421 
188550 
188897 
189033 
189387 
189618 
189854 
190095 
190320 
190449 
190795 
190930 
191271 
191507 
191730 
191862 
192202 
192335 
192682 
192923 
193144 
193375 
193610 
193839 
193968 
194310 
194545 
194677 
195018 
195247 
195378 
195721 
195955 
196083 
196425 
196563 
196906 
197038 
197374 
197611 
197831 
197961 
198304 
198539 
198666 
199011 
199243 
199375 
199721 
199951 
200086 
200423 
200653 
200784 
201118 
201252 
201587 
201721 
202060 
202222 
202546 
202791 
203021 
203250 
203483 
203610 
203958 
204204 
204433 
204662 
204899 
205134 
205357 
205590 
205824 
206056 
206286 
206513 
206739 
206976 
207196 
207418 
207656 
207880 
208102 
208337 
208558 
208787 
209023 
209148 
209488 
209732 
209959 
210189 
210420 
210646 
210779 
211130 
211262 
211610 
211852 
212077 
212204 
212556 
212691 
213034 
213272 
213502 
213633 
213977 
214219 
214348 
214699 
214831 
215177 
215410 
215635 
215861 
216085 
216306 
216544 
216775 
217003 
217249 
217488 
217716 
217956 
218188 
218423 
218656 
218880 
219014 
219365 
219594 
219829 
220064 
220295 
220520 
220747 
220978 
221200 
221421 
221645 
221868 
222102 
222327 
222456 
222799 
223031 
223162 
223504 
223731 
223967 
224200 
224421 
224653 
224888 
225107 
225340 
225575 
225807 
226037 
226271 
226401 
226749 
226989 
227229 
227455 
227691 
227823 
228163 
228411 
228642 
228868 
229108 
229335 
229565 
229805 
230030 
230158 
230513 
230646 
230990 
231225 
231451 
231586 
231926 
232159 
232390 
232526 
232861 
233097 
233330 
233558 
233693 
234036 
234267 
234502 
234735 
234969 
235196 
235433 
235666 
235888 
236029 
236370 
236596 
236820 
237045 
237272 
237491 
237720 
237849 
238193 
238435 
238674 
238898 
239138 
239375 
239601 
239841 
240074 
240300 
240542 
240778 
241012 
241257 
241490 
241728 
241964 
242187 
242319 
242663 
242899 
243036 
243372 
243610 
243740 
244073 
244308 
244438 
244778 
245016 
245147 
245489 
245720 
245851 
246182 
246406 
246536 
246875 
247098 
247227 
247563 
247701 
248037 
248169 
248501 
248738 
248959 
249178 
249405 
249538 
249870 
250106 
250333 
250560 
250690 
251031 
251172 
251511 
251750 
251973 
252103 
252443 
252576 
252910 
253145 
253367 
253596 
253828 
254051 
254290 
254516 
254645 
255000 
255142 
255482 
255721 
255945 
256177 
256405 
256632 
256862 
257097 
257320 
257546 
257777 
258003 
258230 
258459 
258688 
258918 
259149 
259377 
259601 
259834 
260066 
260290 
260528 
260659 
260998 
261237 
261464 
261683 
261813 
262149 
262284 
262624 
262865 
263091 
263316 
263555 
263790 
264020 
264251 
264485 
264714 
264943 
265171 
265396 
265638 
265869 
266094 
266342 
266582 
266808 
267051 
267286 
267415 
267766 
267895 
268245 
268493 
268712 
268936 
269162 
269388 
269611 
269839 
270070 
270294 
270524 
270750 
270977 
271214 
271444 
271676 
271918 
272151 
272281 
272635 
272770 
273131 
273270 
273628 
273883 
274124 
274364 
274604 
274841 
275088 
275330 
275574 
275711 
276068 
276319 
276447 
276805 
276943 
277295 
277426 
277782 
278025 
278259 
278387 
278743 
278988 
279223 
279466 
279706 
279942 
280075 
280425 
280558 
280917 
281050 
281399 
281654 
281889 
282116 
282348 
282589 
282821 
283048 
283180 
283530 
283658 
284001 
284136 
284483 
284721 
284853 
285194 
285417 
285623 
285830 
285962 
286219 
286353 
286591 
286723 
286948 
287136 
287310 
287439 
287759 
287972 
288189 
288411 
288627 
288753 
289097 
289319 
289539 
289769 
289897 
290243 
290372 
290710 
290854 
291190 
291319 
291657 
291787 
292120 
292339 
292544 
292763 
292980 
293113 
293439 
293569 
293898 
294036 
294354 
294574 
294785 
294993 
295122 
295424 
295552 
295857 
296003 
296284 
296415 
296718 
296861 
297134 
297327 
297519 
297719 
297926 
298054 
298377 
298608 
298829 
299055 
299277 
299407 
299738 
299965 
300094 
300419 
300643 
300767 
301086 
301305 
301435 
301744 
301960 
302093 
302403 
302539 
302847 
302984 
303295 
303429 
303733 
303862 
304168 
304379 
304585 
304788 
304919 
305230 
305365 
305668 
305882 
306092 
306307 
306434 
306747 
306957 
307170 
307381 
307508 
307812 
307940 
308236 
308442 
308569 
308848 
309051 
309243 
309372 
309646 
309844 
310040 
310171 
310425 
310616 
310749 
311010 
311160 
311350 
311549 
311739 
311866 
312158 
312369 
312497 
312829 
313059 
313186 
313554 
313806 
313928 
314304 
314552 
314797 
315034 
315271 
315405 
315766 
315898 
316249 
316382 
316734 
316866 
317204 
317435 
317666 
317892 
318114 
318248 
318589 
318826 
318953 
319296 
319428 
319768 
319993 
320120 
320462 
320690 
320915 
321049 
321388 
321514 
321852 
321983 
322335 
322568 
322806 
322940 
323289 
323526 
323761 
323892 
324245 
324377 
324723 
324962 
325092 
325439 
325570 
325920 
326162 
326288 
326639 
326882 
327012 
327350 
327587 
327718 
328056 
328296 
328424 
328764 
328899 
329219 
329348 
329676 
329899 
330120 
330350 
330593 
330723 
331099 
331235 
331616 
331766 
332122 
332256 
332631 
332756 
333103 
333235 
333578 
333713 
334054 
334287 
334522 
334650 
334995 
335127 
335494 
335731 
335968 
336203 
336441 
336568 
336923 
337167 
337301 
337656 
337898 
338145 
338274 
338617 
338747 
339100 
339236 
339585 
339828 
340069 
340201 
340548 
340680 
341035 
341171 
341515 
341648 
342002 
342135 
342478 
342609 
342950 
343088 
343417 
343551 
343873 
344086 
344297 
344495 
344700 
344915 
345124 
345334 
345563 
345792 
346016 
346255 
346497 
346735 
346980 
347231 
347480 
347725 
347856 
348225 
348360 
348716 
348845 
349182 
349327 
349657 
349880 
350010 
350326 
350550 
350681 
350992 
351126 
351449 
351660 
351880 
352103 
352331 
352568 
352699 
353041 
353174 
353520 
353652 
353995 
354128 
354475 
354607 
354947 
355179 
355309 
355627 
355763 
356075 
356291 
356502 
356629 
356943 
357076 
357380 
357601 
357730 
358059 
358289 
358417 
358759 
358891 
359232 
359366 
359735 
359868 
360233 
360485 
360620 
360974 
361227 
361356 
361713 
361852 
362206 
362450 
362581 
362932 
363175 
363409 
363539 
363889 
364024 
364377 
364617 
364850 
364986 
365332 
365469 
365827 
366062 
366195 
366549 
366792 
367029 
367259 
367391 
367751 
367992 
368243 
368480 
368713 
368851 
369199 
369338 
369689 
369926 
370061 
370400 
370629 
370855 
370987 
371321 
371453 
371768 
371994 
372126 
372438 
372575 
372898 
373126 
373355 
373484 
373843 
373978 
374324 
374464 
374801 
375039 
375169 
375495 
375727 
375855 
376176 
376406 
376535 
376873 
377105 
377236 
377572 
377800 
377933 
378255 
378386 
378718 
378855 
379178 
379400 
379624 
379853 
380088 
380218 
380573 
380712 
381069 
381200 
381550 
381693 
382029 
382178 
382502 
382637 
382967 
383104 
383435 
383658 
383880 
384099 
384326 
384557 
384789 
385034 
385278 
385517 
385768 
386015 
386264 
386518 
386759 
387012 
387259 
387495 
387738 
387984 
388234 
388363 
388728 
388867 
389220 
389360 
389708 
389849 
390191 
390330 
390660 
390894 
391024 
391353 
391580 
391805 
391940 
392259 
392395 
392701 
392832 
393109 
393306 
393434 
393685 
393877 
394062 
394244 
394429 
394616 
394748 
394998 
395196 
395325 
395594 
395730 
396000 
396194 
396386 
396523 
396800 
396945 
397220 
397426 
397644 
397778 
398086 
398311 
398541 
398674 
399022 
399272 
399515 
399754 
399885 
400262 
400505 
400744 
400874 
401233 
401471 
401712 
401944 
402183 
402422 
402639 
402858 
402987 
403281 
403416 
403739 
403959 
404174 
404315 
404633 
404765 
405097 
405319 
405545 
405676 
406002 
406136 
406437 
406641 
406845 
406975 
407273 
407476 
407680 
407881 
408011 
408296 
408434 
408722 
408934 
409140 
409272 
409563 
409774 
409986 
410208 
410425 
410553 
410907 
411037 
411398 
411630 
411761 
412106 
412344 
412471 
412837 
413098 
413231 
413603 
413740 
414107 
414364 
414496 
414869 
415000 
415380 
415625 
415861 
416103 
416339 
416573 
416705 
417070 
417203 
417545 
417793 
418022 
418243 
418375 
418702 
418833 
419166 
419393 
419607 
419819 
420048 
420181 
420524 
420767 
421000 
421228 
421456 
421689 
421916 
422161 
422403 
422638 
422882 
423139 
423386 
423620 
423758 
424116 
424353 
424482 
424832 
425064 
425290 
425524 
425759 
426005 
426141 
426507 
426756 
427009 
427252 
427503 
427634 
428013 
428152 
428532 
428775 
428899 
429269 
429512 
429755 
429985 
430214 
430357 
430705 
430937 
431066 
431412 
431647 
431878 
432103 
432325 
432551 
432782 
433010 
433236 
433484 
433717 
433942 
434077 
434423 
434552 
434897 
435140 
435374 
435596 
435723 
436065 
436200 
436532 
436673 
437009 
437247 
437480 
437618 
437978 
438227 
438360 
438728 
438972 
439106 
439468 
439717 
439957 
440202 
440442 
440679 
440938 
441183 
441428 
441685 
441935 
442176 
442420 
442670 
442914 
443149 
443398 
443644 
443875 
444110 
444351 
444593 
444834 
445077 
445321 
445553 
445797 
446040 
446271 
446513 
446756 
446992 
447231 
447474 
447707 
447942 
448183 
448427 
448661 
448897 
449133 
449365 
449604 
449841 
450073 
450203 
450552 
450686 
451037 
451284 
451511 
451735 
451962 
452186 
452406 
452625 
452853 
453078 
453298 
453530 
453758 
453982 
454116 
454459 
454694 
454927 
455166 
455403 
455636 
455771 
456130 
456373 
456611 
456862 
457103 
457345 
457589 
457840 
458081 
458316 
458569 
458817 
459050 
459183 
459526 
459761 
459991 
460216 
460446 
460671 
460896 
461128 
461351 
461590 
461831 
462059 
