4.21875 2.5221910000000003 1.245381 -1.27681
4.51953125 0.446555 -0.330007 -0.776562
5.046875 3.041934 1.480962 -1.560972
5.3515625 0.419381 -0.382274 -0.801655
5.89453125 3.284354 1.559804 -1.72455
6.73828125 3.155879 1.534478 -1.621401
7.56640625 3.054616 1.619359 -1.435257
8.41015625 3.187735 1.60383 -1.583905
9.25390625 3.194933 1.548216 -1.646717
10.06640625 3.169036 1.529141 -1.639895
10.90625 3.1896440000000004 1.597647 -1.591997
11.73828125 3.047026 1.51389 -1.533136
12.58984375 3.036868 1.51357 -1.523298
13.42578125 3.030702 1.51482 -1.515882
14.24609375 3.125493 1.572751 -1.552742
15.09765625 2.975057 1.555357 -1.4197
15.94921875 2.854459 1.498743 -1.355716
16.765625 2.685638 1.342658 -1.34298
17.61328125 2.749188 1.371717 -1.377471
18.44140625 2.482677 1.218238 -1.264439
19.2890625 2.951804 1.548856 -1.402948
20.125 3.174964 1.68 -1.494964
20.9375 3.12156 1.563736 -1.557824
21.78125 3.154954 1.555425 -1.599529
22.62109375 3.186044 1.658544 -1.5275
23.44921875 3.085815 1.626338 -1.459477
24.28125 3.1847589999999997 1.597716 -1.587043
25.109375 3.1429340000000003 1.575449 -1.567485
25.953125 3.0964359999999997 1.638324 -1.458112
26.7734375 3.100167 1.655598 -1.444569
27.59765625 3.310948 1.681008 -1.62994
28.44140625 3.274897 1.633456 -1.641441
29.2734375 3.201158 1.64 -1.561158
30.09765625 3.164672 1.712467 -1.452205
30.9453125 3.212448 1.687633 -1.524815
31.7734375 3.338858 1.751214 -1.587644
32.625 3.2311389999999998 1.7 -1.531139
33.44921875 3.0486649999999997 1.681371 -1.367294
34.265625 3.163888 1.708217 -1.455671
35.12890625 3.2617450000000003 1.668306 -1.593439
35.96875 3.263669 1.631508 -1.632161
36.79296875 3.195071 1.658545 -1.536526
37.640625 3.071345 1.605214 -1.466131
38.46875 3.0394509999999997 1.530025 -1.509426
39.32421875 3.2175219999999998 1.554894 -1.662628
40.15234375 3.157861 1.552792 -1.605069
40.98828125 2.772819 1.394032 -1.378787
41.8515625 3.114236 1.536673 -1.577563
42.6875 3.3077 1.583723 -1.723977
43.5 3.1167480000000003 1.54 -1.576748
44.34375 3.056273 1.600922 -1.455351
45.16796875 3.137676 1.61628 -1.521396
45.98046875 3.354841 1.594841 -1.76
46.796875 3.29833 1.646401 -1.651929
47.61328125 3.235599 1.653952 -1.581647
48.453125 3.248348 1.612493 -1.635855
49.28515625 3.2944190000000004 1.58831 -1.706109
49.82421875 3.3527560000000003 1.583709 -1.769047
50.80078125 3.241324 1.6787 -1.562624
51.6640625 3.1557579999999996 1.658602 -1.497156
52.5234375 3.270643 1.699766 -1.570877
53.37890625 3.3286059999999997 1.67486 -1.653746
54.23046875 3.3648 1.7348 -1.63
55.109375 3.1370839999999998 1.648169 -1.488915
55.96484375 3.323905 1.708273 -1.615632
56.78515625 3.395709 1.625042 -1.770667
57.61328125 3.328456 1.591888 -1.736568
58.46875 3.414827 1.697689 -1.717138
59.3046875 3.373468 1.65548 -1.717988
60.125 3.584574 1.62 -1.964574
60.9609375 3.555999 1.582266 -1.973733
61.8046875 3.389262 1.560904 -1.828358
62.625 3.3045619999999998 1.53 -1.774562
63.45703125 3.166531 1.412469 -1.754062
64.30078125 3.468999 1.582097 -1.886902
65.15234375 3.2865900000000003 1.618751 -1.667839
66.0 3.379471 1.745 -1.634471
66.8359375 3.508615 1.739668 -1.768947
67.703125 3.296834 1.659737 -1.637097
68.55078125 3.2374029999999996 1.599727 -1.637676
69.38671875 3.322916 1.660095 -1.662821
70.234375 3.307709 1.604314 -1.703395
71.078125 3.37995 1.606766 -1.773184
71.9296875 3.336681 1.610414 -1.726267
72.78125 3.3282800000000003 1.646066 -1.682214
73.62890625 3.3501760000000003 1.629602 -1.720574
74.484375 3.364779 1.575146 -1.789633
75.3359375 3.503746 1.659417 -1.844329
76.1796875 3.231377 1.647737 -1.58364
77.0234375 3.356872 1.651673 -1.705199
77.88671875 3.2955319999999997 1.635131 -1.660401
78.734375 3.362517 1.614085 -1.748432
79.55859375 3.476 1.728835 -1.747165
80.41796875 3.265222 1.665278 -1.599944
81.265625 3.435477 1.660568 -1.774909
82.08203125 3.5148599999999997 1.701471 -1.813389
82.9140625 3.443387 1.65615 -1.787237
83.734375 3.295026 1.677853 -1.617173
84.57421875 3.47371 1.704952 -1.768758
85.3984375 3.438236 1.670733 -1.767503
86.19921875 3.449663 1.62658 -1.823083
87.0625 3.2886249999999997 1.658833 -1.629792
87.91796875 3.4405289999999997 1.78427 -1.656259
88.734375 3.45195 1.7475 -1.70445
89.57421875 3.4506259999999997 1.611459 -1.839167
90.3984375 3.45111 1.670066 -1.781044
91.234375 3.2368230000000002 1.657572 -1.579251
92.0625 3.322331 1.710094 -1.612237
92.8828125 3.4968120000000003 1.747169 -1.749643
93.72265625 3.267465 1.649014 -1.618451
94.55078125 3.362564 1.729166 -1.633398
95.359375 3.159559 1.643224 -1.516335
96.19140625 3.217983 1.607341 -1.610642
97.01953125 3.299951 1.592359 -1.707592
97.87890625 3.306273 1.619443 -1.68683
98.73046875 3.2897999999999996 1.6198 -1.67
99.578125 3.2860810000000003 1.562231 -1.72385
100.4453125 3.2878299999999996 1.561211 -1.726619
101.30078125 3.252464 1.565512 -1.686952
102.14453125 3.1985390000000002 1.569752 -1.628787
102.9921875 3.2610799999999998 1.559819 -1.701261
103.85546875 3.37733 1.553935 -1.823395
104.71484375 3.083383 1.428897 -1.654486
105.5625 2.978535 1.459592 -1.518943
106.42578125 3.041712 1.52998 -1.511732
107.28515625 3.220381 1.523573 -1.696808
108.125 3.1899569999999997 1.53 -1.659957
108.984375 3.0058610000000003 1.50407 -1.501791
109.83203125 3.044942 1.513826 -1.531116
110.69140625 3.116867 1.456908 -1.659959
111.53515625 3.079518 1.407741 -1.671777
112.37890625 2.895001 1.379933 -1.515068
113.24609375 2.66091 1.242398 -1.418512
114.08203125 2.828659 1.245244 -1.583415
114.90625 2.899926 1.282857 -1.617069
115.76171875 2.868601 1.291288 -1.577313
116.60546875 2.744949 1.259949 -1.485
117.44921875 2.7923799999999996 1.272374 -1.520006
118.27734375 2.7637780000000003 1.209732 -1.554046
119.1015625 2.7864579999999997 1.249007 -1.537451
119.953125 2.7294479999999997 1.315276 -1.414172
120.79296875 2.8039300000000003 1.324514 -1.479416
121.62109375 2.866618 1.261408 -1.60521
122.45703125 2.825259 1.206387 -1.618872
123.30859375 2.755409 1.255872 -1.499537
124.16015625 2.762178 1.266132 -1.496046
124.99609375 2.866494 1.296312 -1.570182
125.828125 2.830336 1.234766 -1.59557
126.69140625 2.795 1.26 -1.535
127.53515625 2.831559 1.371861 -1.459698
128.36328125 2.912268 1.372316 -1.539952
129.19140625 2.8000420000000004 1.289905 -1.510137
130.01953125 2.784854 1.325 -1.459854
130.859375 2.7716890000000003 1.396689 -1.375
131.6796875 2.7170639999999997 1.337758 -1.379306
132.50390625 2.8667480000000003 1.35243 -1.514318
133.359375 2.824777 1.331554 -1.493223
134.1953125 2.7203559999999998 1.323357 -1.396999
135.03125 2.797639 1.379773 -1.417866
135.859375 2.783244 1.29 -1.493244
136.70703125 2.847836 1.325299 -1.522537
137.5625 2.782165 1.298396 -1.483769
138.40234375 2.7275929999999997 1.346295 -1.381298
139.25 2.7997129999999997 1.325 -1.474713
140.09765625 2.809544 1.252601 -1.556943
140.92578125 2.8179800000000004 1.247492 -1.570488
141.75 2.759901 1.28 -1.479901
142.5859375 2.7578430000000003 1.284175 -1.473668
143.4296875 2.815172 1.244276 -1.570896
144.26953125 2.949697 1.334957 -1.61474
145.10546875 2.8148720000000003 1.319872 -1.495
145.953125 2.729127 1.283257 -1.44587
146.8046875 2.9389000000000003 1.362702 -1.576198
147.63671875 2.907407 1.329945 -1.577462
148.48046875 2.889789 1.364789 -1.525
149.33984375 2.859793 1.41 -1.449793
150.1953125 2.7019 1.334243 -1.367657
151.0234375 2.762518 1.308526 -1.453992
151.84375 2.724633 1.267412 -1.457221
152.703125 2.4232899999999997 1.154223 -1.269067
153.55078125 2.6482900000000003 1.362223 -1.286067
154.37109375 2.7263 1.363885 -1.362415
155.203125 2.8590809999999998 1.367731 -1.49135
156.04296875 2.850294 1.400841 -1.449453
156.89453125 2.769736 1.419971 -1.349765
157.7265625 2.697508 1.37903 -1.318478
158.5546875 2.9067619999999996 1.381398 -1.525364
159.41796875 2.702277 1.262701 -1.439576
160.2578125 2.555092 1.217426 -1.337666
161.08984375 2.570462 1.237864 -1.332598
161.9296875 2.57852 1.257835 -1.320685
162.7734375 2.754985 1.300966 -1.454019
163.609375 2.927641 1.425 -1.502641
164.44140625 2.85263 1.433068 -1.419562
165.2734375 2.82712 1.421338 -1.405782
166.109375 2.928307 1.43583 -1.492477
166.93359375 2.9654309999999997 1.4161 -1.549331
167.7578125 2.919826 1.469826 -1.45
168.59765625 2.783598 1.428598 -1.355
169.45703125 2.9298919999999997 1.478728 -1.451164
170.28515625 3.060425 1.501731 -1.558694
171.125 2.9547470000000002 1.42 -1.534747
171.9921875 3.0127379999999997 1.513375 -1.499363
172.83984375 2.83002 1.393331 -1.436689
173.66796875 2.971412 1.413393 -1.558019
174.5 3.204734 1.54 -1.664734
175.34375 2.98416 1.538158 -1.446002
176.203125 2.9175579999999997 1.494338 -1.42322
177.01953125 3.054179 1.504905 -1.549274
177.84765625 3.010985 1.47775 -1.533235
178.703125 3.002282 1.56944 -1.432842
179.5390625 2.8746210000000003 1.544829 -1.329792
180.3671875 2.9433369999999996 1.541186 -1.402151
181.1953125 3.0642519999999998 1.539243 -1.525009
182.03125 2.959857 1.49458 -1.465277
182.8828125 2.874052 1.504177 -1.369875
183.71484375 2.9114240000000002 1.488749 -1.422675
184.55078125 3.082185 1.461866 -1.620319
185.41015625 2.991911 1.409865 -1.582046
186.23828125 2.8702690000000004 1.443912 -1.426357
187.06640625 2.827794 1.379883 -1.447911
187.89453125 3.119415 1.494898 -1.624517
188.734375 3.080978 1.450441 -1.630537
189.5703125 2.929516 1.445129 -1.484387
190.39453125 2.8954060000000004 1.509983 -1.385423
191.234375 2.943744 1.472074 -1.47167
192.08203125 2.888852 1.388195 -1.500657
192.9140625 3.000378 1.393381 -1.606997
193.7421875 3.076584 1.547573 -1.529011
194.5859375 2.969833 1.479957 -1.489876
195.42578125 3.0981899999999998 1.483694 -1.614496
196.26171875 3.250785 1.521838 -1.728947
197.09375 3.105532 1.566445 -1.539087
197.94140625 3.127352 1.599032 -1.52832
198.76953125 3.1184320000000003 1.519749 -1.598683
199.5859375 3.161549 1.514285 -1.647264
200.421875 3.0671790000000003 1.536493 -1.530686
201.25 3.07485 1.54 -1.53485
202.09375 3.030169 1.532789 -1.49738
202.91796875 3.075752 1.504226 -1.571526
203.734375 3.195824 1.601816 -1.594008
204.60546875 3.184989 1.604989 -1.58
205.453125 3.0768440000000004 1.55864 -1.518204
206.27734375 3.1123760000000003 1.542996 -1.56938
207.125 3.219626 1.55 -1.669626
207.9609375 3.213475 1.598929 -1.614546
208.82421875 3.000634 1.53408 -1.466554
209.66015625 3.0471060000000003 1.480169 -1.566937
210.47265625 3.1147359999999997 1.473072 -1.641664
211.34375 3.015546 1.518272 -1.497274
212.19921875 3.0877160000000003 1.584586 -1.50313
213.02734375 3.060351 1.582036 -1.478315
213.8671875 3.2312700000000003 1.62076 -1.61051
214.7109375 3.157664 1.578776 -1.578888
215.578125 2.882986 1.502226 -1.38076
216.421875 3.0095549999999998 1.533336 -1.476219
217.26171875 3.085089 1.527183 -1.557906
218.125 3.014366 1.505 -1.509366
218.98046875 3.049926 1.554926 -1.495
219.8125 2.927421 1.4815 -1.445921
220.66796875 3.134096 1.532158 -1.601938
221.52734375 3.144536 1.591412 -1.553124
222.3671875 2.9700800000000003 1.519219 -1.450861
223.21484375 2.923692 1.50439 -1.419302
224.078125 2.806417 1.394427 -1.41199
224.94921875 3.090125 1.54493 -1.545195
225.81640625 2.884375 1.514613 -1.369762
226.69140625 2.125674 1.054779 -1.070895
227.55078125 1.9825469999999998 0.938838 -1.043709
228.4296875 2.069322 1.017387 -1.051935
229.26171875 2.162318 1.084909 -1.077409
230.08984375 2.111828 0.970613 -1.141215
230.98046875 2.3699950000000003 1.109995 -1.26
231.8359375 2.414578 1.109844 -1.304734
232.6875 2.779065 1.335 -1.444065
233.55078125 2.791138 1.312982 -1.478156
234.40234375 2.80812 1.293554 -1.514566
235.28515625 2.735441 1.262489 -1.472952
236.16015625 2.7790999999999997 1.353244 -1.425856
237.01953125 2.779601 1.329965 -1.449636
237.90625 2.79364 1.320953 -1.472687
238.78125 2.822351 1.289505 -1.532846
239.65625 2.735268 1.293339 -1.441929
240.5390625 2.682627 1.32 -1.362627
241.45703125 2.801887 1.321315 -1.480572
242.34765625 2.825286 1.306555 -1.518731
243.2421875 2.604888 1.267936 -1.336952
244.16796875 2.687542 1.289808 -1.397734
245.0625 2.801135 1.303545 -1.49759
245.921875 2.8963520000000003 1.348691 -1.547661
246.796875 2.760805 1.32279 -1.438015
247.6875 2.7549219999999996 1.315 -1.439922
248.5703125 2.854829 1.317371 -1.537458
249.43359375 2.840868 1.308728 -1.53214
250.31640625 2.838426 1.369673 -1.468753
251.1796875 2.8625730000000003 1.372983 -1.48959
252.03125 2.8352329999999997 1.312279 -1.522954
252.88671875 2.828215 1.305902 -1.522313
253.73046875 2.904777 1.384777 -1.52
254.6015625 2.834445 1.372973 -1.461472
255.453125 2.974919 1.366618 -1.608301
256.3125 3.0068900000000003 1.333333 -1.673557
257.1953125 3.03099 1.414639 -1.616351
258.05859375 2.965725 1.492914 -1.472811
258.91796875 3.092271 1.527271 -1.565
259.77734375 3.017554 1.428554 -1.589
260.64453125 3.097682 1.519698 -1.577984
261.51171875 2.923732 1.515597 -1.408135
262.359375 3.044812 1.520571 -1.524241
263.2265625 3.224648 1.51706 -1.707588
264.09765625 3.320251 1.534778 -1.785473
264.94921875 3.049819 1.494589 -1.55523
265.828125 2.9659760000000004 1.483011 -1.482965
266.69140625 2.881552 1.354851 -1.526701
267.5625 2.329302 1.041086 -1.288216
268.4296875 2.722897 1.339323 -1.383574
269.30859375 3.0156349999999996 1.537445 -1.47819
270.19140625 3.287969 1.601888 -1.686081
271.06640625 3.137346 1.511724 -1.625622
271.94140625 3.213583 1.59941 -1.614173
272.82421875 3.040625 1.58696 -1.453665
273.75 3.119989 1.565 -1.554989
274.65625 3.278035 1.640286 -1.637749
275.5703125 3.139385 1.619385 -1.52
276.5390625 3.084745 1.608854 -1.475891
277.45703125 3.171597 1.602086 -1.569511
278.359375 3.2045440000000003 1.590189 -1.614355
279.2734375 3.05929 1.526704 -1.532586
280.1875 3.21706 1.645988 -1.571072
281.09765625 3.1986990000000004 1.55428 -1.644419
281.98046875 3.154848 1.524848 -1.63
282.90234375 3.2413369999999997 1.598441 -1.642896
283.78515625 2.995756 1.546117 -1.449639
284.6484375 3.055701 1.569349 -1.486352
285.5234375 3.3177399999999997 1.701682 -1.616058
286.38671875 3.299694 1.636146 -1.663548
287.26171875 3.1536150000000003 1.604795 -1.54882
288.12109375 3.1730530000000003 1.659194 -1.513859
288.98046875 3.3149249999999997 1.674925 -1.64
289.8515625 3.333651 1.621434 -1.712217
290.703125 3.353744 1.682144 -1.6716
291.5390625 3.286159 1.618851 -1.667308
292.40234375 3.424039 1.708367 -1.715672
293.27734375 3.3668 1.629871 -1.736929
294.12109375 3.341199 1.623127 -1.718072
294.9765625 3.128598 1.55653 -1.572068
295.8671875 3.331977 1.726977 -1.605
296.75 3.334751 1.635 -1.699751
297.609375 3.219989 1.57514 -1.644849
298.46875 3.438416 1.711944 -1.726472
299.34375 3.2996879999999997 1.71031 -1.589378
300.23046875 3.174901 1.584901 -1.59
301.08203125 3.2160650000000004 1.533581 -1.682484
301.9609375 3.5012 1.704372 -1.796828
302.85546875 3.365302 1.695302 -1.67
303.72265625 3.171567 1.637006 -1.534561
304.59375 3.507755 1.756071 -1.751684
305.46484375 3.3918559999999998 1.730519 -1.661337
306.3203125 3.345094 1.671167 -1.673927
307.171875 3.254826 1.707382 -1.547444
308.00390625 3.2554990000000004 1.705934 -1.549565
308.8515625 3.399931 1.658893 -1.741038
309.70703125 3.3349650000000004 1.644972 -1.689993
310.52734375 3.180836 1.56108 -1.619756
311.3828125 3.2041069999999996 1.720349 -1.483758
312.23828125 3.225409 1.733763 -1.491646
313.10546875 3.324816 1.749816 -1.575
313.9609375 3.249676 1.694852 -1.554824
314.7890625 3.315735 1.649957 -1.665778
315.64453125 3.3688599999999997 1.709793 -1.659067
316.50390625 3.118315 1.66 -1.458315
317.3359375 3.2593550000000002 1.724614 -1.534741
318.16015625 3.3183920000000002 1.669389 -1.649003
318.70703125 3.1274490000000004 1.527659 -1.59979
319.69921875 3.1319660000000002 1.679942 -1.452024
320.5546875 3.172806 1.746839 -1.425967
321.4140625 3.3076100000000004 1.744355 -1.563255
322.18359375 3.365694 1.766659 -1.599035
322.60546875 3.34497 1.62497 -1.72
323.49609375 3.069953 1.712667 -1.357286
324.390625 3.0785989999999996 1.727863 -1.350736
325.2265625 3.088407 1.720907 -1.3675
326.08203125 3.239883 1.701787 -1.538096
326.9453125 3.105119 1.737054 -1.368065
327.78515625 3.083826 1.755885 -1.327941
328.671875 3.079721 1.663203 -1.416518
329.53515625 3.038245 1.569943 -1.468302
330.390625 3.136911 1.648272 -1.488639
331.25 3.109814 1.685 -1.424814
332.0859375 3.034046 1.64951 -1.384536
332.93359375 3.142468 1.63402 -1.508448
333.765625 3.1680479999999998 1.617465 -1.550583
334.28515625 3.079106 1.520686 -1.55842
335.296875 3.0171460000000003 1.654535 -1.362611
336.1953125 2.932143 1.588357 -1.343786
337.03125 3.009136 1.588602 -1.420534
337.8671875 2.926816 1.493544 -1.433272
338.7109375 2.766683 1.381711 -1.384972
339.546875 2.8165769999999997 1.443045 -1.373532
340.37890625 2.5882829999999997 1.322144 -1.266139
341.20703125 2.525152 1.243626 -1.281526
342.046875 2.526267 1.216313 -1.309954
342.87109375 2.1495509999999998 1.059576 -1.089975
343.6875 2.014537 0.973962 -1.040575
344.51171875 2.66418 1.275304 -1.388876
345.3515625 2.9276410000000004 1.431326 -1.496315
346.1796875 2.741309 1.339435 -1.401874
347.0 2.814619 1.385 -1.429619
347.8359375 2.879649 1.41476 -1.464889
348.6875 3.046669 1.478717 -1.567952
349.53125 2.9353990000000003 1.498934 -1.436465
350.3984375 2.913258 1.502557 -1.410701
351.28125 2.984896 1.517418 -1.467478
352.203125 2.9186050000000003 1.487246 -1.431359
353.09375 2.994551 1.518479 -1.476072
353.96875 2.961787 1.519665 -1.442122
354.875 3.029678 1.53 -1.499678
355.7421875 3.04627 1.480953 -1.565317
356.58984375 2.940915 1.431018 -1.509897
357.46484375 3.0218749999999996 1.556795 -1.46508
358.34375 2.9867929999999996 1.462789 -1.524004
359.203125 3.281206 1.574132 -1.707074
360.05859375 3.1365480000000003 1.487503 -1.649045
360.9453125 2.9093530000000003 1.448085 -1.461268
361.8359375 3.001421 1.538863 -1.462558
362.70703125 3.112562 1.503871 -1.608691
363.578125 3.1530129999999996 1.511143 -1.64187
364.45703125 3.081086 1.473393 -1.607693
365.35546875 3.0898589999999997 1.514859 -1.575
366.24609375 3.010708 1.486809 -1.523899
367.17578125 3.1167540000000002 1.527384 -1.58937
368.1328125 3.0480799999999997 1.472745 -1.575335
369.0546875 3.0143060000000004 1.503125 -1.511181
369.98046875 3.1968769999999997 1.581877 -1.615
370.875 3.122866 1.54 -1.582866
371.79296875 2.996595 1.504582 -1.492013
372.69921875 3.1509590000000003 1.612004 -1.538955
373.59765625 3.227941 1.595391 -1.63255
374.49609375 2.99104 1.45604 -1.535
375.375 3.079863 1.5 -1.579863
376.265625 2.9644389999999996 1.43569 -1.528749
377.15234375 3.012662 1.403504 -1.609158
378.0546875 3.1224600000000002 1.44 -1.68246
378.9375 3.130442 1.492097 -1.638345
379.80859375 3.027676 1.475485 -1.552191
380.7109375 3.208733 1.559372 -1.649361
381.58203125 3.0877749999999997 1.412807 -1.674968
382.4296875 3.070293 1.388447 -1.681846
383.3125 2.948049 1.3975 -1.550549
384.1875 3.169171 1.520732 -1.648439
385.046875 3.411296 1.60453 -1.806766
385.90625 3.364741 1.606992 -1.757749
386.78515625 3.2153590000000003 1.62886 -1.586499
387.6640625 3.061954 1.55849 -1.503464
388.5390625 3.383737 1.62466 -1.759077
389.41796875 3.235703 1.603105 -1.632598
390.28125 3.2704769999999996 1.674332 -1.596145
391.17578125 3.278099 1.736344 -1.541755
392.0546875 3.276696 1.692308 -1.584388
392.921875 3.405048 1.721405 -1.683643
393.8203125 3.5183920000000004 1.775837 -1.742555
394.6875 3.287553 1.703621 -1.583932
395.546875 3.4408700000000003 1.81386 -1.62701
396.4140625 3.4618909999999996 1.754816 -1.707075
397.26953125 3.643725 1.824794 -1.818931
398.12890625 3.426977 1.811733 -1.615244
398.96484375 3.235723 1.725547 -1.510176
399.796875 3.583021 1.827005 -1.756016
400.65234375 3.610653 1.751901 -1.858752
401.18359375 3.4485289999999997 1.672218 -1.776311
402.125 3.326643 1.795 -1.531643
402.9921875 3.446891 1.847164 -1.599727
403.84765625 3.474085 1.783657 -1.690428
404.6953125 2.90266 1.855483 -1.047177
405.515625 3.389816 1.778852 -1.610964
406.3203125 3.424159 1.775061 -1.649098
407.1484375 3.419065 1.813389 -1.605676
407.9453125 3.54203 1.833896 -1.708134
408.51171875 3.359448 1.703775 -1.655673
409.10546875 3.184879 1.789879 -1.395
409.55078125 3.153912 1.695349 -1.458563
410.453125 3.199849 1.907538 -1.292311
411.265625 3.09023 1.732372 -1.357858
411.875 3.1748719999999997 1.63 -1.544872
412.29296875 3.3306709999999997 1.60713 -1.723541
412.6796875 3.3654029999999997 1.622487 -1.742916
413.29296875 3.238481 1.699282 -1.539199
414.1953125 3.135242 1.752165 -1.383077
415.0546875 3.411756 1.825002 -1.586754
415.59765625 3.372307 1.764302 -1.608005
416.0 3.4094550000000003 1.6 -1.809455
416.3828125 3.340866 1.653034 -1.687832
416.80078125 3.1154330000000003 1.720331 -1.395102
417.62109375 3.322918 1.812567 -1.510351
418.5625 3.3436649999999997 1.822692 -1.520973
419.0625 3.273651 1.715069 -1.558582
419.484375 3.2637549999999997 1.687422 -1.576333
419.87109375 3.269555 1.724443 -1.545112
420.9921875 3.1672640000000003 1.729678 -1.437586
421.90234375 3.18883 1.711342 -1.477488
422.8046875 3.326506 1.719017 -1.607489
423.5390625 3.338378 1.744326 -1.594052
424.578125 3.021509 1.708241 -1.313268
425.48828125 3.137441 1.758273 -1.379168
426.4375 3.163348 1.668605 -1.494743
427.328125 3.296811 1.709541 -1.58727
428.19921875 2.9947939999999997 1.507385 -1.487409
429.08984375 3.0247330000000003 1.585112 -1.439621
429.984375 3.262308 1.68773 -1.574578
430.8671875 3.336554 1.628056 -1.708498
431.41015625 3.164974 1.525629 -1.639345
431.81640625 3.302487 1.532331 -1.770156
432.4609375 3.2271409999999996 1.692246 -1.534895
433.5390625 3.22899 1.72464 -1.50435
434.48828125 3.199192 1.59714 -1.602052
435.4140625 3.2073 1.589701 -1.617599
436.33984375 3.124909 1.705823 -1.419086
437.2734375 3.071742 1.651074 -1.420668
438.19140625 3.2882610000000003 1.713869 -1.574392
439.12109375 3.255258 1.561297 -1.693961
439.88671875 3.20606 1.528952 -1.677108
440.9609375 3.1418530000000002 1.649208 -1.492645
441.88671875 3.1503259999999997 1.633076 -1.51725
442.796875 3.299655 1.611147 -1.688508
443.703125 3.234304 1.579454 -1.65485
444.57421875 2.966036 1.558889 -1.407147
445.46484375 2.974532 1.482373 -1.492159
446.36328125 3.291169 1.57653 -1.714639
447.23828125 3.053302 1.437193 -1.616109
448.14453125 3.029849 1.434995 -1.594854
449.03125 2.972127 1.45822 -1.513907
449.921875 2.8520269999999996 1.427395 -1.424632
450.7890625 3.159915 1.418813 -1.741102
451.63671875 3.167834 1.429609 -1.738225
452.5078125 3.243192 1.491096 -1.752096
453.359375 2.915159 1.449795 -1.465364
454.18359375 2.7179159999999998 1.304311 -1.413605
455.046875 2.9283 1.379207 -1.549093
455.921875 2.896991 1.346596 -1.550395
456.80078125 2.85492 1.354598 -1.500322
457.6875 2.765486 1.337353 -1.428133
458.58203125 2.933107 1.402257 -1.53085
459.46875 3.054347 1.43955 -1.614797
460.36328125 3.066716 1.453356 -1.61336
461.26171875 2.963444 1.470175 -1.493269
462.15625 2.994878 1.476429 -1.518449
463.06640625 3.149198 1.529348 -1.61985
463.9609375 3.124589 1.554852 -1.569737
464.859375 3.1894150000000003 1.539544 -1.649871
465.75390625 3.044599 1.418906 -1.625693
466.62109375 2.968008 1.414205 -1.553803
467.51171875 3.1732050000000003 1.573601 -1.599604
468.38671875 3.02352 1.463999 -1.559521
469.2890625 2.65856 1.314354 -1.344206
470.1796875 2.9548439999999996 1.485148 -1.469696
471.06640625 3.215545 1.604201 -1.611344
471.99609375 3.213853 1.615349 -1.598504
472.90625 3.163405 1.638828 -1.524577
473.82421875 2.946342 1.492389 -1.453953
474.76171875 3.0871 1.520465 -1.566635
475.67578125 3.211411 1.611486 -1.599925
476.58203125 3.1475470000000003 1.620508 -1.527039
477.46484375 3.125745 1.604588 -1.521157
478.37890625 3.2007209999999997 1.592317 -1.608404
479.2734375 3.183479 1.592293 -1.591186
480.13671875 3.125645 1.594209 -1.531436
481.04296875 3.161731 1.636929 -1.524802
481.9765625 3.2043090000000003 1.619309 -1.585
482.8828125 3.188129 1.559815 -1.628314
483.7734375 3.221177 1.59105 -1.630127
484.69921875 3.196251 1.588644 -1.607607
485.625 3.1517530000000002 1.545 -1.606753
486.53515625 3.240065 1.57572 -1.664345
487.4296875 3.299283 1.635518 -1.663765
488.328125 3.301663 1.654023 -1.64764
489.2421875 3.079397 1.600527 -1.47887
490.140625 3.171215 1.641183 -1.530032
491.046875 3.3980930000000003 1.682342 -1.715751
491.98046875 3.241671 1.64471 -1.596961
492.87109375 3.283785 1.67814 -1.605645
493.8046875 3.203003 1.604591 -1.598412
494.7265625 3.403141 1.648041 -1.7551
495.65625 3.445629 1.709469 -1.73616
496.56640625 3.3766540000000003 1.713182 -1.663472
497.484375 3.3849590000000003 1.736578 -1.648381
498.4375 3.468559 1.755714 -1.712845
499.37109375 3.4290640000000003 1.713205 -1.715859
500.3203125 3.454516 1.815 -1.639516
501.2578125 3.453596 1.760273 -1.693323
502.1875 3.4676109999999998 1.73039 -1.737221
503.1015625 3.45587 1.70087 -1.755
504.0234375 3.335912 1.719957 -1.615955
504.9765625 3.488997 1.738322 -1.750675
505.91015625 3.444103 1.656765 -1.787338
506.8515625 3.445878 1.720878 -1.725
507.79296875 3.37097 1.701487 -1.669483
508.73828125 3.440092 1.694318 -1.745774
509.64453125 3.4811769999999997 1.663244 -1.817933
510.56640625 3.503398 1.689852 -1.813546
511.51171875 3.332147 1.675702 -1.656445
512.4296875 3.4790970000000003 1.731109 -1.747988
513.34375 3.60201 1.721537 -1.880473
514.2421875 3.48178 1.726269 -1.755511
515.171875 3.478687 1.763734 -1.714953
516.06640625 3.570844 1.778919 -1.791925
516.9609375 3.627361 1.809169 -1.818192
517.90234375 3.40414 1.673554 -1.730586
518.796875 3.379965 1.720408 -1.659557
519.7109375 3.528058 1.754134 -1.773924
520.625 3.579905 1.68 -1.899905
521.55078125 3.396957 1.627399 -1.769558
522.44921875 3.253536 1.564012 -1.689524
523.3515625 3.232501 1.602243 -1.630258
524.28125 3.389734 1.625735 -1.763999
525.16015625 3.4161989999999998 1.585574 -1.830625
526.02734375 3.370664 1.638873 -1.731791
526.9453125 3.350291 1.623349 -1.726942
527.8828125 3.410332 1.58941 -1.820922
528.8203125 3.4122199999999996 1.585187 -1.827033
529.7421875 3.3678179999999998 1.593499 -1.774319
530.69140625 3.368251 1.624014 -1.744237
531.63671875 3.3706329999999998 1.574486 -1.796147
532.56640625 3.463171 1.589851 -1.87332
533.5 3.424854 1.63 -1.794854
534.44140625 3.1784429999999997 1.535526 -1.642917
535.37109375 3.321719 1.561326 -1.760393
536.2734375 3.172181 1.445335 -1.726846
537.21484375 3.2438770000000003 1.568955 -1.674922
538.11328125 3.199636 1.548194 -1.651442
539.0234375 3.260825 1.498934 -1.761891
539.93359375 3.421574 1.578297 -1.843277
540.8515625 3.2455439999999998 1.545706 -1.699838
541.75390625 3.124278 1.531861 -1.592417
542.65234375 3.256728 1.56102 -1.695708
543.58984375 3.3156470000000002 1.553709 -1.761938
544.515625 3.097019 1.484466 -1.612553
545.41796875 3.207363 1.547241 -1.660122
546.34375 3.290369 1.519676 -1.770693
547.265625 3.328274 1.502701 -1.825573
548.1796875 3.322441 1.521792 -1.800649
549.09375 3.137366 1.415 -1.722366
550.03515625 3.171459 1.416409 -1.75505
550.94140625 3.278937 1.392947 -1.88599
551.828125 3.2076000000000002 1.381138 -1.826462
552.71484375 3.110494 1.387328 -1.723166
553.65625 3.185108 1.431306 -1.753802
554.55859375 3.136074 1.36881 -1.767264
555.4453125 3.16043 1.397119 -1.763311
556.109375 3.06829 1.343934 -1.724356
557.15234375 2.949775 1.334585 -1.61519
558.08203125 3.1472119999999997 1.400496 -1.746716
558.9609375 3.2028 1.37376 -1.82904
559.85546875 3.139864 1.384864 -1.755
560.765625 3.080435 1.438565 -1.64187
561.65234375 3.0957 1.447768 -1.647932
562.5546875 3.1196580000000003 1.417812 -1.701846
563.46875 3.003171 1.33406 -1.669111
564.36328125 2.907643 1.329479 -1.578164
565.26171875 2.882215 1.327215 -1.555
566.16796875 2.99411 1.364061 -1.630049
567.07421875 3.117131 1.390131 -1.727
567.98046875 2.80997 1.28497 -1.525
568.875 2.709694 1.26 -1.449694
569.80078125 2.804446 1.279647 -1.524799
570.703125 2.855041 1.229833 -1.625208
571.59765625 2.932752 1.315202 -1.61755
572.515625 2.8564160000000003 1.346742 -1.509674
573.41796875 2.932783 1.368783 -1.564
574.2890625 3.084656 1.399856 -1.6848
575.16796875 2.9193990000000003 1.341498 -1.577901
576.08203125 2.890688 1.377514 -1.513174
576.984375 2.9888519999999996 1.387722 -1.60113
577.8828125 2.9787 1.362912 -1.615788
578.78515625 2.919519 1.38502 -1.534499
579.72265625 2.780196 1.356474 -1.423722
580.66015625 2.753786 1.268137 -1.485649
581.578125 2.9260479999999998 1.355246 -1.570802
582.5390625 2.984238 1.409684 -1.574554
583.484375 2.967197 1.374527 -1.59267
584.40234375 2.895408 1.302782 -1.592626
585.31640625 2.9447900000000002 1.35979 -1.585
586.2421875 3.030627 1.454809 -1.575818
587.17578125 2.9926969999999997 1.387399 -1.605298
588.08203125 2.9690659999999998 1.351761 -1.617305
589.015625 2.901088 1.33773 -1.563358
589.94921875 2.9012960000000003 1.325946 -1.57535
590.85546875 3.044766 1.374766 -1.67
591.76953125 2.991722 1.339963 -1.651759
592.703125 2.98474 1.326913 -1.657827
593.6328125 2.8859649999999997 1.311659 -1.574306
594.5546875 2.949577 1.327198 -1.622379
595.50390625 2.9849509999999997 1.321861 -1.66309
596.4453125 2.88977 1.339651 -1.550119
597.35546875 2.8999629999999996 1.344963 -1.555
598.2890625 3.107365 1.424268 -1.683097
599.21875 2.999015 1.37875 -1.620265
600.13671875 3.043343 1.469011 -1.574332
601.0625 2.887553 1.389324 -1.498229
602.0078125 3.073128 1.409559 -1.663569
602.9375 3.080892 1.403596 -1.677296
603.8515625 2.9177429999999998 1.372715 -1.545028
604.77734375 2.935478 1.374136 -1.561342
605.70703125 3.129439 1.434768 -1.694671
606.6328125 3.102925 1.411045 -1.69188
607.53515625 2.88205 1.373057 -1.508993
608.46875 3.0233429999999997 1.449506 -1.573837
609.40234375 3.082401 1.431578 -1.650823
610.2890625 3.0064859999999998 1.344034 -1.662452
611.1875 2.948844 1.385606 -1.563238
612.0703125 3.072173 1.457577 -1.614596
612.98046875 3.1747769999999997 1.464777 -1.71
613.84375 3.2966100000000003 1.479119 -1.817491
614.7109375 3.288618 1.509236 -1.779382
615.6171875 3.078514 1.523992 -1.554522
616.4921875 3.273593 1.599297 -1.674296
617.375 3.309934 1.555 -1.754934
618.22265625 3.3184139999999998 1.574873 -1.743541
619.12890625 3.2587960000000002 1.633205 -1.625591
619.9921875 3.012243 1.575657 -1.436586
620.85546875 3.263592 1.669235 -1.594357
621.73828125 3.4135419999999996 1.704492 -1.70905
622.28125 3.2191720000000004 1.568715 -1.650457
623.25390625 3.2637720000000003 1.727035 -1.536737
624.09765625 3.3087239999999998 1.619083 -1.689641
624.953125 3.3899540000000004 1.686147 -1.703807
625.80078125 3.3245370000000003 1.60477 -1.719767
626.37109375 3.197317 1.607573 -1.589744
627.3203125 3.236488 1.652739 -1.583749
628.203125 3.270274 1.66738 -1.602894
629.05078125 3.251087 1.608104 -1.642983
629.88671875 3.2202450000000002 1.588064 -1.632181
630.73046875 3.3248290000000003 1.754829 -1.57
631.609375 3.2701849999999997 1.757083 -1.513102
632.4921875 3.198966 1.650037 -1.548929
633.3359375 3.154645 1.584957 -1.569688
633.8515625 3.160267 1.542776 -1.617491
634.25390625 3.266308 1.451499 -1.814809
635.1328125 3.20258 1.60351 -1.59907
636.03515625 3.1957690000000003 1.587814 -1.607955
636.91796875 3.2610900000000003 1.609855 -1.651235
637.48046875 3.15983 1.59483 -1.565
638.52734375 2.755013 1.46518 -1.289833
639.42578125 3.141653 1.6377 -1.503953
640.31640625 3.26178 1.608653 -1.653127
641.21484375 3.230632 1.653392 -1.57724
642.09375 3.101617 1.656023 -1.445594
642.98046875 3.14995 1.64995 -1.5
643.88671875 3.296148 1.718336 -1.577812
644.41796875 3.261125 1.621502 -1.639623
644.828125 3.325872 1.466303 -1.859569
645.25 3.3247869999999997 1.605 -1.719787
645.73046875 3.195268 1.411435 -1.783833
646.4296875 3.1431129999999996 1.587581 -1.555532
647.50390625 3.1241640000000004 1.63694 -1.487224
648.4140625 3.170012 1.598816 -1.571196
648.890625 3.023892 1.450484 -1.573408
649.296875 3.099605 1.454051 -1.645554
649.70703125 3.1025840000000002 1.486404 -1.61618
650.63671875 3.110728 1.600831 -1.509897
651.63671875 3.1001440000000002 1.463795 -1.636349
652.546875 3.106703 1.438045 -1.668658
653.48828125 3.153124 1.600594 -1.55253
654.43359375 3.150786 1.573755 -1.577031
655.3359375 3.183751 1.534369 -1.649382
656.2734375 3.1305709999999998 1.475892 -1.654679
657.19921875 3.152517 1.544244 -1.608273
658.14453125 3.208825 1.594902 -1.613923
659.10546875 3.194696 1.539696 -1.655
660.05859375 3.214922 1.519288 -1.695634
661.0078125 3.189098 1.53159 -1.657508
661.953125 3.136194 1.519387 -1.616807
662.91796875 3.054145 1.443384 -1.610761
663.85546875 3.264995 1.519995 -1.745
664.80078125 3.037008 1.481781 -1.555227
665.72265625 3.1824719999999997 1.56141 -1.621062
666.64453125 3.3342929999999997 1.524959 -1.809334
667.57421875 3.177669 1.421639 -1.75603
668.49609375 3.144467 1.475265 -1.669202
669.48046875 3.115 1.485 -1.63
670.42578125 3.2734620000000003 1.483236 -1.790226
671.3671875 3.2529570000000003 1.490841 -1.762116
672.31640625 3.030544 1.459563 -1.570981
673.28515625 3.263358 1.493216 -1.770142
674.24609375 3.319027 1.503278 -1.815749
675.19140625 3.0916189999999997 1.445358 -1.646261
676.16015625 3.198741 1.523741 -1.675
677.12890625 3.254664 1.499148 -1.755516
678.09375 3.175596 1.425416 -1.75018
679.04296875 3.051265 1.388807 -1.662458
680.04296875 3.121193 1.432175 -1.689018
681.00390625 3.0807019999999996 1.364715 -1.715987
681.92578125 3.126787 1.401376 -1.725411
682.87890625 2.9941380000000004 1.398991 -1.595147
683.8359375 3.1497729999999997 1.474979 -1.674794
684.8125 3.130582 1.422625 -1.707957
685.734375 3.238962 1.459487 -1.779475
686.6875 3.211464 1.535526 -1.675938
687.64453125 3.115528 1.528061 -1.587467
688.58984375 3.196789 1.531302 -1.665487
689.546875 3.286091 1.53225 -1.753841
690.5078125 3.2676179999999997 1.611837 -1.655781
691.46484375 3.114892 1.556535 -1.558357
692.41796875 3.152063 1.533345 -1.618718
693.38671875 3.2710090000000003 1.582015 -1.688994
694.3359375 3.1991259999999997 1.614242 -1.584884
695.296875 3.1471910000000003 1.567858 -1.579333
696.27734375 3.24985 1.590018 -1.659832
697.26171875 3.194598 1.552061 -1.642537
698.2109375 3.112886 1.553666 -1.55922
699.1796875 3.1670350000000003 1.594518 -1.572517
700.15625 3.1934180000000003 1.552286 -1.641132
701.08984375 2.942704 1.443898 -1.498806
702.046875 3.123302 1.543488 -1.579814
703.00390625 3.1968699999999997 1.501987 -1.694883
703.97265625 3.3276060000000003 1.581774 -1.745832
704.90234375 3.087556 1.500319 -1.587237
705.86328125 2.996616 1.462396 -1.53422
706.81640625 3.048611 1.470876 -1.577735
707.74609375 3.007608 1.407271 -1.600337
708.6796875 3.024865 1.473507 -1.551358
709.640625 3.000488 1.532024 -1.468464
710.58203125 3.182022 1.56299 -1.619032
711.51953125 3.1832849999999997 1.529785 -1.6535
712.4765625 3.25292 1.56792 -1.685
713.45703125 3.012106 1.520538 -1.491568
714.41015625 3.1264279999999998 1.520354 -1.606074
715.3828125 3.2113750000000003 1.536375 -1.675
716.3828125 3.1192149999999996 1.591897 -1.527318
717.33203125 3.012184 1.528645 -1.483539
718.265625 3.143384 1.563217 -1.580167
719.25 3.144711 1.58 -1.564711
720.1875 3.1568500000000004 1.579676 -1.577174
721.10546875 3.109963 1.504963 -1.605
722.00390625 3.2140500000000003 1.525029 -1.689021
722.9375 3.165793 1.561522 -1.604271
723.828125 3.1613350000000002 1.51389 -1.647445
724.734375 3.2219930000000003 1.565293 -1.6567
725.66796875 3.171897 1.558518 -1.613379
726.55078125 3.245533 1.634681 -1.610852
727.45703125 3.198858 1.677317 -1.521541
728.375 3.295898 1.65 -1.645898
729.2890625 3.285138 1.623054 -1.662084
730.1953125 3.1838930000000003 1.619753 -1.56414
731.09765625 3.1495930000000003 1.649593 -1.5
732.03125 3.326275 1.623851 -1.702424
732.93359375 3.3911 1.628405 -1.762695
733.80859375 3.286856 1.644798 -1.642058
734.71484375 3.352136 1.678096 -1.67404
735.640625 3.303759 1.633813 -1.669946
736.546875 3.257596 1.595507 -1.662089
737.44140625 3.290486 1.554892 -1.735594
738.37890625 3.374551 1.702367 -1.672184
739.30078125 3.37875 1.694476 -1.684274
740.1875 3.205793 1.543736 -1.662057
741.07421875 3.350758 1.584595 -1.766163
742.01953125 3.4139660000000003 1.669931 -1.744035
742.9453125 3.223934 1.57931 -1.644624
743.86328125 3.346183 1.544932 -1.801251
744.84765625 3.365514 1.538742 -1.826772
745.8125 3.2158379999999998 1.584475 -1.631363
746.74609375 3.287717 1.554478 -1.733239
747.6875 3.268585 1.508417 -1.760168
748.63671875 3.41641 1.560587 -1.855823
749.58203125 3.3198499999999997 1.684541 -1.635309
750.51171875 3.19372 1.590117 -1.603603
751.45703125 3.2726119999999996 1.49958 -1.773032
752.36328125 3.383459 1.559218 -1.824241
753.25390625 3.3198429999999997 1.545 -1.774843
754.1796875 3.25524 1.552615 -1.702625
755.11328125 3.450722 1.62072 -1.830002
756.0546875 3.32404 1.522677 -1.801363
757.00390625 3.435871 1.564316 -1.871555
757.97265625 3.40285 1.614593 -1.788257
758.93359375 3.3844950000000003 1.576975 -1.80752
759.86328125 3.434405 1.579727 -1.854678
760.82421875 3.479176 1.6116 -1.867576
761.7890625 3.271419 1.551704 -1.719715
762.73046875 3.30565 1.494738 -1.810912
763.65234375 3.320353 1.528289 -1.792064
764.6171875 3.286099 1.523105 -1.762994
765.54296875 3.228535 1.579994 -1.648541
766.45703125 3.35597 1.543112 -1.812858
767.37890625 3.4619210000000002 1.582196 -1.879725
768.3203125 3.324511 1.502803 -1.821708
769.25390625 3.196474 1.51632 -1.680154
770.16015625 3.320253 1.523752 -1.796501
771.11328125 3.367903 1.522218 -1.845685
772.03125 3.3327299999999997 1.585735 -1.746995
772.9609375 3.164266 1.589934 -1.574332
773.8828125 3.1790589999999996 1.558455 -1.620604
774.8046875 3.265482 1.546553 -1.718929
775.72265625 3.43494 1.589122 -1.845818
776.6328125 3.060578 1.481932 -1.578646
777.58984375 3.1183959999999997 1.567328 -1.551068
778.51953125 3.05804 1.404683 -1.653357
779.4296875 3.168764 1.466824 -1.70194
780.33984375 3.1455409999999997 1.425485 -1.720056
781.26953125 3.353477 1.544813 -1.808664
782.1953125 3.323327 1.49372 -1.829607
783.10546875 3.21497 1.43497 -1.78
784.0390625 3.243725 1.482466 -1.761259
784.97265625 3.152462 1.468625 -1.683837
785.8828125 3.181933 1.441396 -1.740537
786.76953125 3.224276 1.379984 -1.844292
787.6953125 3.096737 1.346922 -1.749815
788.609375 3.1582679999999996 1.490951 -1.667317
789.48828125 3.1203909999999997 1.469037 -1.651354
790.3984375 3.168559 1.417182 -1.751377
791.30859375 3.259854 1.509854 -1.75
792.23046875 3.079757 1.454757 -1.625
793.1484375 3.0627139999999997 1.39102 -1.671694
794.09765625 3.252541 1.454287 -1.798254
795.05859375 2.9482049999999997 1.397483 -1.550722
795.9765625 2.943536 1.393536 -1.55
796.94921875 3.083722 1.382692 -1.70103
797.87890625 3.132993 1.418948 -1.714045
798.7734375 3.023038 1.403809 -1.619229
799.703125 3.057368 1.461004 -1.596364
800.6484375 3.166874 1.451974 -1.7149
801.5625 3.149701 1.42875 -1.720951
802.46484375 3.127138 1.468279 -1.658859
803.41796875 3.1401149999999998 1.455541 -1.684574
804.375 3.329644 1.515 -1.814644
805.28515625 3.199091 1.414886 -1.784205
806.22265625 3.187486 1.449872 -1.737614
807.16796875 3.148263 1.464937 -1.683326
808.1171875 3.145003 1.416751 -1.728252
809.05078125 3.203984 1.455371 -1.748613
810.01171875 3.2915159999999997 1.523769 -1.767747
810.94921875 3.137178 1.459211 -1.677967
811.859375 3.140988 1.427394 -1.713594
812.76953125 3.134331 1.364625 -1.769706
813.69140625 3.2840759999999998 1.444595 -1.839481
814.578125 3.2199609999999996 1.497731 -1.72223
815.44921875 3.147837 1.437004 -1.710833
816.37890625 3.285 1.495 -1.79
817.2734375 3.2961840000000002 1.486437 -1.809747
818.16796875 3.2551769999999998 1.49368 -1.761497
819.08203125 3.253765 1.563755 -1.69001
820.0 3.259181 1.555 -1.704181
820.9140625 3.3005649999999997 1.509036 -1.791529
821.8046875 3.200771 1.501157 -1.699614
822.3515625 3.2202539999999997 1.449636 -1.770618
823.38671875 3.1407059999999998 1.529016 -1.61169
824.3046875 3.1634510000000002 1.491786 -1.671665
825.19921875 3.307128 1.531423 -1.775705
826.08984375 3.216889 1.508461 -1.708428
827.01171875 3.1742600000000003 1.559754 -1.614506
827.93359375 3.200598 1.56252 -1.638078
828.859375 3.2481859999999996 1.512965 -1.735221
829.484375 3.2965359999999997 1.450972 -1.845564
830.515625 3.2298419999999997 1.570463 -1.659379
831.46875 3.048546 1.451086 -1.59746
832.39453125 3.220608 1.514948 -1.70566
833.30078125 3.321365 1.507088 -1.814277
833.95703125 3.173944 1.456283 -1.717661
834.96484375 3.0421519999999997 1.469004 -1.573148
835.890625 3.1919370000000002 1.498443 -1.693494
836.78125 3.285983 1.534733 -1.75125
837.640625 3.252858 1.523296 -1.729562
838.51953125 3.1022559999999997 1.541866 -1.56039
839.453125 3.147719 1.580218 -1.567501
840.38671875 3.239149 1.628607 -1.610542
841.26171875 3.409307 1.613624 -1.795683
842.1796875 3.2587099999999998 1.581567 -1.677143
843.09375 3.338431 1.744825 -1.593606
844.0078125 3.164891 1.644188 -1.520703
844.94140625 3.189564 1.646327 -1.543237
845.8671875 3.352297 1.699816 -1.652481
846.51171875 3.284684 1.611453 -1.673231
847.5703125 3.109096 1.646164 -1.462932
848.51953125 3.213644 1.619837 -1.593807
849.44921875 3.366886 1.663577 -1.703309
850.34765625 3.229854 1.561326 -1.668528
851.1875 3.214067 1.606265 -1.607802
852.16015625 3.177828 1.619981 -1.557847
853.078125 3.338666 1.688793 -1.649873
853.98828125 3.208431 1.557294 -1.651137
854.5 3.3197599999999996 1.535 -1.78476
854.91796875 3.343531 1.416079 -1.927452
855.58203125 3.292106 1.465726 -1.82638
856.5703125 3.219812 1.598875 -1.620937
857.53515625 3.175172 1.586624 -1.588548
858.484375 3.348864 1.590724 -1.75814
859.44140625 3.3150389999999996 1.568517 -1.746522
859.99609375 3.341486 1.597004 -1.744482
861.046875 3.1746169999999996 1.633606 -1.541011
862.046875 3.189982 1.624106 -1.565876
862.99609375 3.231464 1.585605 -1.645859
863.9296875 3.3158909999999997 1.618036 -1.697855
864.89453125 3.253792 1.609785 -1.644007
865.87890625 3.362518 1.673853 -1.688665
866.8359375 3.3589219999999997 1.574271 -1.784651
867.765625 3.3124260000000003 1.541759 -1.770667
868.73828125 3.350809 1.64659 -1.704219
869.68359375 3.2450989999999997 1.636828 -1.608271
870.61328125 3.4139030000000004 1.625531 -1.788372
871.5625 3.389217 1.600175 -1.789042
872.52734375 3.3959390000000003 1.634442 -1.761497
873.484375 3.316724 1.676875 -1.639849
874.453125 3.4187719999999997 1.699639 -1.719133
875.453125 3.367913 1.639639 -1.728274
876.4296875 3.3252490000000003 1.59677 -1.728479
877.41015625 3.330835 1.660584 -1.670251
878.3828125 3.3422229999999997 1.580781 -1.761442
879.34765625 3.488288 1.632263 -1.856025
880.28515625 3.36196 1.600776 -1.761184
881.2734375 3.208573 1.538573 -1.67
882.24609375 3.337579 1.590498 -1.747081
883.1875 3.248119 1.519666 -1.728453
884.13671875 3.2758469999999997 1.540414 -1.735433
885.109375 3.227045 1.581885 -1.64516
886.0703125 3.334296 1.60413 -1.730166
887.0 3.1803660000000002 1.535 -1.645366
887.96875 3.220922 1.541346 -1.679576
888.90625 3.235729 1.594814 -1.640915
889.83984375 3.199597 1.526886 -1.672711
890.7890625 3.300492 1.543908 -1.756584
891.74609375 3.11217 1.49 -1.62217
892.6875 3.209651 1.534608 -1.675043
893.62109375 3.22044 1.510768 -1.709672
894.5546875 3.190331 1.490867 -1.699464
895.4765625 3.046683 1.451732 -1.594951
896.40234375 3.036082 1.449589 -1.586493
897.32421875 3.1980899999999997 1.546309 -1.651781
898.25 3.2497309999999997 1.535 -1.714731
899.14453125 3.212851 1.544737 -1.668114
900.03125 3.1522300000000003 1.558208 -1.594022
900.96875 3.218886 1.520681 -1.698205
901.87109375 3.054594 1.402534 -1.65206
902.765625 3.131352 1.409421 -1.721931
903.6953125 3.11504 1.465845 -1.649195
904.66015625 3.062448 1.458451 -1.603997
905.5859375 3.149472 1.454697 -1.694775
906.4921875 3.0856 1.427914 -1.657686
907.43359375 3.0219110000000002 1.454575 -1.567336
908.34375 2.958163 1.453154 -1.505009
909.28515625 3.003506 1.448337 -1.555169
910.1953125 2.9921189999999998 1.41271 -1.579409
911.12890625 3.0942939999999997 1.556306 -1.537988
912.04296875 3.104939 1.575113 -1.529826
912.640625 3.066331 1.497633 -1.568698
913.7421875 3.21253 1.605882 -1.606648
914.7109375 3.2045640000000004 1.604645 -1.599919
915.64453125 3.148822 1.634764 -1.514058
916.5859375 3.0737740000000002 1.584434 -1.48934
917.51953125 3.359268 1.614857 -1.744411
918.43359375 3.3919949999999996 1.637978 -1.754017
919.36328125 3.163607 1.578785 -1.584822
920.31640625 3.170108 1.57284 -1.597268
921.27734375 3.3302829999999997 1.664129 -1.666154
922.19921875 3.333408 1.592684 -1.740724
923.125 3.210696 1.605 -1.605696
924.09765625 3.2451540000000003 1.662311 -1.582843
925.01953125 3.2625390000000003 1.624665 -1.637874
925.93359375 3.368106 1.618997 -1.749109
926.49609375 3.2827900000000003 1.528634 -1.754156
927.57421875 3.2848610000000003 1.649588 -1.635273
928.51953125 3.224279 1.574882 -1.649397
929.453125 3.330208 1.561484 -1.768724
930.38671875 3.333508 1.533808 -1.7997
931.3046875 3.233659 1.550798 -1.682861
932.2109375 2.761977 1.322191 -1.439786
933.15625 3.299356 1.597994 -1.701362
934.06640625 3.367602 1.547446 -1.820156
934.9453125 3.311578 1.541872 -1.769706
935.859375 3.199658 1.597422 -1.602236
936.80859375 3.313897 1.61329 -1.700607
937.734375 3.342351 1.584907 -1.757444
938.63671875 3.3538639999999997 1.54534 -1.808524
939.58203125 3.279555 1.606161 -1.673394
940.5234375 3.284449 1.68064 -1.603809
941.4609375 3.294745 1.624826 -1.669919
942.38671875 3.456237 1.617038 -1.839199
943.3515625 3.353346 1.600797 -1.752549
944.31640625 3.4064170000000003 1.75342 -1.652997
945.28515625 3.312052 1.631843 -1.680209
946.26171875 3.406711 1.636349 -1.770362
947.25 3.449592 1.75 -1.699592
948.21484375 3.297371 1.644974 -1.652397
949.21484375 3.3998280000000003 1.648371 -1.751457
950.2421875 3.389065 1.616294 -1.772771
951.265625 3.228331 1.603125 -1.625206
952.31640625 3.3668579999999997 1.707687 -1.659171
953.33203125 3.328215 1.626947 -1.701268
954.31640625 3.35166 1.623357 -1.728303
955.32421875 3.3558529999999998 1.672953 -1.6829
956.32421875 3.313459 1.653333 -1.660126
957.3125 3.2552339999999997 1.609515 -1.645719
958.25390625 3.24507 1.566306 -1.678764
959.234375 3.188123 1.585077 -1.603046
960.234375 3.345405 1.65685 -1.688555
961.171875 3.223659 1.533365 -1.690294
962.1328125 3.261608 1.523293 -1.738315
963.109375 3.276788 1.58053 -1.696258
964.0390625 3.357733 1.614603 -1.74313
964.97265625 3.182615 1.536524 -1.646091
965.91796875 3.206052 1.468299 -1.737753
966.8515625 3.1688549999999998 1.491195 -1.67766
967.78125 3.211295 1.542287 -1.669008
968.74609375 3.131498 1.525945 -1.605553
969.734375 3.32278 1.609921 -1.712859
970.703125 3.333286 1.531145 -1.802141
971.71875 3.239668 1.607302 -1.632366
972.74609375 3.224761 1.606807 -1.617954
973.75390625 3.23678 1.58335 -1.65343
974.78515625 3.03486 1.520891 -1.513969
975.828125 3.1805380000000003 1.589109 -1.591429
976.8671875 3.34639 1.631636 -1.714754
977.87109375 3.213416 1.543821 -1.669595
978.91015625 3.158672 1.600848 -1.557824
979.90625 3.129914 1.60889 -1.521024
980.87890625 3.038191 1.441598 -1.596593
981.85546875 3.03133 1.489948 -1.541382
982.82421875 2.9301839999999997 1.45477 -1.475414
983.78125 3.092756 1.537182 -1.555574
984.73828125 3.131539 1.53344 -1.598099
985.6875 3.055562 1.477004 -1.578558
986.609375 3.071067 1.537583 -1.533484
987.55859375 2.986029 1.497059 -1.48897
988.49609375 3.160805 1.554364 -1.606441
989.421875 3.023035 1.514918 -1.508117
990.35546875 3.149835 1.574835 -1.575
991.34375 3.109566 1.613906 -1.49566
992.31640625 3.0946990000000003 1.619105 -1.475594
993.2734375 3.092169 1.588825 -1.503344
994.234375 3.031166 1.501166 -1.53
995.22265625 3.006316 1.573623 -1.432693
996.1953125 3.0592810000000004 1.579115 -1.480166
997.12890625 3.047154 1.475913 -1.571241
998.10546875 3.0308669999999998 1.490867 -1.54
999.03515625 2.9937370000000003 1.513374 -1.480363
999.96484375 2.98736 1.50039 -1.48697
1000.91015625 3.083455 1.540677 -1.542778
1001.8515625 3.068765 1.524225 -1.54454
1002.53125 3.05403 1.479097 -1.574933
1003.5625 2.949358 1.557905 -1.391453
1004.53125 3.090189 1.57898 -1.511209
1005.46484375 3.16694 1.581743 -1.585197
1006.35546875 3.119812 1.509812 -1.61
1007.27734375 2.98321 1.518774 -1.464436
1008.234375 2.944465 1.51165 -1.432815
1009.14453125 3.116226 1.581119 -1.535107
1010.05859375 3.100999 1.475 -1.625999
1010.98828125 3.0103809999999998 1.425506 -1.584875
1011.9375 2.890226 1.431375 -1.458851
1012.875 2.905597 1.49 -1.415597
1013.796875 3.078276 1.504918 -1.573358
1014.33984375 2.962459 1.423755 -1.538704
1014.78125 3.0082050000000002 1.506191 -1.502014
1015.80859375 2.9158359999999997 1.564576 -1.35126
1016.77734375 2.959252 1.583743 -1.375509
1017.73046875 2.90367 1.50867 -1.395
1018.6484375 2.9126950000000003 1.50169 -1.411005
1019.19921875 2.9316940000000002 1.483403 -1.448291
1020.27734375 2.7620899999999997 1.492433 -1.269657
1021.234375 2.818842 1.4891 -1.329742
1022.1796875 2.942551 1.457202 -1.485349
1023.08984375 2.910678 1.453636 -1.457042
1024.05078125 2.888604 1.454445 -1.434159
1024.98828125 2.8800749999999997 1.410634 -1.469441
1025.91796875 3.056625 1.418858 -1.637767
1026.8515625 2.935754 1.346756 -1.588998
1027.8046875 2.993709 1.406702 -1.587007
1028.78125 2.992204 1.512174 -1.48003
1029.734375 2.934943 1.422083 -1.51286
1030.7265625 3.058368 1.437901 -1.620467
1031.6953125 3.105316 1.457344 -1.647972
1032.66796875 2.907647 1.408701 -1.498946
1033.65234375 3.067485 1.467294 -1.600191
1034.6328125 3.08608 1.461868 -1.624212
1035.59375 3.087763 1.478947 -1.608816
1036.57421875 2.9233330000000004 1.397115 -1.526218
1037.5625 3.011386 1.477729 -1.533657
1038.5234375 2.992573 1.464985 -1.527588
1039.51953125 2.925987 1.429105 -1.496882
1040.515625 2.948499 1.456523 -1.491976
1041.53515625 3.1540730000000003 1.477489 -1.676584
1042.51953125 2.9690760000000003 1.384874 -1.584202
1043.53125 3.154553 1.427794 -1.726759
1044.4921875 3.01179 1.323327 -1.688463
1045.42578125 2.916138 1.33566 -1.580478
1046.37890625 3.030247 1.398166 -1.632081
1047.35546875 3.199862 1.429862 -1.77
1048.31640625 3.022203 1.320718 -1.701485
1049.265625 2.995895 1.320023 -1.675872
1050.265625 3.142665 1.410062 -1.732603
1051.22265625 3.1102499999999997 1.341264 -1.768986
1052.1640625 3.157862 1.35949 -1.798372
1053.125 3.149801 1.44 -1.709801
1054.06640625 3.1089390000000003 1.454137 -1.654802
1054.99609375 3.0587 1.379412 -1.679288
1055.90625 3.043838 1.329676 -1.714162
1056.8515625 3.006539 1.367082 -1.639457
1057.76953125 3.067857 1.449984 -1.617873
1058.71484375 3.0718170000000002 1.428198 -1.643619
1059.671875 3.109338 1.414625 -1.694713
1060.6484375 3.107148 1.447978 -1.65917
1061.59765625 3.099618 1.466775 -1.632843
1062.57421875 3.0435879999999997 1.4314 -1.612188
1063.5546875 2.875394 1.298319 -1.577075
1064.51171875 3.2046799999999998 1.517703 -1.686977
1065.46875 3.046632 1.431457 -1.615175
1066.421875 3.1946630000000003 1.417102 -1.777561
1067.39453125 3.2843400000000003 1.454881 -1.829459
1068.35546875 3.079893 1.434893 -1.645
1069.37109375 3.129494 1.41244 -1.717054
1070.359375 3.230481 1.433422 -1.797059
1071.32421875 3.0617419999999997 1.3314 -1.730342
1072.33203125 3.056611 1.425146 -1.631465
1073.35546875 3.165 1.43 -1.735
1074.328125 3.237002 1.48736 -1.749642
1075.29296875 3.186849 1.475182 -1.711667
1076.2578125 3.242864 1.546574 -1.69629
1077.203125 3.3399419999999997 1.539355 -1.800587
1078.16015625 3.263856 1.487649 -1.776207
1079.10546875 3.364756 1.534756 -1.83
1080.05078125 3.2649039999999996 1.602723 -1.662181
1080.984375 3.299562 1.571649 -1.727913
1081.921875 3.372294 1.594733 -1.777561
1082.8515625 3.3473319999999998 1.548127 -1.799205
1083.796875 3.275479 1.568073 -1.707406
1084.73046875 3.229865 1.554865 -1.675
1085.66015625 3.389163 1.562334 -1.826829
1086.5859375 3.403325 1.574194 -1.829131
1087.40625 3.244111 1.527861 -1.71625
1088.3828125 3.346952 1.64608 -1.700872
1089.30078125 3.267626 1.580397 -1.687229
1090.19140625 3.2808960000000003 1.464998 -1.815898
1091.0859375 3.2882420000000003 1.493967 -1.794275
1091.625 3.079202 1.41 -1.669202
1092.02734375 3.036402 1.398678 -1.637724
1093.05078125 3.200188 1.509475 -1.690713
1093.94140625 3.2311699999999997 1.548201 -1.682969
1094.87109375 3.204909 1.584041 -1.620868
1095.72265625 3.251953 1.607926 -1.644027
1096.66796875 3.14893 1.617263 -1.531667
1097.578125 3.175077 1.608793 -1.566284
1098.484375 3.33073 1.637466 -1.693264
1099.04296875 3.2529130000000004 1.531781 -1.721132
1099.625 3.294581 1.55 -1.744581
1100.671875 3.196573 1.592076 -1.604497
1101.63671875 3.2431159999999997 1.632572 -1.610544
1102.55078125 3.2874730000000003 1.611728 -1.675745
1103.15234375 3.181462 1.486619 -1.694843
1103.58984375 3.1685030000000003 1.442452 -1.726051
1104.61328125 3.181691 1.578048 -1.603643
1105.59375 3.214967 1.599425 -1.615542
1106.51171875 3.280404 1.58688 -1.693524
1107.4375 3.246321 1.569189 -1.677132
1108.41015625 3.23311 1.625582 -1.607528
1109.34375 3.2656349999999996 1.645808 -1.619827
1110.27734375 3.2523020000000002 1.537808 -1.714494
1110.80078125 3.23384 1.533442 -1.700398
1111.2265625 3.267995 1.515547 -1.752448
1112.2734375 3.2320960000000003 1.64822 -1.583876
1113.21875 3.188001 1.633969 -1.554032
1114.140625 3.245218 1.66564 -1.579578
1115.06640625 3.301589 1.673043 -1.628546
1115.98828125 3.078302 1.585844 -1.492458
1116.9140625 3.2188239999999997 1.634536 -1.584288
1117.828125 3.2779550000000004 1.581808 -1.696147
1118.73828125 3.304639 1.622959 -1.68168
1119.65625 3.2655149999999997 1.608545 -1.65697
1120.61328125 3.238018 1.645819 -1.592199
1121.55078125 3.256182 1.636564 -1.619618
1122.4296875 3.3436909999999997 1.644274 -1.699417
1123.30859375 3.230839 1.627618 -1.603221
1124.1953125 3.09771 1.585868 -1.511842
1125.1171875 3.2014180000000003 1.601285 -1.600133
1126.0 3.3346679999999997 1.64 -1.694668
1126.8515625 3.191892 1.550915 -1.640977
1127.79296875 3.0782230000000004 1.53753 -1.540693
1128.6875 3.181632 1.6095 -1.572132
1129.58203125 3.249139 1.597759 -1.65138
1130.47265625 3.408424 1.672805 -1.735619
1131.39453125 3.338962 1.644843 -1.694119
1132.30859375 3.332999 1.69963 -1.633369
1133.2109375 3.1915880000000003 1.6079 -1.583688
1134.16015625 3.235786 1.58825 -1.647536
1135.0859375 3.3895850000000003 1.724827 -1.664758
1136.00390625 3.257053 1.683602 -1.573451
1136.9453125 3.325793 1.635513 -1.69028
1137.921875 3.4418569999999997 1.660339 -1.781518
1138.859375 3.058117 1.47178 -1.586337
1139.8125 3.090178 1.555403 -1.534775
1140.78125 3.322812 1.592812 -1.73
1141.72265625 3.380679 1.583476 -1.797203
1142.6328125 3.2521750000000003 1.56902 -1.683155
1143.6015625 3.0953809999999997 1.547966 -1.547415
1144.58984375 3.238677 1.519354 -1.719323
1145.5234375 3.200324 1.489018 -1.711306
1146.46484375 3.043025 1.431271 -1.611754
1147.42578125 3.142327 1.463365 -1.678962
1148.36328125 3.171435 1.455989 -1.715446
1149.2890625 3.18384 1.459414 -1.724426
1150.19921875 3.152679 1.475668 -1.677011
1151.140625 3.106159 1.471264 -1.634895
1152.0390625 3.067322 1.467208 -1.600114
1152.94140625 3.2027159999999997 1.439668 -1.763048
1153.87109375 3.172163 1.463202 -1.708961
1154.76953125 3.193823 1.549879 -1.643944
1155.67578125 3.155539 1.512759 -1.64278
1156.578125 3.157276 1.464438 -1.692838
1157.33203125 3.167244 1.489025 -1.678219
1157.7734375 3.1117600000000003 1.364179 -1.747581
1158.734375 3.180859 1.60407 -1.576789
1159.70703125 3.109537 1.567495 -1.542042
1160.65234375 3.159551 1.541712 -1.617839
1161.546875 3.180062 1.497199 -1.682863
1162.4921875 3.105646 1.584662 -1.520984
1163.4375 3.024324 1.514324 -1.51
1164.3671875 3.1849600000000002 1.528744 -1.656216
1165.26953125 3.195738 1.510853 -1.684885
1166.2109375 2.921919 1.449958 -1.471961
1167.16796875 3.122761 1.55427 -1.568491
1168.0859375 3.246023 1.517088 -1.728935
1169.00390625 3.264425 1.554088 -1.710337
1169.9375 3.1875999999999998 1.572754 -1.614846
1170.88671875 3.227944 1.61542 -1.612524
1171.796875 3.389457 1.666855 -1.722602
1172.75 3.2797650000000003 1.565 -1.714765
1173.69921875 3.210688 1.614824 -1.595864
1174.625 3.2279850000000003 1.61 -1.617985
1175.5546875 3.2580299999999998 1.560559 -1.697471
1176.48828125 3.276013 1.567348 -1.708665
1177.3984375 3.327681 1.672828 -1.654853
1178.27734375 3.314342 1.623235 -1.691107
1179.20703125 3.3318440000000002 1.572384 -1.75946
1180.10546875 3.410592 1.605592 -1.805
1180.98046875 3.1619219999999997 1.511922 -1.65
1181.87890625 3.24667 1.609964 -1.636706
1182.80859375 3.452525 1.628643 -1.823882
1183.734375 3.492629 1.651151 -1.841478
1184.66796875 3.4279780000000004 1.621204 -1.806774
1185.6171875 3.335018 1.631325 -1.703693
1186.578125 3.3125679999999997 1.625 -1.687568
1187.5234375 3.238355 1.527064 -1.711291
1188.45703125 3.410965 1.63416 -1.776805
1189.41796875 3.431108 1.693701 -1.737407
1190.35546875 3.54544 1.684195 -1.861245
1191.27734375 3.6312040000000003 1.714121 -1.917083
1192.23046875 3.619877 1.714877 -1.905
1193.1484375 3.557824 1.740909 -1.816915
1194.046875 3.4741299999999997 1.691157 -1.782973
1194.94921875 3.5304200000000003 1.627771 -1.902649
1195.875 3.489505 1.64 -1.849505
1196.8046875 3.502807 1.695961 -1.806846
1197.703125 3.497897 1.730992 -1.766905
1198.64453125 3.5620950000000002 1.764882 -1.797213
1199.5703125 3.595479 1.72756 -1.867919
1200.47265625 3.502929 1.808301 -1.694628
1201.41796875 3.44104 1.720746 -1.720294
1202.37109375 3.509693 1.675537 -1.834156
1203.3203125 3.489654 1.689756 -1.799898
1204.25390625 3.513799 1.721367 -1.792432
1205.22265625 3.433789 1.703619 -1.73017
1206.16015625 3.486643 1.6607 -1.825943
1207.09375 3.500299 1.709633 -1.790666
1208.0390625 3.461475 1.729689 -1.731786
1208.98046875 3.6472040000000003 1.779808 -1.867396
1209.88671875 3.466354 1.72331 -1.743044
1210.78125 3.520865 1.826186 -1.694679
1211.7109375 3.5791880000000003 1.77488 -1.804308
1212.6171875 3.628172 1.826063 -1.802109
1213.33984375 3.591622 1.764931 -1.826691
1214.359375 3.212131 1.702942 -1.509189
1215.29296875 3.506429 1.797839 -1.70859
1216.203125 3.567335 1.769363 -1.797972
1216.75 3.589327 1.735 -1.854327
1217.79296875 3.3040950000000002 1.716487 -1.587608
1218.765625 3.426693 1.76458 -1.662113
1219.69140625 3.579561 1.763754 -1.815807
1220.640625 3.4593059999999998 1.730432 -1.728874
1221.5546875 3.448216 1.78236 -1.665856
1222.48828125 3.397534 1.717148 -1.680386
1223.38671875 3.371715 1.686911 -1.684804
1224.2890625 3.557576 1.709247 -1.848329
1225.1953125 3.386457 1.661707 -1.72475
1226.06640625 3.35319 1.630881 -1.722309
1226.92578125 3.582962 1.575935 -2.007027
1227.49609375 3.325878 1.492443 -1.833435
1228.4765625 3.363532 1.671437 -1.692095
1229.33984375 3.388964 1.668095 -1.720869
1230.20703125 3.384549 1.644275 -1.740274
1230.828125 3.448817 1.655499 -1.793318
1231.26171875 3.417445 1.598921 -1.818524
1232.20703125 3.377167 1.712292 -1.664875
1233.1015625 3.314024 1.682327 -1.631697
1234.0078125 3.509465 1.734887 -1.774578
1234.5390625 3.250639 1.569681 -1.680958
1234.95703125 3.4561260000000003 1.640676 -1.81545
1235.3515625 3.264457 1.606852 -1.657605
1235.83203125 3.265717 1.60589 -1.659827
1236.8125 3.356877 1.72429 -1.632587
1237.7734375 3.244548 1.634762 -1.609786
1238.46484375 3.2269300000000003 1.633532 -1.593398
1238.98828125 3.2204439999999996 1.628766 -1.591678
1239.93359375 3.199747 1.681968 -1.517779
1240.96484375 3.241294 1.669393 -1.571901
1241.92578125 3.356618 1.669084 -1.687534
1242.46484375 3.149253 1.499197 -1.650056
1242.859375 3.203639 1.439388 -1.764251
1243.734375 3.1455640000000002 1.570472 -1.575092
1244.6953125 3.2604990000000003 1.63593 -1.624569
1245.61328125 3.2196379999999998 1.614954 -1.604684
1246.53515625 3.048112 1.467154 -1.580958
1247.4453125 3.06855 1.500632 -1.567918
1248.34765625 3.256468 1.556155 -1.700313
1249.2265625 3.173829 1.484816 -1.689013
1249.83203125 3.1710900000000004 1.487367 -1.683723
1250.2734375 3.123358 1.35125 -1.772108
1251.3046875 3.0512740000000003 1.48069 -1.570584
1252.2578125 3.1378519999999996 1.498943 -1.638909
1253.20703125 3.0505649999999997 1.428849 -1.621716
1254.15625 3.00327 1.40433 -1.59894
1255.10546875 3.0898139999999996 1.524814 -1.565
1256.046875 2.9636959999999997 1.46 -1.503696
1256.99609375 3.245415 1.514438 -1.730977
1257.9296875 3.162239 1.539866 -1.622373
1258.84765625 3.094691 1.599873 -1.494818
1259.7734375 3.112555 1.591929 -1.520626
1260.7421875 3.311349 1.616667 -1.694682
1261.65625 3.2613060000000003 1.596521 -1.664785
1262.3203125 3.1534709999999997 1.557466 -1.596005
1263.41015625 3.135047 1.626561 -1.508486
1264.3359375 3.205095 1.633508 -1.571587
1265.22265625 3.315417 1.50885 -1.806567
1265.99609375 3.164627 1.52511 -1.639517
1266.93359375 3.217261 1.636702 -1.580559
1267.828125 3.3293749999999998 1.644375 -1.685
1268.6953125 3.3867279999999997 1.598144 -1.788584
1269.55859375 3.332058 1.565 -1.767058
1270.4140625 3.489144 1.651688 -1.837456
1271.2421875 3.402822 1.614532 -1.78829
1272.078125 3.286506 1.573306 -1.7132
1272.86328125 3.397512 1.58 -1.817512
1273.34375 3.378546 1.501406 -1.87714
1274.2734375 3.318143 1.698878 -1.619265
1275.22265625 3.455058 1.672582 -1.782476
1276.16015625 3.4650499999999997 1.695 -1.77005
1277.078125 3.4861779999999998 1.738908 -1.74727
1277.9921875 3.3819749999999997 1.686201 -1.695774
1278.93359375 3.5078329999999998 1.763948 -1.743885
1279.859375 3.371158 1.694421 -1.676737
1280.765625 3.449665 1.712276 -1.737389
1281.65625 3.431314 1.730064 -1.70125
1282.57421875 3.49388 1.757386 -1.736494
1283.47265625 3.543958 1.706766 -1.837192
1284.37109375 3.467783 1.691647 -1.776136
1285.28125 3.463102 1.711462 -1.75164
1286.1875 3.5057679999999998 1.679144 -1.826624
1287.10546875 3.5349890000000004 1.674989 -1.86
1287.98828125 3.461074 1.658221 -1.802853
1288.90234375 3.548288 1.724732 -1.823556
1289.8125 3.517738 1.702391 -1.815347
1290.6640625 3.4860759999999997 1.643989 -1.842087
1291.5546875 3.4703799999999996 1.625711 -1.844669
1292.44140625 3.4850849999999998 1.650604 -1.834481
1293.32421875 3.424728 1.65819 -1.766538
1294.20703125 3.471141 1.704284 -1.766857
1295.078125 3.579496 1.671968 -1.907528
1295.98046875 3.412319 1.669698 -1.742621
1296.8828125 3.4156839999999997 1.672173 -1.743511
1297.7578125 3.587485 1.688291 -1.899194
1298.640625 3.4516109999999998 1.64022 -1.811391
1299.2578125 3.496458 1.631582 -1.864876
1300.30859375 3.507756 1.678878 -1.828878
1301.2265625 3.5557790000000002 1.720779 -1.835
1302.16015625 3.4562470000000003 1.681716 -1.774531
1303.05078125 3.449947 1.663707 -1.78624
1303.93359375 3.5766980000000004 1.687642 -1.889056
1304.828125 3.595339 1.686447 -1.908892
1305.70703125 3.605108 1.675542 -1.929566
1306.59765625 3.475368 1.656635 -1.818733
1307.48046875 3.704912 1.764912 -1.94
1308.37890625 3.673263 1.732341 -1.940922
1309.29296875 3.539606 1.668835 -1.870771
1310.17578125 3.690417 1.742831 -1.947586
1311.078125 3.64182 1.768764 -1.873056
1311.984375 3.550636 1.750351 -1.800285
1312.9140625 3.806465 1.784181 -2.022284
1313.8125 3.584821 1.705399 -1.879422
1314.69921875 3.604111 1.713173 -1.890938
1315.64453125 3.502033 1.724995 -1.777038
1316.55859375 3.766907 1.747769 -2.019138
1317.46875 3.566015 1.645566 -1.920449
1318.39453125 3.6592520000000004 1.644995 -2.014257
1319.36328125 3.561598 1.675871 -1.885727
1320.28125 3.622162 1.668696 -1.953466
1321.19921875 3.583398 1.637684 -1.945714
1322.13671875 3.629976 1.670497 -1.959479
1323.05078125 3.477494 1.679167 -1.798327
1323.984375 3.546906 1.590937 -1.955969
1324.921875 3.571105 1.636828 -1.934277
1325.8671875 3.490179 1.658056 -1.832123
1326.796875 3.648416 1.722299 -1.926117
1327.73046875 3.701635 1.641635 -2.06
1328.69140625 3.7593189999999996 1.679069 -2.08025
1329.609375 3.638381 1.647621 -1.99076
1330.5078125 3.608806 1.669411 -1.939395
1331.40234375 3.65329 1.664157 -1.989133
1332.3125 3.675119 1.721122 -1.953997
1333.20703125 3.435121 1.617042 -1.818079
1334.11328125 3.4574680000000004 1.657547 -1.799921
1335.03125 3.583157 1.738519 -1.844638
1335.9375 3.5033070000000004 1.65304 -1.850267
1336.84765625 3.594511 1.634282 -1.960229
1337.7734375 3.522705 1.602789 -1.919916
1338.73046875 3.679995 1.679995 -2.0
1339.640625 3.540119 1.598249 -1.94187
1340.55078125 3.5490269999999997 1.58117 -1.967857
1341.48828125 3.540643 1.636424 -1.904219
1342.421875 3.414579 1.494991 -1.919588
1343.33984375 3.468024 1.467149 -2.000875
1344.26171875 3.4972380000000003 1.533658 -1.96358
1345.1875 3.331213 1.495068 -1.836145
1346.08203125 3.370794 1.523744 -1.84705
1346.98828125 3.406382 1.457114 -1.949268
1347.90625 3.1957950000000004 1.382575 -1.81322
1348.8125 3.470177 1.552402 -1.917775
1349.7265625 3.3148470000000003 1.490869 -1.823978
1350.625 3.414771 1.455 -1.959771
1351.5625 3.2988999999999997 1.435886 -1.863014
1352.46484375 3.31557 1.495921 -1.819649
1353.375 3.359863 1.5 -1.859863
1354.30859375 3.330679 1.512491 -1.818188
1355.19140625 3.153974 1.444794 -1.70918
1355.7265625 3.163252 1.436769 -1.726483
1356.71484375 3.11676 1.466937 -1.649823
1357.6171875 3.161155 1.472248 -1.688907
1358.4921875 3.18734 1.448143 -1.739197
1359.34375 3.1908589999999997 1.463012 -1.727847
1360.265625 3.233512 1.537756 -1.695756
1361.1875 3.150649 1.488276 -1.662373
1362.06640625 3.2379249999999997 1.46691 -1.771015
1362.9609375 3.258842 1.454257 -1.804585
1363.87109375 3.070284 1.4 -1.670284
1364.76953125 3.070445 1.415587 -1.654858
1365.65234375 3.1790339999999997 1.424113 -1.754921
1366.5546875 3.2804019999999996 1.46931 -1.811092
1367.46875 3.110926 1.497154 -1.613772
1368.3671875 3.094946 1.499816 -1.59513
1369.26171875 3.216031 1.47701 -1.739021
1370.16015625 3.295463 1.490971 -1.804492
1371.0703125 3.1701829999999998 1.468175 -1.702008
1371.9609375 3.3190350000000004 1.539519 -1.779516
1372.88671875 3.374943 1.575686 -1.799257
1373.80078125 3.383209 1.541656 -1.841553
1374.68359375 3.322051 1.559906 -1.762145
1375.59375 3.3430809999999997 1.584595 -1.758486
1376.5 3.269691 1.505 -1.764691
1377.39453125 3.359718 1.529995 -1.829723
1378.2734375 3.3322599999999998 1.435 -1.89726
1379.16015625 3.240518 1.475714 -1.764804
1380.0703125 3.3462050000000003 1.505899 -1.840306
1380.96484375 3.280191 1.465542 -1.814649
1381.84765625 3.316452 1.441003 -1.875449
1382.74609375 3.304499 1.468204 -1.836295
1383.66015625 3.240193 1.440701 -1.799492
1384.55078125 3.25894 1.424056 -1.834884
1385.42578125 3.27915 1.398792 -1.880358
1386.33203125 3.095733 1.370943 -1.72479
1387.21875 3.150713 1.432879 -1.717834
1388.08984375 3.170376 1.415 -1.755376
1388.96484375 3.153222 1.364452 -1.78877
1389.83203125 2.449909 1.545734 -0.904175
1390.671875 3.04222 1.384526 -1.657694
1391.5078125 2.968131 1.374465 -1.593666
1392.33984375 3.038673 1.403259 -1.635414
1393.1875 2.9510620000000003 1.39914 -1.551922
1394.03515625 2.912452 1.378872 -1.53358
1394.89453125 3.0297859999999996 1.464929 -1.564857
1395.76953125 3.083491 1.42942 -1.654071
1396.6015625 3.132982 1.472471 -1.660511
1397.546875 3.0801619999999996 1.457299 -1.622863
1398.42578125 3.1001079999999996 1.460457 -1.639651
1399.34765625 3.149291 1.488796 -1.660495
1400.2421875 3.138559 1.447062 -1.691497
1401.109375 3.070641 1.477764 -1.592877
1402.00390625 3.048035 1.444615 -1.60342
1402.8984375 3.0613409999999996 1.477593 -1.583748
1403.7890625 3.2081739999999996 1.479887 -1.728287
1404.671875 3.201402 1.50618 -1.695222
1405.578125 3.09155 1.483518 -1.608032
1406.48828125 3.150151 1.463166 -1.686985
1407.3828125 3.0426770000000003 1.428797 -1.61388
1408.2734375 3.059294 1.439384 -1.61991
1409.15625 2.854233 1.579505 -1.274728
1410.03125 3.340376 1.515396 -1.82498
1410.87109375 3.194929 1.505986 -1.688943
1411.7265625 3.1664630000000002 1.479015 -1.687448
1412.6015625 2.983632 1.42366 -1.559972
1413.453125 3.160258 1.399919 -1.760339
1414.3046875 3.075523 1.343466 -1.732057
1415.16015625 3.075849 1.383451 -1.692398
1416.046875 3.081518 1.428362 -1.653156
1416.9296875 3.179665 1.479118 -1.700547
1417.79296875 3.146051 1.393863 -1.752188
1418.703125 3.203672 1.4374 -1.766272
1419.625 3.20472 1.47 -1.73472
1420.16015625 3.219482 1.411528 -1.807954
1420.6171875 3.152351 1.307618 -1.844733
1421.453125 3.160825 1.414744 -1.746081
1422.578125 3.1271459999999998 1.482128 -1.645018
1423.55078125 3.083875 1.461066 -1.622809
1424.47265625 3.215357 1.476821 -1.738536
1425.4140625 3.141578 1.459422 -1.682156
1426.33203125 3.12793 1.452041 -1.675889
1427.234375 3.167407 1.486748 -1.680659
1428.1328125 3.179031 1.416236 -1.762795
1429.03125 3.2429430000000004 1.425 -1.817943
1429.91015625 3.11254 1.385455 -1.727085
1430.79296875 3.061274 1.399403 -1.661871
1431.734375 3.2324010000000003 1.452796 -1.779605
1432.62109375 3.225602 1.419795 -1.805807
1433.49609375 3.212368 1.441451 -1.770917
1434.40625 3.105117 1.427147 -1.67797
1435.3203125 3.157518 1.462541 -1.694977
1436.20703125 3.347461 1.477699 -1.869762
1437.07421875 3.301218 1.445725 -1.855493
1437.98046875 3.144869 1.429869 -1.715
1438.8515625 3.1525619999999996 1.394618 -1.757944
1439.703125 3.1356010000000003 1.424887 -1.710714
1440.2265625 3.193201 1.202144 -1.991057
1441.1953125 3.1698120000000003 1.384282 -1.78553
1442.07421875 3.5815850000000005 1.489476 -2.092109
1442.91015625 3.4924530000000003 1.694577 -1.797876
1443.734375 3.339024 1.742759 -1.596265
1444.59765625 3.1563299999999996 1.86716 -1.28917
1445.4296875 3.1403480000000004 1.783962 -1.356386
1446.23828125 3.28201 1.704166 -1.577844
1447.06640625 3.2377510000000003 1.63842 -1.599331
1447.92578125 3.140861 1.648148 -1.492713
1448.78515625 3.254551 1.660206 -1.594345
1449.625 3.189903 1.535 -1.654903
1450.484375 3.082577 1.475233 -1.607344
1451.33984375 3.132021 1.608373 -1.523648
1452.18359375 3.016555 1.631792 -1.384763
1453.03125 3.120057 1.555308 -1.564749
1453.87890625 3.310686 1.451068 -1.859618
1454.72265625 3.1695770000000003 1.496863 -1.672714
1455.54296875 3.127026 1.564815 -1.562211
1456.359375 3.2724770000000003 1.603502 -1.668975
1457.21484375 3.281274 1.548664 -1.73261
1458.04296875 3.161731 1.49845 -1.663281
1458.84765625 3.173094 1.581416 -1.591678
1459.6796875 3.110337 1.500754 -1.609583
1460.5078125 3.263419 1.618062 -1.645357
1461.37890625 3.197138 1.57849 -1.618648
1462.23828125 3.231919 1.61267 -1.619249
1463.10546875 3.149995 1.599995 -1.55
1464.00390625 3.227294 1.633015 -1.594279
1464.875 3.349697 1.66 -1.689697
1465.7421875 3.264851 1.632518 -1.632333
1466.625 3.077582 1.585 -1.492582
1467.52734375 3.31696 1.656209 -1.660751
1468.39453125 3.319453 1.629936 -1.689517
1469.265625 3.2231259999999997 1.627506 -1.59562
1470.1640625 3.1978 1.654302 -1.543498
1471.0390625 3.2571149999999998 1.724357 -1.532758
1471.8984375 3.220198 1.663386 -1.556812
1472.7578125 3.22097 1.63659 -1.58438
1473.640625 3.1494850000000003 1.585406 -1.564079
1474.5234375 3.1921410000000003 1.434422 -1.757719
1475.39453125 3.33864 1.434774 -1.903866
1476.26171875 3.1536359999999997 1.347184 -1.806452
1477.13671875 2.9339399999999998 1.398234 -1.535706
1477.98046875 3.139667 1.339667 -1.8
1478.828125 3.182484 1.294645 -1.887839
1479.6640625 2.998444 1.279632 -1.718812
1480.54296875 3.0556910000000004 1.407191 -1.6485
1481.38671875 3.230297 1.390961 -1.839336
1482.19921875 3.219372 1.343423 -1.875949
1483.0546875 3.32666 1.470092 -1.856568
1483.91015625 3.2086319999999997 1.5064 -1.702232
1484.7421875 3.100899 1.431332 -1.669567
1485.6015625 3.287795 1.495518 -1.792277
1486.2265625 3.1727160000000003 1.46967 -1.703046
1487.25 3.164789 1.59 -1.574789
1488.125 3.086615 1.525 -1.561615
1488.97265625 3.211186 1.52814 -1.683046
1489.8515625 3.1526569999999996 1.516903 -1.635754
1490.71875 3.025028 1.507391 -1.517637
1491.5625 3.133503 1.559921 -1.573582
1492.421875 3.272146 1.530133 -1.742013
1493.3203125 3.1991389999999997 1.479274 -1.719865
1494.19140625 3.1238349999999997 1.482928 -1.640907
1495.0625 3.016379 1.415529 -1.60085
1495.9609375 3.1248240000000003 1.414957 -1.709867
1496.83984375 3.209785 1.449062 -1.760723
1497.703125 3.260233 1.493412 -1.766821
1498.5859375 3.1184060000000002 1.379056 -1.73935
1499.4765625 3.0626040000000003 1.369618 -1.692986
1500.359375 3.0437909999999997 1.311523 -1.732268
1501.23046875 3.1349340000000003 1.364934 -1.77
1502.12109375 3.1013080000000004 1.403234 -1.698074
1503.02734375 3.069852 1.379121 -1.690731
1503.89453125 3.1130560000000003 1.329752 -1.783304
1504.7890625 3.056196 1.312213 -1.743983
1505.6875 2.95865 1.352188 -1.606462
1506.5859375 3.149635 1.384789 -1.764846
1507.46484375 3.1511620000000002 1.377683 -1.773479
1508.32421875 3.103407 1.414328 -1.689079
1509.24609375 3.107141 1.457568 -1.649573
1510.125 3.1748390000000004 1.465 -1.709839
1510.96484375 3.18901 1.390217 -1.798793
1511.81640625 3.020534 1.353097 -1.667437
1512.6953125 3.089568 1.45 -1.639568
1513.5546875 3.0954379999999997 1.398896 -1.696542
1514.41015625 3.126637 1.357601 -1.769036
1515.296875 3.064277 1.35973 -1.704547
1516.1796875 3.0088660000000003 1.35857 -1.650296
1517.05078125 3.0330139999999997 1.34052 -1.692494
1517.92578125 3.1672029999999998 1.341411 -1.825792
1518.80078125 3.2656609999999997 1.394887 -1.870774
1519.6875 3.041454 1.366549 -1.674905
1520.546875 3.264717 1.426536 -1.838181
1521.40234375 3.24598 1.389538 -1.856442
1522.27734375 3.231809 1.347881 -1.883928
1523.12890625 3.168295 1.343677 -1.824618
1523.984375 3.293851 1.467623 -1.826228
1524.8515625 3.2905059999999997 1.449449 -1.841057
1525.73828125 3.305812 1.435366 -1.870446
1526.59765625 3.274662 1.481798 -1.792864
1527.44921875 3.2562249999999997 1.543034 -1.713191
1528.34765625 3.434117 1.583898 -1.850219
1529.23046875 3.504919 1.604919 -1.9
1530.0859375 3.479717 1.664909 -1.814808
1530.96484375 3.340275 1.603103 -1.737172
1531.8515625 3.380281 1.590741 -1.78954
1532.7265625 3.354133 1.574618 -1.779515
1533.5859375 3.608171 1.654306 -1.953865
1534.4609375 3.492762 1.648992 -1.84377
1535.33984375 3.4002790000000003 1.678259 -1.72202
1536.18359375 2.697784 1.717472 -0.980312
1537.01953125 3.283581 1.699849 -1.583732
1537.8515625 3.364878 1.589878 -1.775
1538.6953125 3.4955600000000002 1.680012 -1.815548
1539.5 3.494644 1.665 -1.829644
1540.015625 3.4650410000000003 1.516509 -1.948532
1540.98046875 3.511697 1.676697 -1.835
1541.80078125 3.574454 1.65176 -1.922694
1542.62109375 3.431863 1.623339 -1.808524
1543.1328125 3.55108 1.604159 -1.946921
1544.09765625 3.320195 1.721623 -1.598572
1544.9765625 3.453824 1.753824 -1.7
1545.8359375 3.553143 1.734173 -1.81897
1546.6796875 3.5776700000000003 1.796704 -1.780966
1547.5703125 3.414396 1.784498 -1.629898
1548.453125 3.535426 1.838563 -1.696863
1549.30078125 3.3634079999999997 1.712041 -1.651367
1549.9296875 3.5063779999999998 1.69165 -1.814728
1550.42578125 3.5594159999999997 1.660826 -1.89859
1551.453125 3.5248169999999996 1.782546 -1.742271
1552.41015625 3.47446 1.729281 -1.745179
1553.296875 3.56316 1.737988 -1.825172
1554.2265625 3.5059839999999998 1.737709 -1.768275
1555.12890625 3.379187 1.765484 -1.613703
1556.00390625 3.3426679999999998 1.715441 -1.627227
1556.87109375 3.297451 1.693947 -1.603504
1557.734375 3.412807 1.658004 -1.754803
1558.578125 3.425445 1.669873 -1.755572
1559.41015625 3.507001 1.6455 -1.861501
1560.2734375 3.077953 1.348007 -1.729946
1561.13671875 3.394957 1.521064 -1.873893
1562.00390625 3.456542 1.672351 -1.784191
1562.875 3.554767 1.635 -1.919767
1563.734375 3.404618 1.580657 -1.823961
1564.61328125 3.510989 1.657617 -1.853372
1565.484375 3.535805 1.683604 -1.852201
1566.3515625 3.483682 1.655796 -1.827886
1567.2421875 3.3616 1.528243 -1.833357
1568.09375 3.4289709999999998 1.60831 -1.820661
1568.9609375 3.458111 1.674306 -1.783805
1569.82421875 3.504199 1.703917 -1.800282
1570.6953125 3.4680790000000004 1.719276 -1.748803
1571.55859375 3.416632 1.749855 -1.666777
1572.41015625 3.36707 1.756611 -1.610459
1573.296875 3.479391 1.77364 -1.705751
1574.1640625 3.461693 1.721693 -1.74
1575.01953125 3.397501 1.65431 -1.743191
1575.90234375 3.408132 1.686635 -1.721497
1576.78515625 3.344022 1.664391 -1.679631
1577.671875 3.529851 1.68384 -1.846011
1578.53125 3.418393 1.607875 -1.810518
1579.39453125 3.49201 1.591872 -1.900138
1580.28125 3.23871 1.529627 -1.709083
1581.16015625 3.336021 1.609277 -1.726744
1582.01171875 3.3123199999999997 1.579211 -1.733109
1582.87890625 3.232887 1.518569 -1.714318
1583.78125 3.236771 1.596246 -1.640525
1584.65625 3.184027 1.524897 -1.65913
1585.51953125 3.224002 1.489859 -1.734143
1586.43359375 3.309443 1.498169 -1.811274
1587.328125 3.2645429999999998 1.503558 -1.760985
1588.2109375 3.26967 1.544793 -1.724877
1589.1015625 3.2797520000000002 1.533415 -1.746337
1589.98046875 3.3299149999999997 1.559915 -1.77
1590.8671875 3.210519 1.523524 -1.686995
1591.7421875 3.250869 1.532614 -1.718255
1592.6328125 3.312672 1.512315 -1.800357
1593.51953125 3.1542380000000003 1.444876 -1.709362
1594.38671875 3.081299 1.461995 -1.619304
1595.26953125 3.2165670000000004 1.504995 -1.711572
1596.14453125 3.225578 1.464949 -1.760629
1597.0390625 3.1399340000000002 1.409934 -1.73
1597.90234375 3.083583 1.38904 -1.694543
1598.74609375 3.101079 1.437568 -1.663511
1599.62890625 3.075135 1.38843 -1.686705
1600.49609375 3.11814 1.389109 -1.729031
1601.36328125 3.0058670000000003 1.411952 -1.593915
1602.23046875 3.084989 1.424989 -1.66
1603.109375 3.0601380000000002 1.401932 -1.658206
1603.96875 3.181897 1.403165 -1.778732
1604.8203125 3.085376 1.392008 -1.693368
1605.71484375 3.045227 1.438136 -1.607091
1606.5859375 3.214499 1.449758 -1.764741
1607.43359375 3.206769 1.429247 -1.777522
1608.28515625 2.947364 1.368318 -1.579046
1609.14453125 2.9879059999999997 1.395583 -1.592323
1610.03125 3.1371659999999997 1.417395 -1.719771
1610.87890625 3.0723570000000002 1.429966 -1.642391
1611.7578125 2.968436 1.358436 -1.61
1612.6640625 2.837995 1.327184 -1.510811
1613.53515625 2.862912 1.30343 -1.559482
1614.421875 3.0417769999999997 1.331079 -1.710698
1615.31640625 2.939697 1.279807 -1.65989
1616.1953125 2.913029 1.341211 -1.571818
1617.078125 3.077846 1.379232 -1.698614
1617.9453125 3.120091 1.366696 -1.753395
1618.83984375 3.050324 1.292458 -1.757866
1619.73046875 2.996519 1.323308 -1.673211
1620.61328125 2.962548 1.313537 -1.649011
1621.5 3.08474 1.32 -1.76474
1622.41015625 3.165062 1.364979 -1.800083
1623.30078125 3.0520370000000003 1.384587 -1.66745
1624.18359375 3.0374540000000003 1.372592 -1.664862
1625.09375 3.137299 1.373137 -1.764162
1625.96875 3.120233 1.353095 -1.767138
1626.82421875 3.139935 1.446899 -1.693036
1627.7109375 3.143976 1.444372 -1.699604
1628.6015625 3.063164 1.365672 -1.697492
1629.46875 3.0687699999999998 1.351188 -1.717582
1630.328125 3.1023709999999998 1.422779 -1.679592
1631.2265625 3.108966 1.475 -1.633966
1632.10546875 3.194332 1.454837 -1.739495
1632.96875 3.191989 1.429671 -1.762318
1633.84375 3.278778 1.520937 -1.757841
1634.7109375 3.3232150000000003 1.54394 -1.779275
1635.58984375 3.243641 1.485529 -1.758112
1636.4609375 3.3630310000000003 1.48919 -1.873841
1637.3359375 3.2430079999999997 1.44898 -1.794028
1638.21875 3.349497 1.533955 -1.815542
1639.0703125 3.3404040000000004 1.457594 -1.88281
1639.9375 3.430481 1.5125 -1.917981
1640.80078125 3.2683619999999998 1.492314 -1.776048
1641.68359375 3.31984 1.546182 -1.773658
1642.546875 3.3459339999999997 1.518332 -1.827602
1643.40234375 3.3358980000000003 1.566422 -1.769476
1644.27734375 3.3404480000000003 1.580148 -1.7603
1645.14453125 3.4489859999999997 1.604811 -1.844175
1645.9921875 3.475093 1.563561 -1.911532
1646.83203125 3.331816 1.498183 -1.833633
1647.6953125 3.2334370000000003 1.469362 -1.764075
1648.58203125 3.253767 1.484966 -1.768801
1649.41796875 3.325275 1.497801 -1.827474
1650.2890625 3.498438 1.5645 -1.933938
1651.1640625 3.385678 1.588819 -1.796859
1652.00390625 3.293202 1.530025 -1.763177
1652.87890625 3.272512 1.470862 -1.80165
1653.73046875 3.36497 1.45997 -1.905
1654.58984375 3.475319 1.523745 -1.951574
1655.453125 3.387473 1.556043 -1.83143
1656.3046875 3.348353 1.515 -1.833353
1657.1875 3.413364 1.519512 -1.893852
1658.05078125 3.304721 1.485356 -1.819365
1658.91796875 3.281796 1.544323 -1.737473
1659.81640625 3.4856179999999997 1.609918 -1.8757
1660.703125 3.4633979999999998 1.621201 -1.842197
1661.58203125 3.3504430000000003 1.538971 -1.811472
1662.46875 3.2868649999999997 1.529139 -1.757726
1663.36328125 3.393704 1.545781 -1.847923
1664.2578125 3.567546 1.649403 -1.918143
1665.140625 3.474029 1.688443 -1.785586
1666.0234375 3.386812 1.7 -1.686812
1666.91015625 3.373099 1.663401 -1.709698
1667.80078125 3.478945 1.599512 -1.879433
1668.5546875 3.339303 1.5 -1.839303
1669.5390625 3.244306 1.589883 -1.654423
1670.4609375 3.4140490000000003 1.594543 -1.819506
1671.34765625 3.4840299999999997 1.605767 -1.878263
1672.21875 3.5401629999999997 1.627703 -1.91246
1673.08984375 3.310578 1.580091 -1.730487
1673.98828125 3.41139 1.599191 -1.812199
1674.85546875 3.376887 1.511887 -1.865
1675.69921875 3.412639 1.556122 -1.856517
1676.61328125 3.44348 1.583885 -1.859595
1677.5078125 3.3993849999999997 1.602723 -1.796662
1678.375 3.564565 1.675 -1.889565
1679.2578125 3.562882 1.646691 -1.916191
1680.15234375 3.4592650000000003 1.614103 -1.845162
1681.07421875 3.2254769999999997 1.510516 -1.714961
1681.9453125 3.2466999999999997 1.449983 -1.796717
1682.828125 3.408361 1.473466 -1.934895
1683.73828125 3.497033 1.59627 -1.900763
1684.63671875 3.390347 1.647651 -1.742696
1685.515625 3.482701 1.598014 -1.884687
1686.3984375 3.3831249999999997 1.529707 -1.853418
1687.3046875 3.319717 1.549502 -1.770215
1688.1875 3.248614 1.518222 -1.730392
1689.0625 3.3329959999999996 1.483016 -1.84998
1689.94921875 3.227522 1.454894 -1.772628
1690.80078125 3.377678 1.499171 -1.878507
1691.6640625 3.332703 1.469416 -1.863287
1692.51953125 3.349074 1.474969 -1.874105
1693.41796875 3.198314 1.429689 -1.768625
1694.2890625 3.129453 1.464714 -1.664739
1695.15625 3.153045 1.481406 -1.671639
1696.0625 3.110785 1.436582 -1.674203
1696.93359375 3.031733 1.363241 -1.668492
1697.44921875 3.099672 1.3519 -1.747772
1698.46875 3.030655 1.438065 -1.59259
1699.35546875 2.989769 1.384769 -1.605
1700.234375 3.011651 1.344734 -1.666917
1701.1015625 2.886764 1.360202 -1.526562
1701.9765625 2.9671260000000004 1.430498 -1.536628
1702.8515625 2.9642049999999998 1.409405 -1.5548
1703.703125 3.005235 1.417606 -1.587629
1704.5546875 2.855403 1.370126 -1.485277
1705.43359375 2.956013 1.44343 -1.512583
1706.32421875 2.9841189999999997 1.451621 -1.532498
1707.1875 2.907158 1.41628 -1.490878
1708.0703125 2.92127 1.435957 -1.485313
1708.98828125 3.0188949999999997 1.494961 -1.523934
1709.8671875 2.959982 1.471003 -1.488979
1710.7265625 3.086424 1.475771 -1.610653
1711.5859375 3.10263 1.472708 -1.629922
1712.4765625 3.113174 1.533174 -1.58
1713.35546875 3.049392 1.524392 -1.525
1714.21484375 3.1866149999999998 1.555823 -1.630792
1715.109375 3.2560510000000003 1.59209 -1.663961
1716.00390625 3.048672 1.503082 -1.54559
1716.890625 3.064065 1.48426 -1.579805
1717.76953125 3.308652 1.584886 -1.723766
1718.6484375 3.165696 1.455187 -1.710509
1719.546875 3.231789 1.56251 -1.669279
1720.4375 3.161931 1.523471 -1.63846
1721.35546875 3.319947 1.604947 -1.715
1722.26953125 3.249243 1.509868 -1.739375
1723.140625 3.161487 1.542905 -1.618582
1724.04296875 3.164086 1.613615 -1.550471
1724.92578125 3.319918 1.667384 -1.652534
1725.796875 3.228181 1.623966 -1.604215
1726.66015625 3.165 1.595625 -1.569375
1727.54296875 3.0731640000000002 1.516402 -1.556762
1728.41796875 3.259848 1.615 -1.644848
1729.29296875 3.272162 1.536393 -1.735769
1730.17578125 3.066153 1.450154 -1.615999
1731.0703125 3.156891 1.569539 -1.587352
1731.9921875 3.3058870000000002 1.580516 -1.725371
1732.88671875 3.314706 1.514494 -1.800212
1733.7578125 3.309182 1.626292 -1.68289
1734.66015625 3.268599 1.594991 -1.673608
1735.5390625 3.324426 1.584682 -1.739744
1736.40234375 3.280381 1.564131 -1.71625
1737.28125 3.189001 1.504214 -1.684787
1738.1796875 3.134667 1.461164 -1.673503
1739.05078125 3.251799 1.522732 -1.729067
1739.90625 3.1200140000000003 1.39192 -1.728094
1740.80078125 3.296186 1.502383 -1.793803
1741.671875 3.286096 1.523203 -1.762893
1742.515625 3.2107460000000003 1.465746 -1.745
1743.3828125 3.1805760000000003 1.450088 -1.730488
1744.2421875 3.1565139999999996 1.448365 -1.708149
1745.125 3.324943 1.555 -1.769943
1746.0 3.270686 1.52 -1.750686
1746.859375 3.3342039999999997 1.557705 -1.776499
1747.7421875 3.286981 1.568787 -1.718194
1748.6171875 3.284313 1.590907 -1.693406
1749.4921875 3.358349 1.605575 -1.752774
1750.3671875 3.3414140000000003 1.583261 -1.758153
1751.265625 3.294136 1.573854 -1.720282
1752.15234375 3.321031 1.594119 -1.726912
1753.03125 3.4668409999999996 1.606024 -1.860817
1753.95703125 3.421089 1.579025 -1.842064
1754.8359375 3.4022680000000003 1.622273 -1.779995
1755.70703125 3.287946 1.557894 -1.730052
1756.5859375 3.306905 1.558995 -1.74791
1757.45703125 3.3767899999999997 1.565898 -1.810892
1758.3359375 3.038941 1.814309 -1.224632
1759.18359375 3.329617 1.58904 -1.740577
1760.04296875 3.578097 1.616158 -1.961939
1760.90234375 3.429368 1.554873 -1.874495
1761.73828125 3.460585 1.654552 -1.806033
1762.59375 3.5475060000000003 1.676557 -1.870949
1763.44921875 3.576607 1.646742 -1.929865
1764.33203125 3.5267160000000004 1.640624 -1.886092
1765.19921875 3.3410789999999997 1.553095 -1.787984
1766.05859375 3.504227 1.648423 -1.855804
1766.9609375 3.635198 1.749147 -1.886051
1767.84375 3.589531 1.744082 -1.845449
1768.37109375 3.4717789999999997 1.608212 -1.863567
1769.40625 3.4545760000000003 1.782221 -1.672355
1770.32421875 3.4245039999999998 1.689193 -1.735311
1771.23046875 3.4897910000000003 1.699791 -1.79
1772.125 3.594692 1.78 -1.814692
1773.05078125 3.463437 1.812749 -1.650688
1773.94140625 3.5273130000000004 1.732803 -1.79451
1774.80078125 3.679491 1.757368 -1.922123
1775.68359375 3.6248009999999997 1.739905 -1.884896
1776.546875 3.599284 1.752274 -1.84701
1777.44140625 3.6345609999999997 1.763846 -1.870715
1778.3046875 3.585658 1.733918 -1.85174
1779.16015625 3.500155 1.691282 -1.808873
1780.046875 3.5840810000000003 1.697464 -1.886617
1780.92578125 3.512207 1.663642 -1.848565
1781.796875 3.7252229999999997 1.733606 -1.991617
1782.6640625 3.616482 1.669269 -1.947213
1783.56640625 3.6952499999999997 1.779674 -1.915576
1784.45703125 3.558417 1.783424 -1.774993
1785.328125 3.6117369999999998 1.823412 -1.788325
1786.23046875 3.7511330000000003 1.806133 -1.945
1786.7421875 3.5384279999999997 1.75463 -1.783798
1787.74609375 3.576454 1.816061 -1.760393
1788.65625 3.605747 1.707281 -1.898466
1789.55078125 3.503388 1.725763 -1.777625
1790.4609375 3.447788 1.712809 -1.734979
1791.359375 3.553715 1.796454 -1.757261
1792.2578125 3.489237 1.743046 -1.746191
1793.1640625 3.4085710000000002 1.70498 -1.703591
1793.71875 3.409077 1.581389 -1.827688
1794.7421875 3.377535 1.683051 -1.694484
1795.6875 3.341482 1.639474 -1.702008
1796.61328125 3.365525 1.597202 -1.768323
1797.4765625 3.2186820000000003 1.537928 -1.680754
1798.34765625 3.325821 1.536287 -1.789534
1799.23828125 3.304213 1.537009 -1.767204
1800.09765625 3.369799 1.557122 -1.812677
1800.9453125 3.3702959999999997 1.64 -1.730296
1801.80859375 3.369968 1.60825 -1.761718
1802.6875 3.147679 1.504687 -1.642992
1803.55078125 3.138394 1.471373 -1.667021
1804.40234375 3.264895 1.570679 -1.694216
