4.2109375 4.447932 1.55446 -2.893472
4.53125 3.7713200000000002 0.826906 -2.944414
5.04296875 4.409638 1.45563 -2.954008
5.37890625 3.98405 1.030042 -2.954008
5.875 4.255679 1.46 -2.795679
6.69921875 3.9781750000000002 1.334071 -2.644104
7.55859375 3.66234 1.036445 -2.625895
8.41796875 4.203994 1.28529 -2.918704
9.28515625 4.180515 1.447262 -2.733253
10.16796875 3.8257079999999997 1.106126 -2.719582
11.01953125 4.093185999999999 1.345602 -2.747584
11.84375 4.315184 1.524902 -2.790282
12.65625 4.41363 1.787549 -2.626081
13.48828125 4.6239349999999995 1.972808 -2.651127
14.35546875 4.2207 1.521969 -2.698731
15.24609375 3.609059 1.474268 -2.134791
16.12109375 3.18202 1.279992 -1.902028
16.9609375 4.268606 1.719288 -2.549318
17.7890625 4.107514 1.714653 -2.392861
18.6328125 4.076855 1.778921 -2.297934
19.47265625 4.062443999999999 1.829087 -2.233357
20.3203125 3.566942 1.695261 -1.871681
21.203125 3.403562 1.256961 -2.146601
22.0703125 3.669061 1.389485 -2.279576
22.92578125 3.9046269999999996 1.487636 -2.416991
23.7421875 4.35848 1.963196 -2.395284
24.55859375 4.4283660000000005 1.92819 -2.500176
25.390625 3.605143 1.65678 -1.948363
26.27734375 3.318296 1.488296 -1.83
27.1640625 3.986085 1.430805 -2.55528
28.01953125 3.654245 1.719604 -1.934641
28.8828125 3.7614739999999998 1.484412 -2.277062
29.69921875 3.580617 1.527785 -2.052832
30.53125 3.723408 1.655385 -2.068023
31.36328125 3.513031 1.559947 -1.953084
32.23046875 4.002362 1.322953 -2.679409
33.09765625 3.0141359999999997 1.779199 -1.234937
33.9921875 2.80317 1.918509 -0.884661
34.84375 3.979911 2.033391 -1.94652
35.65234375 4.563104 2.037794 -2.52531
36.4765625 4.4960629999999995 2.564063 -1.932
37.30078125 3.912511 2.787902 -1.124609
38.17578125 3.703035 2.789771 -0.913264
39.0703125 3.83479 2.780919 -1.053871
39.9453125 3.7675140000000003 2.683919 -1.083595
40.7890625 4.231369 2.569953 -1.661416
41.6328125 3.74442 2.136951 -1.607469
42.4609375 3.70746 1.788424 -1.919036
43.27734375 2.859118 1.90723 -0.951888
44.12890625 3.138165 1.726307 -1.411858
45.0078125 3.676502 1.618816 -2.057686
45.88671875 2.4797190000000002 1.603067 -0.876652
46.75390625 4.196671 1.563543 -2.633128
47.5703125 3.214631 1.592819 -1.621812
48.3828125 3.919385 1.574821 -2.344564
49.23828125 3.2800659999999997 1.446264 -1.833802
50.10546875 2.973919 1.49347 -1.480449
50.98828125 3.47121 1.244725 -2.226485
51.84765625 3.1607130000000003 1.621785 -1.538928
52.703125 3.0743840000000002 1.344327 -1.730057
53.53515625 4.013066 1.702218 -2.310848
54.3671875 3.054505 1.77475 -1.279755
55.1953125 4.0844000000000005 1.715324 -2.369076
56.02734375 2.8868099999999997 1.67681 -1.21
56.93359375 3.450141 1.233361 -2.21678
57.8046875 3.9352479999999996 1.73057 -2.204678
58.65625 3.7332710000000002 1.708558 -2.024713
59.48046875 4.334647 1.944793 -2.389854
60.30859375 4.5745450000000005 1.849123 -2.725422
61.140625 3.99029 1.670346 -2.319944
62.01953125 3.216144 1.43656 -1.779584
62.90234375 3.388554 1.484675 -1.903879
63.7578125 2.869676 1.857178 -1.012498
64.62109375 3.104458 1.857034 -1.247424
65.46484375 4.415976000000001 1.925052 -2.490924
66.28515625 4.414527 2.021382 -2.393145
67.10546875 4.447387 1.990821 -2.456566
67.953125 4.251043 1.796288 -2.454755
68.82421875 3.884483 1.656047 -2.228436
69.72265625 3.673688 1.43696 -2.236728
70.578125 4.397374 1.870743 -2.526631
71.40625 4.528492 1.983398 -2.545094
72.2265625 3.520758 1.668147 -1.852611
73.08203125 4.402426 1.64416 -2.758266
73.9375 4.31775 1.739375 -2.578375
74.8046875 3.586357 1.437099 -2.149258
75.6796875 4.225548 1.594009 -2.631539
76.52734375 3.517919 1.767919 -1.75
77.36328125 4.271267 1.780667 -2.4906
78.19140625 4.376799 1.848002 -2.528797
79.015625 4.202669 1.699679 -2.50299
79.85546875 4.269952 1.922143 -2.347809
80.75390625 4.05389 1.901264 -2.152626
81.6328125 3.712155 1.819819 -1.892336
82.484375 4.236985 1.930003 -2.306982
83.32421875 4.582096 1.88529 -2.696806
84.14453125 4.307029 1.884708 -2.422321
84.98046875 4.150097 1.774433 -2.375664
85.84375 3.858456 1.787735 -2.070721
86.7109375 3.901795 1.808592 -2.093203
87.57421875 3.871025 1.894514 -1.976511
88.4609375 3.764889 1.788792 -1.976097
89.12890625 3.764278 2.094585 -1.669693
89.99609375 4.685237000000001 2.303793 -2.381444
90.8125 4.064828 2.04551 -2.019318
91.65625 4.530268 1.984609 -2.545659
92.53515625 4.160957 1.759097 -2.40186
93.43359375 4.008228 1.499609 -2.508619
94.29296875 4.505956 1.973848 -2.532108
95.125 4.35854 1.855 -2.50354
95.953125 4.1836210000000005 1.848077 -2.335544
96.796875 4.357311 1.707238 -2.650073
97.640625 4.455421 1.731629 -2.723792
98.49609375 4.212419 1.81713 -2.395289
99.375 4.22227 1.95 -2.27227
100.25 3.461455 1.605 -1.856455
101.09375 4.187858 1.884474 -2.303384
101.91015625 4.390699 1.807254 -2.583445
102.72265625 4.389993 1.763234 -2.626759
103.578125 4.0696069999999995 1.60774 -2.461867
104.46875 3.917784 1.660132 -2.257652
105.3515625 4.219548 1.631863 -2.587685
106.2109375 4.372365 1.639357 -2.733008
107.05859375 4.575341 1.658147 -2.917194
107.875 4.294639 1.555 -2.739639
108.703125 4.254933 2.039213 -2.21572
109.5390625 4.060028 2.21416 -1.845868
110.40234375 4.101527 2.051527 -2.05
111.28515625 4.031052 1.795588 -2.235464
112.17578125 4.445460000000001 1.823179 -2.622281
113.015625 4.371264 1.870911 -2.500353
113.828125 4.481649 1.825974 -2.655675
114.6484375 4.163399 1.758399 -2.405
115.4921875 3.797457 1.411708 -2.385749
116.37890625 3.852101 1.375326 -2.476775
117.25390625 4.401097 1.757849 -2.643248
118.12109375 3.981489 1.747021 -2.234468
118.96484375 4.332421 1.813274 -2.519147
119.8046875 4.011464 1.770876 -2.240588
120.62890625 4.286282 1.707151 -2.579131
121.453125 3.9475689999999997 1.780965 -2.166604
122.3125 4.1764399999999995 2.043418 -2.133022
123.19140625 3.906097 1.953743 -1.952354
124.0703125 3.982269 2.139294 -1.842975
124.921875 3.856484 2.016508 -1.839976
125.74609375 3.996778 2.16432 -1.832458
126.56640625 4.32179 2.142611 -2.179179
127.4296875 3.796793 1.933025 -1.863768
128.3046875 4.070444 1.566095 -2.504349
129.16796875 4.023193 1.551578 -2.471615
130.0234375 3.788876 1.237519 -2.551357
130.87109375 3.450309 1.392934 -2.057375
131.703125 4.0481560000000005 1.759007 -2.289149
132.53125 4.052706 2.105257 -1.947449
133.36328125 4.132836 2.506714 -1.626122
134.21484375 3.224423 2.411032 -0.813391
135.125 3.330397 1.94 -1.390397
135.99609375 3.5315019999999997 1.769436 -1.762066
136.82421875 3.51075 1.954285 -1.556465
137.65625 3.890733 1.934489 -1.956244
138.48046875 4.106709 1.709185 -2.397524
139.3203125 3.434135 1.451614 -1.982521
140.19140625 3.674934 1.637829 -2.037105
141.0703125 3.667221 1.736771 -1.93045
141.93359375 3.788467 1.872195 -1.916272
142.8046875 4.058761 1.819698 -2.239063
143.625 2.957812 1.635 -1.322812
144.4375 3.9338699999999998 1.773394 -2.160476
145.265625 3.020239 1.650284 -1.369955
146.125 3.578834 1.455 -2.123834
147.0078125 3.054427 1.731607 -1.32282
147.90234375 4.233077 1.636856 -2.596221
148.75390625 3.852431 1.740556 -2.111875
149.56640625 3.126681 1.676244 -1.450437
150.41015625 3.7983520000000004 1.629033 -2.169319
151.24609375 3.102618 1.654425 -1.448193
152.1015625 3.962681 1.817481 -2.1452
152.96875 3.414251 1.973359 -1.440892
153.84375 3.360281 1.965602 -1.394679
154.69921875 3.8993510000000002 1.793715 -2.105636
155.54296875 3.439077 1.213719 -2.225358
156.35546875 3.7666690000000003 1.493921 -2.272748
157.16796875 3.9296800000000003 2.008578 -1.921102
158.0390625 3.474273 2.264273 -1.21
158.93359375 3.753339 2.12953 -1.623809
159.8125 3.229987 2.148732 -1.081255
160.66015625 3.470084 2.191139 -1.278945
161.4921875 4.333162 2.173337 -2.159825
162.31640625 3.855051 1.922716 -1.932335
163.15625 3.164327 1.690496 -1.473831
164.0078125 3.8215010000000005 1.557994 -2.263507
164.8671875 3.144336 1.736836 -1.4075
165.7578125 3.6950000000000003 1.430765 -2.264235
166.625 4.053653 1.775 -2.278653
167.44921875 3.147307 1.651691 -1.495616
168.26171875 4.155986 1.64386 -2.512126
169.08984375 3.285438 1.713948 -1.57149
169.9453125 3.211413 1.506303 -1.70511
170.84375 3.75108 1.480227 -2.270853
171.71484375 2.8746549999999997 1.411481 -1.463174
172.5703125 3.450892 1.451047 -1.999845
173.40234375 3.7537969999999996 1.553707 -2.20009
174.2421875 3.685714 1.620212 -2.065502
175.07421875 4.105208 1.616721 -2.488487
175.9140625 2.933916 1.307774 -1.626142
176.78515625 3.261279 1.355017 -1.906262
177.65625 3.1021419999999997 1.437142 -1.665
178.5234375 3.303396 1.568396 -1.735
179.36328125 3.888483 1.698868 -2.189615
180.1796875 4.02098 1.910761 -2.110219
181.0 3.209793 1.765 -1.444793
181.875 3.917736 1.545 -2.372736
182.76171875 4.124293 1.570235 -2.554058
183.62890625 3.8766309999999997 1.385531 -2.4911
184.48046875 4.672000000000001 2.069608 -2.602392
185.3125 4.492077 2.085263 -2.406814
186.13671875 4.221659000000001 2.141935 -2.079724
186.9765625 4.600571 2.105299 -2.495272
187.82421875 4.5436250000000005 1.976997 -2.566628
188.68359375 4.213281 1.895824 -2.317457
189.578125 4.084899 1.789163 -2.295736
190.44140625 4.411662 1.833848 -2.577814
191.26953125 4.568791 1.854812 -2.713979
192.0859375 4.515904 1.905973 -2.609931
192.91796875 4.623753000000001 1.893504 -2.730249
193.77734375 4.717283 1.921358 -2.795925
194.66796875 4.269856 1.842114 -2.427742
195.54296875 4.177892 1.587692 -2.5902
196.390625 4.409602 1.75375 -2.655852
197.234375 4.42845 1.634519 -2.793931
198.06640625 4.379607999999999 1.904486 -2.475122
198.89453125 4.671248 2.094692 -2.576556
199.7265625 4.23383 1.870172 -2.363658
200.60546875 3.834968 1.789995 -2.044973
201.484375 3.7597959999999997 1.686727 -2.073069
202.359375 3.933915 1.855337 -2.078578
203.19140625 3.912709 1.847709 -2.065
204.0078125 4.364423 1.945446 -2.418977
204.84375 3.9277239999999995 1.762109 -2.165615
205.7109375 3.543085 1.810584 -1.732501
206.5859375 3.720542 1.818405 -1.902137
207.44921875 4.336508 1.849444 -2.487064
208.3203125 4.385019 1.92013 -2.464889
209.15234375 4.138877 1.990965 -2.147912
209.984375 3.830553 1.933238 -1.897315
210.8046875 3.16004 1.797342 -1.362698
211.6328125 4.1049999999999995 1.790554 -2.314446
212.515625 3.7990579999999996 1.547902 -2.251156
213.4140625 3.783685 1.81498 -1.968705
214.28515625 3.292678 1.801254 -1.491424
215.11328125 4.3707840000000004 1.975911 -2.394873
215.9375 3.412444 1.88 -1.532444
216.7578125 2.964303 1.667441 -1.296862
217.61328125 3.905162 1.55842 -2.346742
218.48046875 3.807327 1.229114 -2.578213
219.34765625 3.1017289999999997 1.624379 -1.47735
220.21484375 3.938904 2.293334 -1.64557
221.08203125 3.9303660000000002 2.257415 -1.672951
221.8984375 3.517775 1.875057 -1.642718
222.70703125 2.892655 2.142761 -0.749894
223.54296875 3.0855550000000003 2.252609 -0.832946
224.41015625 3.877187 2.003493 -1.873694
225.30859375 3.518542 2.003542 -1.515
226.18359375 2.652979 2.301565 -0.351414
227.02734375 3.923857 2.215029 -1.708828
227.84765625 4.116431 2.25999 -1.856441
228.69140625 3.095559 2.088413 -1.007146
229.52734375 3.039151 2.164151 -0.875
230.390625 3.399798 1.510768 -1.88903
231.2578125 2.728398 1.845148 -0.88325
232.12109375 3.0588490000000004 1.977402 -1.081447
232.9765625 4.073605 2.120513 -1.953092
233.80859375 2.960653 2.042672 -0.917981
234.62890625 4.154581 1.923276 -2.231305
235.45703125 3.322579 1.657873 -1.664706
236.34765625 3.083532 1.427812 -1.65572
237.23828125 3.892914 1.320888 -2.572026
238.08984375 2.364156 1.491416 -0.87274
238.9375 2.780523 1.597348 -1.183175
239.75390625 3.968602 1.330346 -2.638256
240.58203125 3.740617 1.415406 -2.325211
241.42578125 3.126891 1.630527 -1.496364
242.2890625 4.125912 1.764139 -2.361773
243.15234375 2.657108 1.677108 -0.98
244.05859375 3.746081 1.427569 -2.318512
244.890625 2.467844 1.522844 -0.945
245.703125 3.281501 1.387305 -1.894196
246.5234375 3.4184409999999996 1.788441 -1.63
247.35546875 4.165996 2.139757 -2.026239
248.234375 3.3385629999999997 2.321531 -1.017032
249.1328125 2.852214 2.019227 -0.832987
250.0 4.284022 1.875 -2.409022
250.83984375 3.187284 1.704784 -1.4825
251.67578125 3.224141 1.752394 -1.471747
252.5 3.69299 1.905 -1.78799
253.328125 3.113365 1.639138 -1.474227
254.1875 3.7340290000000005 1.446325 -2.287704
255.05859375 3.019034 1.828854 -1.19018
255.94140625 3.432019 1.686281 -1.745738
256.8046875 4.053609 1.807482 -2.246127
257.62890625 4.12373 1.690245 -2.433485
258.4375 3.09166 1.685575 -1.406085
259.2890625 3.6281749999999997 1.611652 -2.016523
259.96875 3.496195 1.529141 -1.967054
260.91015625 3.831329 1.849653 -1.981676
261.76953125 4.14556 1.829885 -2.315675
262.62890625 4.016307 1.748261 -2.268046
263.45703125 4.427983 1.762278 -2.665705
264.28515625 4.241238 1.477938 -2.7633
265.1171875 3.901189 1.25495 -2.646239
265.94921875 3.717239 1.315622 -2.401617
266.84375 3.319305 1.185011 -2.134294
267.734375 4.057486 1.862955 -2.194531
268.58984375 4.20946 1.924847 -2.284613
269.4140625 4.331497 1.8152 -2.516297
270.234375 4.316134 1.769804 -2.54633
271.0703125 4.051731 1.427013 -2.624718
271.9296875 2.899179 1.537378 -1.361801
272.80859375 3.6362829999999997 1.248998 -2.387285
273.671875 4.082192 1.698043 -2.384149
274.53125 4.095449 1.703354 -2.392095
275.37890625 4.576012 1.964807 -2.611205
276.19921875 3.4399170000000003 1.789427 -1.65049
277.01953125 4.004294 1.405716 -2.598578
277.8671875 3.6394660000000005 1.338294 -2.301172
278.7421875 3.1012009999999997 1.2953 -1.805901
279.63671875 3.988398 1.483396 -2.505002
280.4921875 3.812093 1.620074 -2.192019
281.328125 4.051112 1.694427 -2.356685
282.14453125 3.803443 1.639984 -2.163459
283.0 3.765626 1.46 -2.305626
283.8515625 3.585763 1.688885 -1.896878
284.70703125 3.685021 1.587354 -2.097667
285.5859375 3.20604 1.329141 -1.876899
286.4375 4.363135 1.777565 -2.58557
287.28125 4.4029869999999995 1.704994 -2.697993
288.1171875 4.227986 1.778228 -2.449758
288.94140625 4.286589 1.970876 -2.315713
289.7734375 3.8315390000000003 2.011539 -1.82
290.6796875 3.587555 1.454157 -2.133398
291.55859375 3.9220560000000004 1.554108 -2.367948
292.41796875 4.0770669999999996 1.869085 -2.207982
293.24609375 4.105664 1.725888 -2.379776
294.06640625 4.468266 1.744862 -2.723404
294.8984375 4.130605 1.745605 -2.385
295.7578125 4.596026 1.945146 -2.65088
296.625 4.524213 2.1 -2.424213
297.48828125 4.453377 2.178375 -2.275002
298.36328125 3.7926979999999997 1.85211 -1.940588
299.20703125 4.341781 1.832997 -2.508784
300.02734375 4.394075 2.052467 -2.341608
300.84375 3.88638 1.856074 -2.030306
301.6953125 4.6090789999999995 1.942891 -2.666188
302.57421875 4.057644 1.884784 -2.17286
303.46875 3.6807420000000004 1.666387 -2.014355
304.33203125 4.241186 1.747017 -2.494169
305.1640625 4.621774 1.727825 -2.893949
305.984375 4.583628 1.903127 -2.680501
306.828125 3.7574069999999997 1.810857 -1.94655
307.671875 4.102679999999999 1.753133 -2.349547
308.53515625 4.150296 1.672473 -2.477823
309.42578125 3.616709 1.409057 -2.207652
310.28125 3.954421 1.609421 -2.345
311.125 4.290908 1.87 -2.420908
311.94921875 4.212905 1.842078 -2.370827
312.765625 4.591502 1.934783 -2.656719
313.61328125 4.0865469999999995 1.910807 -2.17574
314.515625 4.11745 1.924946 -2.192504
315.3984375 4.178467 1.737008 -2.441459
316.25 3.79706 1.82 -1.97706
317.08984375 4.337318 1.854184 -2.483134
317.90625 4.238174 1.906065 -2.332109
318.7421875 4.06385 1.668293 -2.395557
319.5859375 4.2476769999999995 1.771718 -2.475959
320.44921875 3.910826 2.04814 -1.862686
321.328125 3.807617 1.810003 -1.997614
322.22265625 4.123228 1.94266 -2.180568
323.05859375 4.032368 1.987736 -2.044632
323.87109375 4.372757 1.775383 -2.597374
324.69140625 4.021987 1.893053 -2.128934
325.53125 4.114536 1.861007 -2.253529
326.41796875 4.141111 1.675127 -2.465984
327.296875 4.022314 1.871402 -2.150912
328.1640625 4.068612 1.859643 -2.208969
329.0 4.201981 2.085 -2.116981
329.84375 4.123769 2.160285 -1.963484
330.66796875 4.002197 1.953809 -2.048388
331.49609375 3.6662239999999997 1.664621 -2.001603
332.36328125 3.9071629999999997 1.665844 -2.241319
333.23046875 3.736384 1.709891 -2.026493
334.109375 4.207721 1.841023 -2.366698
334.96484375 4.429996 1.961558 -2.468438
335.79296875 4.640269 1.959709 -2.68056
336.60546875 4.631727 2.089889 -2.541838
337.46484375 3.949946 1.830031 -2.119915
338.34375 3.905082 1.484116 -2.420966
339.20703125 4.098884 1.634503 -2.464381
340.078125 4.276962 1.662313 -2.614649
340.9140625 4.7862480000000005 2.0091 -2.777148
341.7421875 4.365439 1.740695 -2.624744
342.578125 4.468769 1.637293 -2.831476
343.41015625 4.587283 1.65564 -2.931643
344.265625 4.373365 1.596269 -2.777096
345.171875 4.10135 1.668396 -2.432954
346.03515625 4.28295 1.728316 -2.554634
346.87890625 4.433697 1.690187 -2.74351
347.6953125 4.495623999999999 1.64934 -2.846284
348.51953125 4.711691 1.84974 -2.861951
349.36328125 4.447701 1.835389 -2.612312
350.2421875 4.449506 1.740334 -2.709172
351.11328125 4.307548000000001 1.733501 -2.574047
351.97265625 4.441173 1.766251 -2.674922
352.8359375 4.589308 1.874371 -2.714937
353.66015625 4.563934 1.857718 -2.706216
354.4765625 4.8526 1.855879 -2.996721
355.30078125 4.324126 1.72564 -2.598486
356.1640625 4.459101 1.72639 -2.732711
357.0546875 4.528581 1.799421 -2.72916
357.9453125 4.5666519999999995 1.96612 -2.600532
358.79296875 4.699178 1.903569 -2.795609
359.609375 4.254927 1.823035 -2.431892
360.4453125 4.366581999999999 2.072463 -2.294119
361.28125 4.600979000000001 2.054025 -2.546954
362.14453125 4.499759 1.841399 -2.65836
363.01171875 4.655438999999999 1.952245 -2.703194
363.8828125 4.437639 1.761135 -2.676504
364.7421875 4.424617 1.691206 -2.733411
365.58203125 4.713008 1.838215 -2.874793
366.3984375 4.790139 1.920139 -2.87
367.21484375 4.406254 1.933375 -2.472879
368.0859375 4.219866 2.168021 -2.051845
368.98046875 3.598662 2.154653 -1.444009
369.859375 4.011724 1.655149 -2.356575
370.703125 4.320406 1.966718 -2.353688
371.53515625 4.318862 2.39 -1.928862
372.35546875 4.511843 2.444655 -2.067188
373.203125 4.316537 2.129905 -2.186632
374.046875 2.780167 2.19386 -0.586307
374.91015625 3.935732 1.669344 -2.266388
375.80078125 4.171088 1.94001 -2.231078
376.671875 4.1577 2.160259 -1.997441
377.49609375 4.201145 2.248903 -1.952242
378.30859375 3.7564660000000005 2.003277 -1.753189
379.13671875 4.197817 1.818856 -2.378961
380.0 3.2142340000000003 1.825 -1.389234
380.89453125 3.6083369999999997 1.547411 -2.060926
381.765625 4.1399989999999995 1.747007 -2.392992
382.61328125 4.512987 1.766708 -2.746279
383.44140625 3.915909 1.505578 -2.410331
384.28125 4.2156210000000005 2.156484 -2.059137
385.11328125 4.680129 2.399732 -2.280397
385.94921875 3.375032 2.44095 -0.934082
386.82421875 3.514341 2.2278 -1.286541
387.69921875 4.545656 1.897697 -2.647959
388.55859375 3.796361 1.418993 -2.377368
389.39453125 3.5782160000000003 1.869631 -1.708585
390.21875 3.737295 1.828293 -1.909002
391.04296875 4.166265 2.486099 -1.680166
391.921875 3.785821 2.489426 -1.296395
392.8125 3.105345 1.846934 -1.258411
393.6640625 4.237768 2.384885 -1.852883
394.5234375 4.4630209999999995 2.403021 -2.06
395.34765625 4.422495 2.438948 -1.983547
396.1796875 3.7950230000000005 2.487401 -1.307622
397.0234375 4.044661 2.424661 -1.62
397.8671875 4.198981 1.896911 -2.30207
398.73046875 3.144093 1.648346 -1.495747
399.625 3.056077 1.79 -1.266077
400.48828125 3.440093 1.831524 -1.608569
401.31640625 4.622794 1.828226 -2.794568
402.1328125 3.036041 1.534657 -1.501384
402.9609375 3.1417089999999996 1.803084 -1.338625
403.8203125 3.0541919999999996 1.716071 -1.338121
404.7109375 3.161171 1.755587 -1.405584
405.58984375 3.690753 1.30291 -2.387843
406.4296875 2.8346150000000003 1.625313 -1.209302
407.2734375 3.0260920000000002 1.721092 -1.305
408.1015625 4.286505999999999 1.78903 -2.497476
408.92578125 3.81676 1.906091 -1.910669
409.76171875 3.505721 1.715642 -1.790079
410.640625 2.689589 1.644281 -1.045308
411.5234375 3.011134 1.636134 -1.375
412.40234375 3.565806 1.655806 -1.91
413.234375 3.7595469999999995 2.024936 -1.734611
414.05078125 3.884278 1.765044 -2.119234
414.8828125 4.231496 1.677397 -2.554099
415.75 4.068861999999999 1.565 -2.503862
416.625 4.296844 1.73 -2.566844
417.48828125 3.905488 1.862115 -2.043373
418.359375 3.468041 2.030449 -1.437592
419.1875 3.6546900000000004 2.224565 -1.430125
420.015625 3.9657340000000003 2.328942 -1.636792
420.84375 3.640287 2.222477 -1.41781
421.6796875 3.465428 1.94725 -1.518178
422.5625 3.899345 1.547818 -2.351527
423.46484375 4.17338 1.597028 -2.576352
424.3359375 4.317029 1.88498 -2.432049
425.16015625 3.503848 1.800225 -1.703623
425.984375 4.323834 1.712559 -2.611275
426.8046875 3.878511 1.721124 -2.157387
427.66796875 3.320461 1.419526 -1.900935
428.53515625 3.4303410000000003 1.302656 -2.127685
429.40234375 3.638236 1.898236 -1.74
430.26953125 3.479352 1.760727 -1.718625
431.12890625 3.7335409999999998 1.911307 -1.822234
431.94921875 3.228261 1.819765 -1.408496
432.76171875 2.7814180000000004 1.66853 -1.112888
433.6015625 3.627107 1.553785 -2.073322
434.47265625 2.874202 1.718368 -1.155834
435.375 2.6514480000000002 1.425 -1.226448
436.23828125 3.092483 1.813763 -1.27872
437.07421875 4.001257 1.844229 -2.157028
437.89453125 2.794195 1.833827 -0.960368
438.73828125 2.614283 1.708104 -0.906179
439.578125 3.169593 1.696283 -1.47331
440.43359375 2.363366 1.86373 -0.499636
441.30859375 2.2133599999999998 1.93336 -0.28
442.1796875 2.692032 1.629302 -1.06273
443.0234375 2.653299 1.728299 -0.925
443.8515625 3.872968 1.650117 -2.222851
444.67578125 3.921671 1.689228 -2.232443
445.51953125 3.241913 1.133171 -2.108742
446.41015625 3.26564 1.462233 -1.803407
447.2890625 3.751614 1.853181 -1.898433
448.1484375 3.449191 1.873176 -1.576015
448.9921875 3.982167 1.78171 -2.200457
449.8046875 3.5477920000000003 1.605242 -1.94255
450.6328125 3.776415 1.903198 -1.873217
451.48828125 3.40771 1.868701 -1.539009
452.35546875 3.3973269999999998 1.557263 -1.840064
453.21875 3.288739 1.740212 -1.548527
454.11328125 3.7764490000000004 1.584576 -2.191873
454.953125 4.089728 1.76917 -2.320558
455.765625 4.463719 1.673906 -2.789813
456.5859375 4.252734 1.438169 -2.814565
457.41796875 4.405111 1.797912 -2.607199
458.30078125 3.9303030000000003 1.816838 -2.113465
459.1875 3.935041 1.764443 -2.170598
460.0546875 4.464062 2.056151 -2.407911
460.890625 4.52453 2.081124 -2.443406
461.734375 3.9310490000000002 2.210723 -1.720326
462.5546875 3.505306 1.992063 -1.513243
463.37890625 4.006075 1.88051 -2.125565
464.234375 2.81629 2.056734 -0.759556
465.11328125 3.292553 2.010797 -1.281756
465.9921875 2.411065 1.734113 -0.676952
466.85546875 3.773077 1.799814 -1.973263
467.6796875 3.8381939999999997 1.796699 -2.041495
468.49609375 3.84828 1.931423 -1.916857
469.3515625 3.6665909999999995 1.625722 -2.040869
470.21484375 3.177763 1.747009 -1.430754
471.08984375 3.200184 1.875909 -1.324275
471.96484375 3.7000349999999997 1.724742 -1.975293
472.80078125 3.450373 1.639398 -1.810975
473.6328125 3.9439070000000003 1.680095 -2.263812
474.47265625 3.693332 1.83623 -1.857102
475.296875 3.399563 1.976833 -1.42273
476.140625 2.9425559999999997 1.84125 -1.101306
477.046875 3.669946 1.37696 -2.292986
477.921875 3.8808040000000004 1.709837 -2.170967
478.7734375 4.34467 1.58467 -2.76
479.58984375 4.313709 1.585633 -2.728076
480.4140625 4.45399 1.668702 -2.785288
481.25 4.338364 1.76 -2.578364
482.12890625 4.245629 1.717597 -2.528032
482.99609375 4.019325 1.432037 -2.587288
483.859375 4.215868 1.756984 -2.458884
484.7265625 4.590867 2.177305 -2.413562
485.55859375 4.359361 1.989544 -2.369817
486.37890625 4.218606 2.071343 -2.147263
487.19921875 3.976419 1.847731 -2.128688
488.05859375 4.448171 1.972613 -2.475558
488.9453125 3.531315 1.819411 -1.711904
489.83203125 3.934578 1.75193 -2.182648
490.6796875 4.050297 1.778455 -2.271842
491.5 3.670908 1.64 -2.030908
492.33203125 3.360522 1.336567 -2.023955
493.171875 4.350804 1.407068 -2.943736
494.03125 3.927872 1.488431 -2.439441
494.8984375 3.802365 1.661796 -2.140569
495.77734375 4.187048 1.966137 -2.220911
496.625 4.1326920000000005 2.19 -1.942692
497.46484375 4.0467189999999995 2.244558 -1.802161
498.28515625 4.049905 2.017518 -2.032387
499.109375 4.193598 2.087578 -2.10602
499.97265625 4.009728 1.587239 -2.422489
500.875 3.856719 1.615 -2.241719
501.75 4.138184 1.525 -2.613184
502.59375 4.175752 1.932827 -2.242925
503.42578125 3.7092650000000003 2.077121 -1.632144
504.2421875 3.581591 1.813365 -1.768226
505.08203125 4.0866050000000005 1.862632 -2.223973
505.81640625 3.6526690000000004 1.729891 -1.922778
506.73828125 3.6541569999999997 2.159757 -1.4944
507.61328125 4.028702 2.064279 -1.964423
508.48828125 3.51689 2.099732 -1.417158
509.31640625 4.124334 1.827364 -2.29697
510.125 4.201837 1.83 -2.371837
510.9453125 3.09742 1.695996 -1.401424
511.796875 4.081988 1.770654 -2.311334
512.6953125 3.7511959999999998 1.506614 -2.244582
513.57421875 3.75445 2.136392 -1.618058
514.4375 3.601581 1.994268 -1.607313
515.26171875 4.355085 2.037015 -2.31807
516.09375 3.6115880000000002 1.751466 -1.860122
516.9296875 4.103784 1.4772 -2.626584
517.765625 3.873049 1.739365 -2.133684
518.62890625 3.8095609999999995 1.72304 -2.086521
519.51171875 4.231788 1.880241 -2.351547
520.3828125 3.337281 1.877801 -1.45948
521.234375 4.409053 2.075226 -2.333827
522.046875 4.1526890000000005 2.19334 -1.959349
522.86328125 4.1235800000000005 2.285895 -1.837685
523.734375 3.6130530000000003 1.60976 -2.003293
524.6171875 4.2215300000000004 1.932873 -2.288657
525.49609375 3.849792 1.874358 -1.975434
526.3515625 4.188629 1.891093 -2.297536
527.1875 4.017458 1.787727 -2.229731
528.0078125 4.45684 1.807179 -2.649661
528.84765625 4.229244 1.783415 -2.445829
529.68359375 3.76112 1.786532 -1.974588
530.54296875 3.479167 1.888795 -1.590372
531.44140625 3.4970109999999996 1.729852 -1.767159
532.3125 4.269095999999999 2.083904 -2.185192
533.15234375 3.910043 1.786126 -2.123917
533.9609375 4.318598 1.737348 -2.58125
534.796875 3.93874 1.789996 -2.148744
535.65625 3.3307729999999998 1.592423 -1.73835
536.54296875 3.17403 1.457998 -1.716032
537.40234375 3.534605 1.774605 -1.76
538.2578125 4.005583 1.753431 -2.252152
539.10546875 3.90062 1.779746 -2.120874
539.94140625 3.8404100000000003 1.670743 -2.169667
540.76953125 4.300824 1.704675 -2.596149
541.59765625 4.136112 1.700534 -2.435578
542.46875 3.665049 1.673077 -1.991972
543.3515625 3.8251079999999997 1.609956 -2.215152
544.2265625 3.556165 1.072598 -2.483567
545.0625 3.99676 1.684578 -2.312182
545.87890625 3.3018340000000004 1.82909 -1.472744
546.7109375 3.375216 2.061324 -1.313892
547.578125 4.009087 1.993089 -2.015998
548.45703125 3.454606 1.66722 -1.787386
549.31640625 2.6559109999999997 1.410822 -1.245089
550.1796875 3.900575 1.663984 -2.236591
551.015625 3.657838 1.681797 -1.976041
551.84765625 3.539072 1.538881 -2.000191
552.66796875 3.757651 1.645806 -2.111845
553.5 3.85669 1.62 -2.23669
554.37890625 3.147798 1.197181 -1.950617
555.27734375 4.200693 2.020693 -2.18
556.1484375 3.643808 1.83247 -1.811338
556.984375 4.359291000000001 1.880929 -2.478362
557.8046875 4.02322 1.648347 -2.374873
558.62109375 4.264902 1.920795 -2.344107
559.484375 3.8486390000000004 1.900427 -1.948212
560.34765625 3.847026 1.408751 -2.438275
561.21875 3.8801479999999997 1.510271 -2.369877
562.0859375 4.157775 1.977981 -2.179794
562.94921875 3.923024 1.909931 -2.013093
563.76953125 4.514721 1.794721 -2.72
564.578125 3.938033 1.716783 -2.22125
565.41796875 3.4883040000000003 1.456174 -2.03213
566.2734375 3.1216280000000003 1.621628 -1.5
567.17578125 3.3328480000000003 1.340417 -1.992431
568.04296875 3.430644 1.462829 -1.967815
568.890625 4.039386 1.737683 -2.301703
569.7109375 3.510516 1.909711 -1.600805
570.5546875 4.1738029999999995 1.925014 -2.248789
571.38671875 3.878003 1.938816 -1.939187
572.24609375 3.407285 1.49665 -1.910635
573.12890625 3.528306 1.256393 -2.271913
573.9921875 3.2634689999999997 1.304625 -1.958844
574.83984375 4.230675 1.629383 -2.601292
575.66796875 4.368617 1.60696 -2.761657
576.484375 4.382861999999999 1.506275 -2.876587
577.3125 3.628741 1.539298 -2.089443
578.2109375 3.104575 1.348478 -1.756097
579.09765625 3.8812119999999997 1.655826 -2.225386
579.953125 2.923701 1.769845 -1.153856
580.8046875 3.751352 1.579634 -2.171718
581.62109375 3.821516 1.523154 -2.298362
582.453125 4.1781369999999995 1.62214 -2.555997
583.29296875 3.7906060000000004 1.323905 -2.466701
584.15625 3.724945 1.214945 -2.51
585.01953125 3.552256 1.735832 -1.816424
585.91796875 4.0742910000000006 1.95729 -2.117001
586.76953125 4.454507 1.897982 -2.556525
587.58203125 4.820523 2.057478 -2.763045
588.40234375 4.350983 1.872122 -2.478861
589.23046875 3.936808 1.789721 -2.147087
590.11328125 3.638139 1.731233 -1.906906
591.00390625 4.3766490000000005 1.937566 -2.439083
591.8671875 3.576654 1.834008 -1.742646
592.49609375 3.4528790000000003 1.352879 -2.1
593.3984375 4.0003340000000005 2.170334 -1.83
594.2265625 4.370682 2.141413 -2.229269
595.05078125 4.295231 2.170001 -2.12523
595.890625 3.290014 1.97853 -1.311484
596.76953125 4.341062 2.064832 -2.27623
597.65234375 3.921093 2.174313 -1.74678
598.5234375 4.745559999999999 2.24556 -2.5
599.34765625 4.189989 2.105615 -2.084374
600.16015625 4.508246 2.060397 -2.447849
601.00390625 4.291392 2.161075 -2.130317
601.8671875 4.306070999999999 2.272912 -2.033159
602.7421875 3.7022769999999996 2.025562 -1.676715
603.609375 4.087 2.087166 -1.999834
604.47265625 3.9865199999999996 2.293049 -1.693471
605.30078125 4.432211000000001 2.234128 -2.198083
606.12890625 4.022072 2.05052 -1.971552
606.953125 3.845123 1.953385 -1.891738
607.796875 3.99714 1.724314 -2.272826
608.68359375 4.035054 1.658222 -2.376832
609.57421875 3.404548 1.705 -1.699548
610.4375 4.4490169999999996 1.770566 -2.678451
611.26171875 4.4473780000000005 1.768841 -2.678537
612.0859375 4.422122 1.989286 -2.432836
612.91015625 3.693607 2.031734 -1.661873
613.7734375 4.230316999999999 2.230317 -2.0
614.65625 3.500613 1.82417 -1.676443
615.30859375 3.6271839999999997 1.98 -1.647184
616.22265625 4.236655 2.186299 -2.050356
617.078125 4.007108000000001 1.961188 -2.04592
617.89453125 4.415193 1.734746 -2.680447
618.70703125 4.00415 1.866777 -2.137373
619.55078125 3.6510130000000003 1.442206 -2.208807
620.4140625 3.280698 1.654131 -1.626567
621.3046875 3.6885889999999995 1.675485 -2.013104
622.18359375 3.961196 2.071877 -1.889319
623.02734375 4.231267 1.966299 -2.264968
623.8359375 4.406561 1.848171 -2.55839
624.6796875 4.035092000000001 1.790429 -2.244663
625.52734375 3.936916 1.601189 -2.335727
626.3828125 3.879823 1.883358 -1.996465
627.26171875 3.948963 1.496312 -2.452651
628.125 4.467952 1.79 -2.677952
628.97265625 4.540395 2.034352 -2.506043
629.80859375 2.987362 1.797476 -1.189886
630.62109375 3.710661 1.785146 -1.925515
631.45703125 3.6363659999999998 1.42412 -2.212246
632.34375 3.863544 1.737373 -2.126171
633.23046875 4.406797 1.842518 -2.564279
634.1015625 4.515342 1.565342 -2.95
634.94140625 3.479962 1.431661 -2.048301
635.76953125 4.259793 2.864391 -1.395402
636.58984375 4.158806 3.078188 -1.080618
637.44140625 4.197645 3.316259 -0.881386
638.3046875 3.8415 2.96448 -0.87702
639.171875 4.221775 2.534601 -1.687174
640.0546875 3.120511 1.892004 -1.228507
640.90625 3.9312519999999997 1.894666 -2.036586
641.734375 4.055034 1.761932 -2.293102
642.546875 4.1417850000000005 1.671758 -2.470027
643.390625 3.3462870000000002 1.327083 -2.019204
644.265625 3.628771 1.206172 -2.422599
645.16015625 3.222346 1.276292 -1.946054
646.03125 3.488684 1.167719 -2.320965
646.859375 3.875165 1.362354 -2.512811
647.6875 4.246133 1.458182 -2.787951
648.52734375 4.111623 1.480654 -2.630969
649.36328125 4.2492350000000005 1.475898 -2.773337
650.21484375 3.936648 1.408553 -2.528095
651.09375 3.901465 1.531076 -2.370389
651.97265625 3.387661 1.257759 -2.129902
652.82421875 3.675651 1.390755 -2.284896
653.640625 3.761948 1.654731 -2.107217
654.45703125 4.482242 1.681742 -2.8005
655.30078125 3.848929 1.566108 -2.282821
656.1875 4.389322 1.816935 -2.572387
657.0703125 4.233874 1.952387 -2.281487
657.9296875 4.179494 2.35203 -1.827464
658.78125 4.062144 2.547646 -1.514498
659.59765625 4.407313 2.659499 -1.747814
660.4296875 4.1476679999999995 2.569677 -1.577991
661.26171875 4.1190560000000005 2.522755 -1.596301
662.1171875 4.157755 2.428456 -1.729299
662.99609375 3.837051 2.455916 -1.381135
663.89453125 2.920338 2.53479 -0.385548
664.7421875 4.205342 2.638867 -1.566475
665.5625 4.438415 2.506053 -1.932362
666.3828125 4.548135 2.151028 -2.397107
667.2109375 3.181216 1.848096 -1.33312
668.09375 3.226571 1.49137 -1.735201
668.97265625 3.965024 1.633636 -2.331388
669.83984375 3.809089 1.631296 -2.177793
670.6875 3.245467 1.608529 -1.636938
671.53515625 4.027805 1.65879 -2.369015
672.35546875 3.9310460000000003 1.783654 -2.147392
673.171875 4.197038 1.877297 -2.319741
674.03125 4.282185999999999 2.022186 -2.26
674.90234375 3.77974 2.10974 -1.67
675.7890625 4.360532 2.279547 -2.080985
676.6484375 4.850232 2.350232 -2.5
677.4765625 5.027271 2.476536 -2.550735
678.29296875 4.142396 2.089245 -2.053151
679.1484375 4.071064 1.671064 -2.4
680.00390625 4.261531 2.108631 -2.1529
680.87109375 4.165977 2.104679 -2.061298
681.75 3.839493 1.475 -2.364493
682.6015625 3.37603 1.86694 -1.50909
683.4296875 4.107851 2.056578 -2.051273
684.2578125 4.293329 2.213647 -2.079682
685.08203125 4.455738 2.305272 -2.150466
685.92578125 2.844506 2.378765 -0.465741
686.83203125 3.7911019999999995 2.445022 -1.34608
687.7109375 3.932073 2.264615 -1.667458
688.55859375 4.336435 2.244065 -2.09237
689.390625 4.06951 2.096984 -1.972526
690.20703125 3.153914 1.833886 -1.320028
691.05078125 3.9650740000000004 1.845426 -2.119648
691.91015625 3.358425 1.843259 -1.515166
692.78125 3.601693 1.82306 -1.778633
693.6484375 2.4750870000000003 1.826335 -0.648752
694.52734375 2.745002 1.773252 -0.97175
695.359375 3.8428880000000003 1.879086 -1.963802
696.16796875 4.436198 1.940519 -2.495679
696.9921875 4.061372 1.97451 -2.086862
697.83984375 2.890531 1.700688 -1.189843
698.73046875 3.999117 1.949931 -2.049186
699.625 3.616441 2.01 -1.606441
700.48046875 3.1629690000000004 1.954933 -1.208036
701.30078125 3.6852990000000005 2.078565 -1.606734
702.140625 2.47231 1.921304 -0.551006
702.97265625 3.498019 1.938725 -1.559294
703.81640625 3.992517 1.971918 -2.020599
704.68359375 3.201881 1.978981 -1.2229
705.55859375 2.763566 1.863595 -0.899971
706.4296875 3.6704090000000003 1.812092 -1.858317
707.26953125 3.8259290000000004 1.789789 -2.03614
708.0859375 3.930587 1.869506 -2.061081
708.8984375 2.498019 1.824003 -0.674016
709.765625 2.727679 1.896012 -0.831667
710.65234375 3.31943 2.00943 -1.31
711.52734375 4.127376 1.997497 -2.129879
712.38671875 4.2291360000000005 2.009437 -2.219699
713.22265625 4.63483 2.285013 -2.349817
714.04296875 4.672143 2.198574 -2.473569
714.8828125 4.224893 1.846911 -2.377982
715.7265625 4.3404679999999995 2.285962 -2.054506
716.5859375 3.172512 2.165381 -1.007131
717.47265625 3.6631739999999997 2.520339 -1.142835
718.3515625 4.0436689999999995 2.316478 -1.727191
719.1875 4.069394 2.428594 -1.6408
720.0 4.773459 2.385 -2.388459
720.83203125 3.9740159999999998 2.119726 -1.85429
721.6796875 3.879404 1.941602 -1.937802
722.578125 3.956638 1.525886 -2.430752
723.453125 4.1454 1.754731 -2.390669
724.3046875 4.246015 1.768851 -2.477164
725.140625 4.251613 1.973652 -2.277961
725.98046875 4.200651 1.911069 -2.289582
726.8046875 4.6364659999999995 1.967283 -2.669183
727.62890625 3.63499 1.571816 -2.063174
728.5078125 3.863587 1.330156 -2.533431
729.37890625 3.636769 1.425443 -2.211326
730.25390625 4.418901 1.71646 -2.702441
731.09375 3.6667310000000004 1.728684 -1.938047
731.91796875 4.032559 1.440665 -2.591894
732.734375 4.237008 1.514149 -2.722859
733.609375 3.184423 1.450394 -1.734029
734.48828125 3.066344 1.240808 -1.825536
735.34765625 3.7559050000000003 1.748523 -2.007382
736.21484375 3.601184 2.22001 -1.381174
737.05078125 4.120464 2.107892 -2.012572
737.875 4.102036 2.18 -1.922036
738.7109375 3.9426959999999998 1.988511 -1.954185
739.55078125 4.273276 2.154391 -2.118885
740.41015625 3.497238 2.048761 -1.448477
741.3125 3.5443160000000002 1.918307 -1.626009
742.1796875 3.865286 2.152151 -1.713135
743.01953125 4.165131 2.214812 -1.950319
743.83984375 4.11226 2.226291 -1.885969
744.66015625 4.207966 2.353801 -1.854165
745.515625 3.138407 2.15214 -0.986267
746.40234375 4.0679870000000005 2.007367 -2.06062
747.27734375 4.296297 1.957262 -2.339035
748.1328125 3.9038690000000003 1.923327 -1.980542
748.984375 3.444061 1.792588 -1.651473
749.81640625 4.235049999999999 1.774371 -2.460679
750.63671875 4.342658 1.830942 -2.511716
751.4609375 4.141615 1.929115 -2.2125
752.33203125 3.473848 1.903393 -1.570455
753.22265625 3.632695 1.95084 -1.681855
754.109375 4.020572 1.782969 -2.237603
754.94921875 4.326831 1.818673 -2.508158
756.33984375 4.433743 2.712308 -1.721435
757.19140625 3.939137 2.954578 -0.984559
758.0546875 4.359191 3.236494 -1.122697
758.91796875 4.532211 3.457007 -1.075204
759.79296875 4.315005 3.396422 -0.918583
760.640625 4.518025 3.24038 -1.277645
761.4765625 4.196058 3.163688 -1.03237
762.296875 3.5969949999999997 2.938544 -0.658451
763.12109375 3.413226 2.641315 -0.771911
763.9765625 3.0545470000000003 2.379011 -0.675536
764.88671875 2.811769 2.102529 -0.70924
765.765625 3.493661 1.935257 -1.558404
766.609375 3.625712 1.915111 -1.710601
767.44140625 4.024583 1.861911 -2.162672
768.2578125 3.7210970000000003 1.869302 -1.851795
769.09765625 3.992376 1.918136 -2.07424
769.953125 3.985924 2.08886 -1.897064
770.82421875 3.954945 2.251696 -1.703249
771.69921875 3.760825 2.165616 -1.595209
772.578125 4.1513089999999995 2.165425 -1.985884
773.40625 4.33037 2.213727 -2.116643
774.21484375 4.487067 2.214323 -2.272744
775.04296875 4.467541000000001 2.285749 -2.181792
775.890625 3.539116 2.220807 -1.318309
776.78515625 3.82151 2.254261 -1.567249
777.66796875 4.110164 2.334169 -1.775995
778.5234375 4.26916 2.37916 -1.89
779.3515625 4.412065 2.402375 -2.00969
780.1953125 4.071632 2.361571 -1.710061
781.0234375 4.845022999999999 2.360023 -2.485
781.85546875 4.6844470000000005 2.339794 -2.344653
782.73046875 3.885397 2.346296 -1.539101
783.6015625 3.6765 2.434996 -1.241504
784.47265625 3.81163 2.543897 -1.267733
785.94921875 4.635844 2.830942 -1.804902
786.765625 4.5872340000000005 2.560506 -2.026728
787.6328125 3.829515 2.409188 -1.420327
788.51171875 4.1273539999999995 2.312667 -1.814687
789.375 3.7317389999999997 2.155 -1.576739
790.2421875 4.232749 2.116655 -2.116094
791.078125 4.529767 2.029459 -2.500308
791.90625 4.511702 2.037786 -2.473916
792.7421875 4.735802 2.09433 -2.641472
793.58203125 4.434268 1.874265 -2.560003
794.4375 4.072504 1.544149 -2.528355
795.33203125 4.318246 2.182218 -2.136028
796.203125 4.078162 2.304733 -1.773429
797.04296875 4.6553059999999995 2.368727 -2.286579
797.859375 4.257503 2.182068 -2.075435
798.68359375 3.654413 2.112913 -1.5415
799.53515625 3.7325610000000005 2.231479 -1.501082
800.4296875 1.8467870000000002 -0.222726 -2.069513
801.171875 3.721216 2.312147 -1.409069
802.02734375 3.918241 2.289273 -1.628968
802.88671875 2.818852 2.195271 -0.623581
803.71875 4.2743970000000004 2.108614 -2.165783
804.54296875 4.507778 2.051047 -2.456731
805.36328125 3.643701 2.049752 -1.593949
806.23046875 4.213179 2.129873 -2.083306
807.11328125 3.704704 2.031707 -1.672997
808.0 3.7551170000000003 2.015 -1.740117
808.84375 3.841805 2.091664 -1.750141
809.66015625 3.996697 2.156065 -1.840632
810.4921875 4.398128 2.22277 -2.175358
811.34375 3.148233 2.23214 -0.916093
812.2109375 3.8435050000000004 2.188397 -1.655108
813.08203125 4.2287420000000004 2.27171 -1.957032
813.953125 4.367915999999999 2.388479 -1.979437
814.796875 4.171712 2.39176 -1.779952
815.62890625 3.333258 2.391358 -0.9419
816.4453125 3.485969 2.327591 -1.158378
817.26953125 4.477722 2.314862 -2.16286
818.1328125 3.361162 2.329031 -1.032131
819.0390625 3.914039 2.373298 -1.540741
819.9140625 4.469832 2.414845 -2.054987
820.75390625 2.9413139999999998 2.331937 -0.609377
821.58203125 3.8791260000000003 2.321107 -1.558019
822.3984375 4.346461 2.311461 -2.035
823.15625 2.057954 -0.172 -2.229954
823.86328125 4.069593 2.588004 -1.481589
824.734375 4.455128 2.287206 -2.167922
825.59765625 4.232742 2.287394 -1.945348
826.4765625 3.5815970000000004 2.626863 -0.954734
827.30859375 4.367037 2.922277 -1.44476
828.125 4.167298 2.715 -1.452298
828.94921875 4.277747 2.65034 -1.627407
829.79296875 4.402293 2.958848 -1.443445
830.6796875 2.95659 2.780096 -0.176494
831.58203125 3.2544109999999997 2.485 -0.769411
832.44140625 4.291045 2.334955 -1.95609
833.26171875 4.085893 2.27 -1.815893
834.09765625 4.057001 2.412245 -1.644756
834.93359375 3.9519390000000003 2.403569 -1.54837
835.77734375 2.971351 2.269446 -0.701905
836.63671875 3.8991350000000002 2.157248 -1.741887
837.51953125 3.860757 2.124908 -1.735849
838.38671875 3.779145 2.148359 -1.630786
839.2265625 4.19112 2.239023 -1.952097
840.04296875 2.881358 2.205651 -0.675707
840.86328125 3.722413 2.131846 -1.590567
841.71875 3.7573610000000004 2.106259 -1.651102
842.609375 3.883749 2.106779 -1.77697
843.49609375 3.615692 2.138422 -1.47727
844.3515625 3.094164 2.080157 -1.014007
845.19140625 4.420449 2.039048 -2.381401
845.921875 1.9554120000000002 -0.365124 -2.320536
846.60546875 3.6485830000000004 2.179959 -1.468624
847.44921875 4.312969000000001 2.162774 -2.150195
848.3125 3.595846 2.116205 -1.479641
849.18359375 3.4111649999999996 2.174733 -1.236432
850.078125 3.576476 2.158353 -1.418123
850.921875 3.606426 2.187131 -1.419295
851.73828125 4.268404 2.192299 -2.076105
852.55859375 3.921754 2.219893 -1.701861
853.39453125 4.118628 2.279856 -1.838772
854.28125 2.797419 2.24663 -0.550789
855.17578125 3.8124209999999996 2.445006 -1.367415
856.04296875 4.360663 2.457384 -1.903279
856.87890625 3.757563 2.284218 -1.473345
857.71484375 3.740821 2.101079 -1.639742
858.54296875 3.3937679999999997 2.046086 -1.347682
859.37109375 4.101017000000001 2.031156 -2.069861
860.2265625 3.4645799999999998 1.967195 -1.497385
861.10546875 3.7383490000000004 1.999837 -1.738512
861.98828125 3.535259 1.994512 -1.540747
862.85546875 4.00441 2.095 -1.90941
863.671875 4.182015 2.172685 -2.00933
864.484375 4.2958940000000005 2.154275 -2.141619
865.34375 3.985557 2.223984 -1.761573
866.21875 3.046249 2.235 -0.811249
867.09375 3.556968 2.231128 -1.32584
867.95703125 3.9976510000000003 2.288761 -1.70889
868.8046875 4.233932 2.326225 -1.907707
869.6328125 4.215569 2.359612 -1.855957
870.46484375 3.755312 2.378671 -1.376641
871.2890625 3.77656 2.332876 -1.443684
872.13671875 3.6548940000000005 2.407856 -1.247038
873.04296875 3.8656040000000003 2.31096 -1.554644
873.91796875 4.290189 2.586004 -1.704185
874.765625 3.9358380000000004 2.498708 -1.43713
875.5859375 3.9472560000000003 2.398654 -1.548602
876.41015625 4.410724999999999 2.274797 -2.135928
877.25 4.553424 2.29 -2.263424
878.1328125 4.351872999999999 2.310146 -2.041727
879.00390625 3.15842 2.307979 -0.850441
879.86328125 3.7073840000000002 2.262992 -1.444392
880.7265625 4.344736 2.348412 -1.996324
881.4765625 2.3639609999999998 -0.045933 -2.409894
882.12890625 4.529649 2.528147 -2.001502
882.9453125 4.525404 2.529851 -1.995553
883.79296875 3.715503 2.500954 -1.214549
884.6640625 3.158471 2.385587 -0.772884
885.55859375 3.131275 2.289949 -0.841326
886.42578125 4.633641 2.267976 -2.365665
887.2578125 5.087097999999999 2.318456 -2.768642
888.078125 4.653723 2.411156 -2.242567
888.9296875 4.632918 2.421221 -2.211697
889.78125 4.192015 2.307344 -1.884671
890.63671875 4.550902 2.32239 -2.228512
891.51171875 4.734446 2.524415 -2.210031
892.37109375 4.811206 2.635 -2.176206
893.21484375 4.385175 2.63815 -1.747025
894.03515625 3.332707 2.37838 -0.954327
894.85546875 4.142757 2.259909 -1.882848
895.69921875 4.099745 2.208466 -1.891279
896.59765625 3.747471 2.285 -1.462471
897.48046875 3.883342 2.275283 -1.608059
898.33203125 3.8979850000000003 2.217712 -1.680273
899.171875 4.158272 2.194918 -1.963354
899.98828125 2.954899 2.206871 -0.748028
900.82421875 3.364096 2.237171 -1.126925
901.671875 4.223547 2.259139 -1.964408
902.5390625 4.65696 2.419773 -2.237187
903.41015625 3.3926860000000003 2.086008 -1.306678
904.30078125 3.583654 1.948654 -1.635
905.1328125 4.1310459999999996 2.629939 -1.501107
905.9453125 4.336356 2.995214 -1.341142
907.3671875 3.6493469999999997 2.883136 -0.766211
908.25 3.7795759999999996 2.57 -1.209576
909.1484375 3.564088 2.374088 -1.19
910.01953125 2.786912 2.264887 -0.522025
910.85546875 3.766586 2.134966 -1.63162
911.69140625 4.019339 2.226575 -1.792764
912.51953125 4.074555999999999 2.224976 -1.84958
913.3515625 4.284587999999999 2.372054 -1.912534
914.203125 3.427351 2.642249 -0.785102
915.08203125 3.6851339999999997 2.754546 -0.930588
915.9609375 4.03912 2.869604 -1.169516
916.82421875 4.171496 2.784821 -1.386675
917.640625 3.351512 2.543062 -0.80845
918.453125 3.740503 2.40724 -1.333263
919.3046875 3.397054 2.245 -1.152054
920.18359375 2.990891 2.139557 -0.851334
921.0703125 1.970243 -0.253419 -2.223662
921.76171875 4.0181249999999995 2.030135 -1.98799
922.62109375 4.12414 1.986083 -2.138057
923.4453125 4.084687 2.500972 -1.583715
924.2734375 3.57304 2.640423 -0.932617
925.09765625 3.685904 2.544525 -1.141379
925.94140625 3.625866 2.383733 -1.242133
926.828125 3.7524640000000002 2.135978 -1.616486
927.72265625 3.63224 2.137272 -1.494968
928.57421875 3.16507 2.036161 -1.128909
929.39453125 4.037226 2.059904 -1.977322
930.22265625 3.254111 2.050025 -1.204086
930.95703125 1.9247770000000002 -0.25 -2.174777
931.65234375 3.715323 2.188552 -1.526771
932.546875 3.655866 2.077106 -1.57876
933.42578125 3.839425 2.633253 -1.206172
934.28125 3.643548 2.745669 -0.897879
935.1328125 3.7016489999999997 2.35249 -1.349159
935.953125 4.237568 2.415459 -1.822109
936.76953125 4.308604 2.57 -1.738604
937.60546875 3.4046260000000004 2.418435 -0.986191
938.4765625 3.421088 2.324049 -1.097039
939.3671875 3.430204 2.245784 -1.18442
940.25390625 3.514776 2.228605 -1.286171
941.08984375 4.269628 2.253444 -2.016184
941.8984375 3.678742 2.098742 -1.58
942.73828125 3.570633 2.398087 -1.172546
943.59375 3.497321 2.488762 -1.008559
944.46484375 3.452887 2.293257 -1.15963
945.328125 3.748258 2.163022 -1.585236
946.19921875 4.038856 2.172171 -1.866685
947.04296875 3.867479 2.103496 -1.763983
947.87109375 3.4295989999999996 1.973148 -1.456451
948.69140625 4.563251 1.738737 -2.824514
949.51953125 3.760891 2.118799 -1.642092
950.3984375 3.719949 2.49757 -1.222379
951.2890625 4.072879 2.634789 -1.43809
952.16015625 3.185998 2.494393 -0.691605
952.99609375 4.435328 2.26 -2.175328
953.828125 4.173894000000001 2.099059 -2.074835
954.6484375 3.8708359999999997 1.945836 -1.925
955.50390625 4.145453 2.048647 -2.096806
956.3671875 2.598242 1.998271 -0.599971
957.23828125 2.708317 1.925661 -0.782656
958.109375 2.719753 2.005192 -0.714561
958.96875 3.893358 2.049452 -1.843906
959.79296875 4.346282 2.072707 -2.273575
960.60546875 2.6223099999999997 2.099973 -0.522337
961.4453125 3.534598 2.101377 -1.433221
962.3046875 3.234745 2.02527 -1.209475
963.20703125 4.16019 1.930509 -2.229681
964.078125 3.282063 2.263522 -1.018541
964.921875 4.528739 2.307315 -2.221424
965.74609375 3.402469 2.302457 -1.100012
966.58984375 4.592219 2.107219 -2.485
967.43359375 4.432746 2.289092 -2.143654
968.28125 4.287222 2.439293 -1.847929
969.1640625 4.344458 2.443337 -1.901121
970.0234375 3.771508 1.933286 -1.838222
970.8828125 4.269986 1.993292 -2.276694
971.70703125 4.590458 2.131458 -2.459
972.4765625 2.0494879999999998 -0.018139 -2.067627
973.17578125 4.494208 2.169504 -2.324704
974.0703125 3.934864 1.845432 -2.089432
974.9609375 4.2137720000000005 1.913024 -2.300748
975.8125 4.062926 1.947425 -2.115501
976.66796875 4.214251 1.835422 -2.378829
977.49609375 4.483604 2.021066 -2.462538
978.3203125 4.448162 2.141194 -2.306968
979.1640625 4.783552 2.373979 -2.409573
980.01171875 4.091334 2.184158 -1.907176
980.8828125 3.932472 1.660587 -2.271885
981.77734375 3.770502 1.800502 -1.97
982.62890625 4.51937 1.946237 -2.573133
983.44921875 4.407019 1.961236 -2.445783
984.26953125 4.412269 2.0318 -2.380469
985.09765625 4.289744 1.96528 -2.324464
985.96484375 3.691164 1.778181 -1.912983
986.86328125 4.177671999999999 2.156443 -2.021229
987.73828125 4.290235 2.418953 -1.871282
988.5859375 4.777456 2.539956 -2.2375
989.42578125 4.045007 2.245678 -1.799329
990.171875 1.898868 -0.220861 -2.119729
990.875 4.43942 2.28 -2.15942
991.7109375 4.67497 2.264373 -2.410597
992.58203125 4.923126 2.175227 -2.747899
993.46484375 4.360341 2.094016 -2.266325
994.34375 4.963121 2.068511 -2.89461
995.171875 4.3082329999999995 1.876548 -2.431685
995.984375 3.871601 1.822682 -2.048919
996.82421875 4.110148 1.905432 -2.204716
997.6875 4.273258 1.879168 -2.39409
998.5625 4.882398 2.202638 -2.67976
999.42578125 4.149102 1.99192 -2.157182
1000.29296875 3.905426 1.728306 -2.17712
1001.12890625 4.257272 1.83341 -2.423862
1001.95703125 3.927894 2.070069 -1.857825
1002.77734375 3.661865 2.161865 -1.5
1003.61328125 4.352988 2.251213 -2.101775
1004.48828125 2.494312 2.023358 -0.470954
1005.38671875 3.899535 2.132641 -1.766894
1006.25390625 4.422112 1.908963 -2.513149
1006.93359375 1.856496 -0.274766 -2.131262
1007.640625 3.715548 1.747146 -1.968402
1008.4609375 4.056383 1.697623 -2.35876
1009.09375 3.5194080000000003 1.655 -1.864408
1010.0234375 3.573 1.424893 -2.148107
1010.8984375 4.417521 1.63922 -2.778301
1011.75390625 2.880484 1.604176 -1.276308
1012.6328125 2.992071 1.346133 -1.645938
1013.453125 4.269494 1.684816 -2.584678
1014.265625 3.485163 1.784539 -1.700624
1015.09375 4.1468 2.088999 -2.057801
1015.9453125 4.086952 2.250586 -1.836366
1016.84765625 3.481496 1.963856 -1.51764
1017.73046875 4.718145 2.214938 -2.503207
1018.58203125 4.637932 2.337038 -2.300894
1019.40234375 4.295492 2.30654 -1.988952
1020.2421875 3.05822 2.086195 -0.972025
1021.0859375 3.889113 1.35531 -2.533803
1021.81640625 1.9193729999999998 -0.477497 -2.39687
1022.55078125 2.813541 1.847401 -0.96614
1023.4296875 4.09145 2.007572 -2.083878
1024.296875 3.634363 2.03863 -1.595733
1025.14453125 4.103244 1.894692 -2.208552
1025.95703125 3.591089 1.683836 -1.907253
1026.76953125 3.966865 1.934644 -2.032221
1027.62890625 3.084482 1.50402 -1.580462
1028.5234375 3.657621 1.884413 -1.773208
1029.40234375 3.849875 2.139875 -1.71
1030.2578125 2.5890589999999998 1.693163 -0.895896
1031.1015625 4.161404 1.912295 -2.249109
1031.921875 3.765224 2.086415 -1.678809
1032.7578125 2.970533 1.634765 -1.335768
1033.59375 4.2628900000000005 1.490653 -2.772237
1034.453125 2.87341 1.368439 -1.504971
1035.33984375 3.2599299999999998 1.475489 -1.784441
1036.22265625 3.976022 2.165 -1.811022
1037.05859375 3.8027230000000003 1.709322 -2.093401
1037.87109375 4.100553 1.811216 -2.289337
1038.6953125 3.513433 2.18431 -1.329123
1039.53515625 3.225966 1.934118 -1.291848
1040.4296875 3.2902750000000003 1.622902 -1.667373
1041.30859375 3.469768 1.675574 -1.794194
1042.17578125 3.327539 1.608964 -1.718575
1043.015625 3.701003 1.526141 -2.174862
1043.8515625 3.662325 1.637834 -2.024491
1044.67578125 3.562849 1.625186 -1.937663
1045.5 4.354899 1.51 -2.844899
1046.3671875 3.3750739999999997 1.595715 -1.779359
1047.23828125 3.5287 2.194824 -1.333876
1048.12109375 3.7142919999999995 2.486156 -1.228136
1048.9765625 4.721101 2.252258 -2.468843
1049.75 2.199704 -0.335 -2.534704
1050.390625 4.526812 2.462055 -2.064757
1051.23828125 3.419476 2.493028 -0.926448
1052.11328125 3.429342 2.44636 -0.982982
1052.99609375 4.533756 2.293275 -2.240481
1053.859375 3.8841579999999998 2.199222 -1.684936
1054.7109375 4.509765 2.134194 -2.375571
1055.54296875 3.7656799999999997 2.040815 -1.724865
1056.37109375 4.158817 1.99625 -2.162567
1057.19921875 3.849239 1.956233 -1.893006
1058.04296875 4.684003 2.015875 -2.668128
1058.93359375 3.926373 2.079327 -1.847046
1059.8203125 3.364162 2.111267 -1.252895
1060.671875 4.339589 2.066066 -2.273523
1061.48828125 4.065939 2.054676 -2.011263
1062.3203125 4.358203 2.06223 -2.295973
1063.15234375 4.276120000000001 2.26107 -2.01505
1064.02734375 2.849143 2.364593 -0.48455
1064.90625 3.901091 2.240379 -1.660712
1065.71484375 2.242808 -0.156328 -2.399136
1066.3984375 3.665816 2.296674 -1.369142
1067.25 4.23264 2.345 -1.88764
1068.0703125 4.527382 2.28588 -2.241502
1068.88671875 3.796792 2.139886 -1.656906
1069.73046875 3.3375710000000005 2.00993 -1.327641
1070.6015625 3.1096320000000004 2.028287 -1.081345
1071.49609375 3.1418919999999995 2.12585 -1.016042
1072.3671875 2.956218 2.163404 -0.792814
1073.19921875 4.214150999999999 2.109851 -2.1043
1074.015625 4.3049040000000005 2.208408 -2.096496
1074.86328125 3.773798 2.397335 -1.376463
1075.72265625 4.027964 2.61792 -1.410044
1076.5859375 3.3810350000000002 2.432592 -0.948443
1077.45703125 4.087073 2.331847 -1.755226
1078.3203125 4.634736999999999 2.381097 -2.25364
1079.1640625 4.623793 2.492419 -2.131374
1079.9921875 4.220366 2.465 -1.755366
1080.8125 4.314597 2.326599 -1.987998
1081.6484375 4.125823 2.262809 -1.863014
1082.546875 3.7189129999999997 2.199645 -1.519268
1083.359375 2.375148 0.019077 -2.356071
1084.06640625 4.385421 2.482804 -1.902617
1084.90234375 3.449472 2.344472 -1.105
1085.73046875 4.6420840000000005 2.319773 -2.322311
1086.55859375 4.730053 2.434206 -2.295847
1087.40625 3.9460569999999997 2.441429 -1.504628
1088.26953125 3.362929 2.394879 -0.96805
1089.12890625 3.845456 2.37452 -1.470936
1090.015625 4.0253 2.392391 -1.632909
1090.87109375 4.47499 2.454126 -2.020864
1091.69140625 4.677588999999999 2.553206 -2.124383
1092.50390625 3.6117090000000003 2.428218 -1.183491
1093.34375 4.725339999999999 2.3461 -2.37924
1094.2109375 3.9044980000000002 2.394632 -1.509866
1095.10546875 3.8810919999999998 2.504771 -1.376321
1095.9765625 3.243024 2.456078 -0.786946
1096.81640625 3.7178880000000003 2.359306 -1.358582
1097.65234375 4.566506 2.331416 -2.23509
1098.48828125 4.395797 2.338418 -2.057379
1099.32421875 4.655285 2.357286 -2.297999
1100.17578125 3.834472 2.366128 -1.468344
1101.0546875 3.995431 2.008487 -1.986944
1101.92578125 3.790147 1.82826 -1.961887
1102.7890625 3.6966150000000004 2.253769 -1.442846
1103.609375 4.101675 2.391833 -1.709842
1104.421875 3.4910959999999998 2.15835 -1.332746
1105.26171875 4.152127 2.165896 -1.986231
1106.15234375 3.5193630000000002 1.609156 -1.910207
1107.02734375 4.462699000000001 2.110109 -2.35259
1107.79296875 2.19287 0.28287 -1.91
1108.52734375 4.015239 1.691769 -2.32347
1109.34765625 3.699025 2.055583 -1.643442
1110.1796875 3.157799 1.520563 -1.637236
1111.01171875 3.943257 1.487453 -2.455804
1111.8515625 4.079956 1.846959 -2.232997
1112.72265625 2.934379 1.805843 -1.128536
1113.625 3.241065 1.65 -1.591065
1114.48046875 3.976436 1.689413 -2.287023
1115.296875 3.7314469999999997 1.69617 -2.035277
1116.125 3.6769420000000004 1.57 -2.106942
1116.9453125 3.539128 1.734863 -1.804265
1117.8125 2.975962 1.564355 -1.411607
1118.69921875 3.7680610000000003 1.488726 -2.279335
1119.5703125 3.9442500000000003 1.806985 -2.137265
1120.4375 2.87766 1.34702 -1.53064
1121.28125 3.923616 1.638892 -2.284724
1122.1015625 3.892507 1.833116 -2.059391
1122.921875 3.225841 1.447805 -1.778036
1123.7734375 3.780584 1.597162 -2.183422
1124.62890625 2.978122 1.679184 -1.298938
1125.48046875 1.703604 -0.330546 -2.03415
1126.19140625 3.893465 1.727413 -2.166052
1127.02734375 4.083521 1.752544 -2.330977
1127.8359375 3.745368 1.788737 -1.956631
1128.6875 4.024132 1.683411 -2.340721
1129.53125 2.508669 1.749482 -0.759187
1130.40234375 2.944722 1.757273 -1.187449
1131.2734375 3.841342 1.761782 -2.07956
1132.140625 3.3681200000000002 1.647852 -1.720268
1132.98828125 4.256501 1.732812 -2.523689
1133.8203125 3.474011 1.750911 -1.7231
1134.63671875 4.243614 1.730353 -2.513261
1135.46484375 3.826326 1.593276 -2.23305
1136.16796875 1.882723 -0.214356 -2.097079
1136.9296875 3.5538040000000004 1.504434 -2.04937
1137.80078125 4.374553000000001 2.051869 -2.322684
1138.640625 3.061481 1.666806 -1.394675
1139.46875 4.438904 1.522988 -2.915916
1140.29296875 3.80079 1.692809 -2.107981
1141.140625 3.3468479999999996 1.388661 -1.958187
1141.9921875 3.624652 1.731911 -1.892741
1142.87109375 2.906141 1.274233 -1.631908
1143.7421875 3.851107 1.536974 -2.314133
1144.515625 2.0131 -0.240625 -2.253725
1145.203125 4.215628000000001 1.753524 -2.462104
1146.0078125 4.222690999999999 1.804779 -2.417912
1146.83203125 3.872288 1.742055 -2.130233
1147.67578125 4.181894 1.718633 -2.463261
1148.5625 3.5421750000000003 1.476663 -2.065512
1149.45703125 4.017173 1.541898 -2.475275
1150.3203125 3.757973 1.576126 -2.181847
1151.1484375 4.098754 1.520031 -2.578723
1151.98828125 3.903633 1.724563 -2.17907
1152.8203125 3.8585080000000005 1.667194 -2.191314
1153.6640625 3.94993 1.689975 -2.259955
1154.5234375 3.525086 1.755086 -1.77
1155.40234375 4.239932 1.744932 -2.495
1156.12890625 2.017865 -0.326901 -2.344766
1156.8671875 4.1365940000000005 1.867731 -2.268863
1157.6875 4.408081 1.888667 -2.519414
1158.50390625 4.154638 1.782058 -2.37258
1159.34375 3.7652970000000003 1.332797 -2.4325
1160.234375 3.819649 1.464062 -2.355587
1161.11328125 4.256089 1.718297 -2.537792
1161.96484375 3.554761 1.728837 -1.825924
1162.81640625 4.191965 1.601706 -2.590259
1163.640625 4.033483 1.686172 -2.347311
1164.37109375 2.12736 -0.244827 -2.372187
1165.08203125 3.865061 1.827814 -2.037247
1165.94140625 3.654604 1.527862 -2.126742
1166.80859375 3.524642 1.258271 -2.266371
1167.6953125 3.511335 1.153457 -2.357878
1168.55078125 3.697845 1.541427 -2.156418
1169.37109375 3.915824 2.080823 -1.835001
1170.19140625 4.242492 2.334382 -1.90811
1171.01953125 4.444888 2.249888 -2.195
1171.890625 3.6073079999999997 1.7244 -1.882908
1172.6796875 2.211941 0.341941 -1.87
1173.44140625 3.4273610000000003 1.453086 -1.974275
1174.29296875 3.7147639999999997 1.409372 -2.305392
1175.1328125 3.9875030000000002 1.611655 -2.375848
1175.96875 3.8594559999999998 1.553156 -2.3063
1176.79296875 3.783928 1.520959 -2.262969
1177.6328125 3.9612809999999996 1.2728 -2.688481
1178.5078125 3.81493 1.302479 -2.512451
1179.38671875 3.484981 1.368979 -2.116002
1180.2578125 3.651471 1.641393 -2.010078
1181.09375 4.045597 1.59018 -2.455417
1181.90625 4.474202 1.746845 -2.727357
1182.609375 2.189138 -0.273203 -2.462341
1183.35546875 3.736359 1.50721 -2.229149
1184.23046875 3.3880619999999997 1.397611 -1.990451
1185.1015625 3.8641959999999997 1.307335 -2.556861
1185.97265625 3.670292 1.378185 -2.292107
1186.80859375 4.467746 1.81376 -2.653986
1187.64453125 4.226966 1.589745 -2.637221
1188.47265625 4.457267 1.645698 -2.811569
1189.30078125 4.3697930000000005 1.590251 -2.779542
1190.16015625 4.195421 1.65003 -2.545391
1191.0703125 3.795908 1.320842 -2.475066
1191.9375 3.9875089999999997 1.49599 -2.491519
1192.76953125 4.257845 1.680414 -2.577431
1193.59765625 3.987732 1.467724 -2.520008
1194.4140625 4.530647 1.774466 -2.756181
1195.26171875 4.055365 1.579934 -2.475431
1196.140625 4.163352 1.583059 -2.580293
1197.01171875 3.586239 1.859768 -1.726471
1197.87890625 4.121268000000001 1.749848 -2.37142
1198.5234375 3.9196730000000004 2.365 -1.554673
1199.40625 4.241856 1.764038 -2.477818
1200.21875 4.885185 2.009746 -2.875439
1201.0390625 3.973823 1.694429 -2.279394
1201.890625 4.021001 1.59491 -2.426091
1202.78125 3.9187200000000004 1.25872 -2.66
1203.671875 4.131866 1.444043 -2.687823
1204.5234375 4.465593 1.804302 -2.661291
1205.33984375 4.681395 1.979386 -2.702009
1206.18359375 4.540895 2.05777 -2.483125
1206.8125 3.5768940000000002 2.02233 -1.554564
1207.7265625 3.974451 1.884149 -2.090302
1208.59375 4.559464999999999 1.805037 -2.754428
1209.46875 4.273531 1.84 -2.433531
1210.3359375 4.61702 1.925 -2.69202
1211.1796875 4.483723 1.926223 -2.5575
1211.9921875 4.514549 1.974998 -2.539551
1212.80859375 4.710757 2.052878 -2.657879
1213.6640625 3.6607700000000003 1.914428 -1.746342
1214.5546875 4.494172 1.859283 -2.634889
1215.4375 4.197539 1.720842 -2.476697
1216.28515625 4.855376 1.986045 -2.869331
1217.125 4.096293 1.82 -2.276293
1217.953125 3.865018 1.897115 -1.967903
1218.7890625 4.104928 1.934072 -2.170856
1219.640625 3.862248 1.750158 -2.11209
1220.4921875 3.975933 1.602395 -2.373538
1221.375 4.140418 1.775 -2.365418
1222.2578125 4.044416 2.022398 -2.022018
1223.08984375 4.482284 2.035 -2.447284
1223.8984375 4.302885 1.974396 -2.328489
1224.73046875 4.649715 1.934995 -2.71472
1225.57421875 4.234628 1.890957 -2.343671
1226.45703125 2.590262 1.629121 -0.961141
1227.34375 3.857024 1.343635 -2.513389
1228.19921875 3.9463690000000002 1.540928 -2.405441
1229.05078125 4.101669 1.490638 -2.611031
1229.8828125 4.174914 1.545771 -2.629143
1230.70703125 4.309831 1.844626 -2.465205
1231.54296875 4.323646999999999 1.897557 -2.42609
1232.4140625 3.849921 2.024375 -1.825546
1233.296875 3.947266 1.45669 -2.490576
1234.17578125 4.05579 1.992745 -2.063045
1235.0078125 4.394762 2.066896 -2.327866
1235.81640625 3.973568 1.573153 -2.400415
1236.6484375 4.0944 1.245561 -2.848839
1237.5078125 3.530754 1.392693 -2.138061
1238.390625 3.5184420000000003 1.473038 -2.045404
1239.2578125 3.4988789999999996 1.143479 -2.3554
1240.125 4.1160380000000005 1.61 -2.506038
1240.96484375 3.495483 1.56204 -1.933443
1241.80078125 3.779426 1.636939 -2.142487
1242.6171875 4.175085 1.926709 -2.248376
1243.44921875 3.758614 1.3144 -2.444214
1244.328125 4.0672559999999995 1.495769 -2.571487
1245.21875 3.2249350000000003 1.545455 -1.67948
1246.08984375 3.821855 1.63502 -2.186835
1246.91796875 4.341545 1.928101 -2.413444
1247.7421875 4.319008 2.097256 -2.221752
1248.5625 4.585882 1.987725 -2.598157
1249.41015625 3.896182 1.544 -2.352182
1250.28125 3.501647 1.944278 -1.557369
1251.16015625 3.669509 2.894734 -0.774775
1252.02734375 3.523043 3.173616 -0.349427
1252.90234375 4.208228 2.952394 -1.255834
1253.72265625 4.185492 2.757137 -1.428355
1254.52734375 3.548798 2.274283 -1.274515
1255.3671875 3.612392 1.955862 -1.65653
1256.2265625 3.006832 1.786907 -1.219925
1257.12109375 3.4182870000000003 1.611151 -1.807136
1257.99609375 3.2055860000000003 1.615712 -1.589874
1258.8359375 3.959558 1.863397 -2.096161
1259.65625 4.336402 1.880582 -2.45582
1260.50390625 3.114128 1.809829 -1.304299
1261.34375 4.065183 1.593345 -2.471838
1262.2109375 3.7855790000000002 1.364338 -2.421241
1263.08203125 3.441478 1.687924 -1.753554
1263.7578125 4.159718 1.91 -2.249718
1264.671875 4.314381 1.912195 -2.402186
1265.51171875 4.55522 2.156935 -2.398285
1266.328125 4.446008 2.162744 -2.283264
1267.14453125 4.287927 2.129768 -2.158159
1268.01953125 3.5856700000000004 1.861121 -1.724549
1268.91015625 3.869117 1.763148 -2.105969
1269.7734375 4.575304 2.0519 -2.523404
1270.61328125 4.390736 1.883495 -2.507241
1271.44921875 4.476733 1.881407 -2.595326
1272.28125 4.6186110000000005 1.863488 -2.755123
1273.12890625 4.266069 1.918965 -2.347104
1273.98828125 3.207704 1.472237 -1.735467
1274.8515625 4.093555 1.457191 -2.636364
1275.7421875 3.64458 1.510249 -2.134331
1276.59765625 4.415518 1.837457 -2.578061
1277.421875 4.489075 1.903785 -2.58529
1278.23046875 4.408246 2.094535 -2.313711
1279.06640625 4.494385 2.248117 -2.246268
1279.9296875 3.5643279999999997 1.857453 -1.706875
1280.82421875 3.728076 1.587409 -2.140667
1281.6875 4.319204 1.665 -2.654204
1282.53515625 4.378839 1.470714 -2.908125
1283.375 4.318677 1.42 -2.898677
1284.21484375 4.394118 1.442826 -2.951292
1285.046875 4.641738 1.626913 -3.014825
1285.89453125 4.507045 1.662446 -2.844599
1286.7734375 3.996197 1.721197 -2.275
1287.6484375 4.522365 1.832365 -2.69
1288.515625 4.430277 1.97 -2.460277
1289.33984375 4.636675 2.086996 -2.549679
1290.15234375 4.365624 2.030787 -2.334837
1290.98828125 4.242171 1.877325 -2.364846
1291.859375 4.443705 2.108882 -2.334823
1292.75 3.9274820000000004 1.975 -1.952482
1293.609375 4.3633299999999995 2.163906 -2.199424
1294.47265625 4.473375000000001 2.032814 -2.440561
1295.3046875 4.472376 1.988981 -2.483395
1296.14453125 4.303257 1.756191 -2.547066
1296.96484375 4.676804 1.950589 -2.726215
1297.80859375 4.479653 1.733893 -2.74576
1298.6953125 3.9302 1.444502 -2.485698
1299.59375 4.263052 1.559044 -2.704008
1300.44921875 4.697226000000001 1.927394 -2.769832
1301.26171875 4.172383 1.737574 -2.434809
1302.0859375 4.47302 1.753377 -2.719643
1302.9140625 3.505585 1.533637 -1.971948
1303.7734375 3.760691 1.754175 -2.006516
1304.65625 3.802791 1.747791 -2.055
1305.52734375 3.8009180000000002 2.085918 -1.715
1306.390625 4.139235 2.072712 -2.066523
1307.25 4.314939 1.885 -2.429939
1308.06640625 4.245087 1.479361 -2.765726
1308.8828125 3.853077 1.788998 -2.064079
1309.7265625 4.179339000000001 2.342483 -1.836856
1310.6015625 3.897574 2.07093 -1.826644
1311.484375 4.777202 2.685564 -2.091638
1312.3515625 4.626153 2.625687 -2.000466
1313.1796875 4.702033 2.428674 -2.273359
1314.0 4.093203 2.31 -1.783203
1314.8515625 4.328083 2.198875 -2.129208
1315.7109375 3.707378 2.103662 -1.603716
1316.5703125 2.469808 1.965501 -0.504307
1317.45703125 3.0064140000000004 1.615652 -1.390762
1318.31640625 3.797728 1.556389 -2.241339
1319.16015625 4.573569 1.688955 -2.884614
1319.98046875 4.350168999999999 1.749936 -2.600233
1320.80078125 3.734134 2.220317 -1.513817
1321.64453125 3.307837 2.023948 -1.283889
1322.5390625 4.24231 1.40344 -2.83887
1323.41796875 4.238545 1.837617 -2.400928
1324.26953125 4.051937000000001 2.264507 -1.78743
1325.1015625 3.681255 2.537861 -1.143394
1325.921875 4.285978 2.419913 -1.866065
1326.7578125 4.204721 2.640933 -1.563788
1327.609375 3.067701 2.331651 -0.73605
1328.48046875 4.35126 2.159909 -2.191351
1329.35546875 4.080458 1.918385 -2.162073
1330.24609375 3.582517 2.000786 -1.581731
1331.08203125 4.458823000000001 2.193597 -2.265226
1331.88671875 3.918789 2.078166 -1.840623
1332.7109375 3.429927 2.250588 -1.179339
1333.5546875 4.0787249999999995 1.92457 -2.154155
1334.4296875 4.240775 2.101137 -2.139638
1335.3125 2.884332 1.8115 -1.072832
1336.171875 3.2668530000000002 1.983726 -1.283127
1337.01171875 4.06833 2.02318 -2.04515
1337.859375 4.273014 2.254609 -2.018405
1338.6875 2.890071 2.04125 -0.848821
1339.51953125 3.6585729999999996 1.784814 -1.873759
1340.40234375 3.941299 1.490395 -2.450904
1341.26953125 2.918752 1.482562 -1.43619
1342.15625 3.606085 1.356485 -2.2496
1342.98828125 4.539077 1.499218 -3.039859
1343.8046875 4.239911 1.649732 -2.590179
1344.625 3.974726 1.415 -2.559726
1345.484375 4.319143 1.743892 -2.575251
1346.359375 3.032497 1.558317 -1.47418
1347.2265625 3.3455779999999997 1.512228 -1.83335
1348.09375 3.559375 1.800986 -1.758389
1348.93359375 4.466094999999999 2.007926 -2.458169
1349.76953125 3.3149319999999998 2.054954 -1.259978
1350.59765625 3.957472 1.863916 -2.093556
1351.43359375 4.265753 1.922738 -2.343015
1352.296875 3.338927 2.088618 -1.250309
1353.19921875 4.2160779999999995 2.090278 -2.1258
1354.0703125 3.4190510000000005 2.037539 -1.381512
1354.8984375 3.983396 1.783396 -2.2
1355.71875 4.315021 1.73139 -2.583631
1356.53515625 3.5550249999999997 1.66915 -1.885875
1357.3828125 4.356559 1.532229 -2.82433
1358.25390625 3.592714 1.755884 -1.83683
1359.1328125 3.238823 1.807527 -1.431296
1360.00390625 3.2235959999999997 1.018585 -2.205011
1360.8671875 3.451408 1.564006 -1.887402
1361.69140625 4.267780999999999 1.822879 -2.444902
1362.50390625 3.9439330000000004 1.910642 -2.033291
1363.34375 3.151566 1.38051 -1.771056
1364.203125 3.877968 1.607788 -2.27018
1365.0859375 3.786537 1.69267 -2.093867
1365.96875 4.344498 1.88817 -2.456328
1366.81640625 3.974389 1.604857 -2.369532
1367.62890625 4.09472 1.450985 -2.643735
1368.46484375 4.248927 1.704658 -2.544269
1369.30859375 3.530361 1.392429 -2.137932
1370.171875 3.95066 1.374038 -2.576622
1371.05078125 3.372698 1.214989 -2.157709
1371.9140625 4.205238 1.673458 -2.53178
1372.77734375 4.19606 1.669214 -2.526846
1373.62109375 4.074698 1.635651 -2.439047
1374.4375 4.41123 1.645698 -2.765532
1375.25390625 4.098846999999999 1.680732 -2.418115
1376.140625 3.2036930000000003 1.195102 -2.008591
1377.0234375 3.798683 1.349751 -2.448932
1377.88671875 4.150364 1.636766 -2.513598
1378.72265625 4.376679 1.656903 -2.719776
1379.55078125 4.420126 1.695876 -2.72425
1380.37890625 4.217808 1.665562 -2.552246
1381.2265625 4.2547440000000005 1.588031 -2.666713
1382.08984375 3.66446 1.417015 -2.247445
1382.79296875 2.1458700000000004 -0.220674 -2.366544
1383.5625 3.770087 1.317727 -2.45236
1384.4375 4.695257 1.875 -2.820257
1385.265625 3.9602519999999997 1.60875 -2.351502
1386.0703125 4.319316000000001 1.610214 -2.709102
1386.90234375 4.219936 1.469936 -2.75
1387.75 3.897741 1.42 -2.477741
1388.6328125 3.4999700000000002 1.385976 -2.113994
1389.515625 4.101852 1.606718 -2.495134
1390.37109375 4.400589 1.763201 -2.637388
1391.19921875 4.310785 1.809184 -2.501601
1392.04296875 4.245321 1.612551 -2.63277
1392.87890625 4.111565 1.433181 -2.678384
1393.71875 4.174182 1.460867 -2.713315
1394.60546875 3.5815449999999998 1.141994 -2.439551
1395.4765625 3.965797 1.309656 -2.656141
1396.3515625 3.52705 1.102195 -2.424855
1397.1875 4.382158 1.540962 -2.841196
1397.93359375 2.263074 -0.146926 -2.41
1398.6171875 4.313782 1.600025 -2.713757
1399.48046875 3.933142 1.262706 -2.670436
1400.359375 3.721607 1.085274 -2.636333
1401.23046875 4.371937 1.474711 -2.897226
1402.08984375 4.438905999999999 1.555215 -2.883691
1402.93359375 4.437153 1.672726 -2.764427
1403.765625 4.7094450000000005 1.907606 -2.801839
1404.60546875 4.215279 1.62404 -2.591239
1405.4453125 4.205106 1.450611 -2.754495
1406.3125 2.5195570000000003 -0.350357 -2.869914
1407.09375 3.928548 1.114189 -2.814359
1407.96875 4.703831 1.756827 -2.947004
1408.81640625 4.369785 1.488195 -2.88159
1409.625 4.37 1.435 -2.935
1410.4453125 4.321041 1.554796 -2.766245
1411.28125 4.33056 1.796364 -2.534196
1412.16015625 4.745419999999999 1.897776 -2.847644
1413.04296875 3.66432 1.146083 -2.518237
1413.8984375 4.433495 1.490595 -2.9429
1414.58984375 2.794841 -0.200159 -2.995
1415.3359375 4.174059 1.649819 -2.52424
1416.16015625 4.132553 1.683446 -2.449107
1416.9765625 4.728233 2.111359 -2.616874
1417.828125 2.7403630000000003 1.689704 -1.050659
1418.703125 3.1689220000000002 1.680797 -1.488125
1419.5625 2.061194 -0.006562 -2.067756
1420.26171875 4.136677000000001 2.038581 -2.098096
1421.09375 3.896996 2.033313 -1.863683
1421.88671875 2.7276559999999996 0.715 -2.012656
1422.5546875 4.194578 1.808242 -2.386336
1423.39453125 4.1712810000000005 1.384239 -2.787042
1424.2578125 3.815871 1.248431 -2.56744
1425.02734375 1.9277860000000002 -0.701907 -2.629693
1425.7265625 4.246288 2.092253 -2.154035
1426.58203125 3.943112 2.350066 -1.593046
1427.43359375 3.334627 1.94677 -1.387857
1428.09765625 2.164302 -0.145304 -2.309606
1428.8046875 4.516311 1.666129 -2.850182
1429.5859375 1.6543769999999998 -0.622831 -2.277208
1430.34765625 3.616992 2.461329 -1.155663
1431.22265625 3.516192 2.123449 -1.392743
1432.0859375 4.563229 2.61858 -1.944649
1432.921875 4.868924 2.780653 -2.088271
1433.73828125 4.209121 2.595243 -1.613878
1434.5703125 4.930986 2.556196 -2.37479
1435.421875 4.556597 2.650654 -1.905943
1436.2890625 4.152232 3.379199 -0.773033
1437.16015625 4.645139 3.375964 -1.269175
1438.046875 4.188916 3.070813 -1.118103
1438.8984375 4.110652 3.000699 -1.109953
1439.71484375 4.4700869999999995 3.077267 -1.39282
1440.53125 4.626738 2.722457 -1.904281
1441.3671875 4.040563 2.501944 -1.538619
1442.23828125 3.6470459999999996 2.382811 -1.264235
1443.1328125 4.091957 2.195923 -1.896034
1443.99609375 3.105085 2.000441 -1.104644
1444.83203125 4.417376 1.920584 -2.496792
1445.66796875 4.408476 2.024941 -2.383535
1446.49609375 4.372524 1.974154 -2.39837
1447.328125 3.670639 1.878605 -1.792034
1448.1953125 3.2235329999999998 1.71012 -1.513413
1449.08203125 3.945849 1.631882 -2.313967
1449.95703125 4.118558 1.792239 -2.326319
1450.8203125 3.775302 1.711913 -2.063389
1451.640625 4.63586 1.639571 -2.996289
1452.44140625 3.363481 1.506344 -1.857137
1453.29296875 2.9463739999999996 1.741294 -1.20508
1454.1640625 2.53377 2.01377 -0.52
1455.0390625 3.7046729999999997 2.028854 -1.675819
1455.90234375 3.937573 1.252573 -2.685
1456.74609375 4.113116 1.91935 -2.193766
1457.578125 3.4438079999999998 2.038338 -1.40547
1458.41796875 4.178935 2.294799 -1.884136
1459.25 3.894589 2.07 -1.824589
1460.11328125 3.561409 1.295124 -2.266285
1461.015625 3.5396929999999998 1.260029 -2.279664
1461.890625 3.316807 1.471424 -1.845383
1462.7265625 3.984553 1.658281 -2.326272
1463.54296875 4.143027 1.55109 -2.591937
1464.359375 4.172276 1.579597 -2.592679
1465.19921875 4.316782 1.684454 -2.632328
1466.07421875 4.043116 1.478379 -2.564737
1466.9453125 3.269168 1.38829 -1.880878
1467.8125 3.613581 1.095764 -2.517817
1468.67578125 3.0201640000000003 1.121791 -1.898373
1469.5078125 4.035496 1.847719 -2.187777
1470.3359375 4.420628 1.85998 -2.560648
1471.15625 3.9791790000000002 1.820567 -2.158612
1472.0234375 4.014062 1.549062 -2.465
1472.9140625 3.5511600000000003 1.266468 -2.284692
1473.796875 3.207911 1.237887 -1.970024
1474.640625 4.371117 1.776548 -2.594569
1475.453125 4.198735 1.836901 -2.361834
1476.28125 4.532297 1.744219 -2.788078
1477.125 4.115957 1.61 -2.505957
1477.98046875 4.222823 2.088921 -2.133902
1478.85546875 4.393886 2.36999 -2.023896
1479.73046875 3.868502 2.393884 -1.474618
1480.5859375 4.646713 2.314609 -2.332104
1481.4296875 4.338663 2.38257 -1.956093
1482.25390625 4.395805 2.408216 -1.987589
1483.078125 4.450733 2.175189 -2.275544
1483.9453125 3.561216 1.70371 -1.857506
1484.84375 4.159318000000001 1.638103 -2.521215
1485.71875 4.056245 1.681033 -2.375212
1486.55078125 4.283796 1.771873 -2.511923
1487.375 3.9193670000000003 1.825 -2.094367
1488.19140625 3.910178 1.858192 -2.051986
1489.03125 4.153762 1.970703 -2.183059
1489.890625 3.917711 1.773527 -2.144184
1490.765625 4.424086 2.010979 -2.413107
1491.64453125 4.573715 1.807583 -2.766132
1492.52734375 4.373532 1.668532 -2.705
1493.35546875 4.66345 2.194678 -2.468772
1494.16796875 4.385306 2.258281 -2.127025
1494.99609375 4.460647 2.256226 -2.204421
1495.8515625 3.836638 1.699691 -2.136947
1496.7421875 4.29106 1.76483 -2.52623
1497.6171875 4.554586 1.859065 -2.695521
1498.46875 4.649661 1.934462 -2.715199
1499.2890625 4.48634 1.829794 -2.656546
1500.1328125 4.7148 1.660533 -3.054267
1500.96875 4.358016 1.58585 -2.772166
1501.8046875 4.559791 2.532783 -2.027008
1503.265625 4.852982 3.123972 -1.72901
1504.140625 5.070186 2.977863 -2.092323
1505.0 5.108278 2.805 -2.303278
1505.81640625 4.105824 2.689057 -1.416767
1506.62890625 4.276152 2.173414 -2.102738
1507.48828125 3.8653459999999997 2.070912 -1.794434
1508.19140625 3.8273260000000002 2.125 -1.702326
1509.12109375 4.191835 1.879843 -2.311992
1509.98046875 4.2837250000000004 1.626789 -2.656936
1510.83203125 4.344791 1.578434 -2.766357
1511.65234375 4.246431 1.441431 -2.805
1512.48828125 4.365524000000001 1.421364 -2.94416
1513.32421875 4.219945 1.463544 -2.756401
1514.18359375 3.914994 1.692686 -2.222308
1515.08203125 3.449461 1.446662 -2.002799
1515.96484375 4.276337 1.65324 -2.623097
1516.81640625 4.662331 1.779257 -2.883074
1517.625 4.782888 1.9 -2.882888
1518.4453125 4.373248 1.811291 -2.561957
1519.28515625 4.252823 1.575603 -2.67722
1520.15234375 4.571185 1.881185 -2.69
1521.0234375 4.757537 2.182537 -2.575
1521.890625 5.022704 2.368145 -2.654559
1522.74609375 4.556412 2.347573 -2.208839
1523.5859375 4.753073 2.856962 -1.896111
1524.4140625 4.806493 2.983186 -1.823307
1525.23828125 4.64359 2.690273 -1.953317
1526.10546875 4.176156 2.214568 -1.961588
1527.0 4.371683 1.72 -2.651683
1527.8828125 3.983602 1.794762 -2.18884
1528.72265625 4.42646 1.788826 -2.637634
1529.53515625 4.906003 2.04 -2.866003
1530.36328125 4.146562 1.905699 -2.240863
1531.20703125 4.611276 2.272618 -2.338658
1532.07421875 4.587317 1.89157 -2.695747
1532.94140625 4.47413 1.688439 -2.785691
1533.8125 4.201753999999999 1.615303 -2.586451
1534.65625 4.147417 1.721717 -2.4257
1535.50390625 4.680604 1.803139 -2.877465
1536.328125 4.912724 1.941773 -2.970951
1537.15234375 4.764037 1.963459 -2.800578
1538.01953125 4.117152 1.90487 -2.212282
1538.921875 4.593527 1.691181 -2.902346
1540.32421875 4.5276440000000004 1.923498 -2.604146
1541.15234375 4.700024 1.937262 -2.762762
1541.96875 4.369960000000001 1.920503 -2.449457
1542.8046875 4.390589 2.028332 -2.362257
1543.65234375 4.383902 1.943395 -2.440507
1544.5234375 4.614387000000001 1.809387 -2.805
1545.39453125 4.367905 1.814969 -2.552936
1546.28515625 4.144684 2.270153 -1.874531
1547.125 4.562985 2.495 -2.067985
1547.93359375 4.542099 2.368205 -2.173894
1548.765625 4.015128000000001 2.099597 -1.915531
1549.61328125 4.086629 1.904952 -2.181677
1550.5 4.169459 2.065 -2.104459
1551.33203125 1.9538289999999998 -0.054945 -2.008774
1552.0625 3.8508299999999998 2.242348 -1.608482
1552.89453125 4.480019 1.976688 -2.503331
1553.73046875 4.278079 1.747904 -2.530175
1554.55859375 4.164775000000001 1.507361 -2.657414
1555.38671875 4.424958 1.631123 -2.793835
1556.2578125 3.821309 1.375839 -2.44547
1556.9296875 3.900002 1.679904 -2.220098
1557.86328125 4.176032 1.67661 -2.499422
1558.73046875 4.369821 1.792339 -2.577482
1559.55078125 4.35104 1.918099 -2.432941
1560.359375 4.757287 1.87969 -2.877597
1561.203125 4.247834 1.655724 -2.59211
1562.07421875 4.220466 1.688109 -2.532357
1562.953125 4.4770520000000005 2.154162 -2.32289
1563.8125 4.421092 2.505266 -1.915826
1564.6640625 4.617678 2.414612 -2.203066
1565.4921875 4.539398 2.183945 -2.355453
1566.33203125 4.502824 2.109546 -2.393278
1567.1640625 4.225880999999999 1.741596 -2.484285
1568.0078125 4.225213 1.840224 -2.384989
1568.90625 3.625914 1.765914 -1.86
1569.79296875 4.362724 1.870408 -2.492316
1570.64453125 4.71701 1.914835 -2.802175
1571.46484375 4.707828 1.902493 -2.805335
1572.28515625 4.93305 1.951566 -2.981484
1573.1171875 4.2913440000000005 1.842272 -2.449072
1573.9921875 3.94116 1.70252 -2.23864
1574.86328125 4.093027 1.950336 -2.142691
1575.56640625 2.010481 -0.072112 -2.082593
1576.3046875 4.434141 2.004306 -2.429835
1577.16015625 4.478629 1.812478 -2.666151
1577.984375 4.591601000000001 1.78736 -2.804241
1578.796875 4.162057 1.62842 -2.533637
1579.65234375 4.143029 1.455018 -2.688011
1580.375 2.012672 -0.555 -2.567672
1581.1484375 3.932123 1.6214 -2.310723
1582.02734375 4.558933 1.87 -2.688933
1582.87109375 4.383961 1.922843 -2.461118
1583.6796875 4.478206999999999 1.968832 -2.509375
1584.515625 4.104145 1.80985 -2.294295
1585.19140625 1.9951439999999998 -0.397631 -2.392775
1585.92578125 4.070194 2.102025 -1.968169
1586.796875 4.2188099999999995 1.980519 -2.238291
1587.67578125 4.044562 1.88191 -2.162652
1588.5234375 4.238434 1.774077 -2.464357
1589.36328125 4.448696999999999 2.038223 -2.410474
1590.08984375 2.1177379999999997 -0.015979 -2.133717
1590.7890625 4.611636000000001 2.434082 -2.177554
1591.625 3.995079 2.27 -1.725079
1592.53125 3.766545 1.976545 -1.79
1593.41015625 4.086475 2.030177 -2.056298
1594.26171875 4.47894 1.968193 -2.510747
1595.08984375 4.472319 1.965685 -2.506634
1595.90234375 4.2484 1.829167 -2.419233
1596.73828125 4.049919 1.701341 -2.348578
1597.59375 4.351397 1.805526 -2.545871
1598.46484375 4.337484 1.756979 -2.580505
1599.3359375 3.7188099999999995 1.582596 -2.136214
1600.22265625 4.089881999999999 1.698423 -2.391459
1601.05078125 4.048384 1.738537 -2.309847
1601.87109375 4.463671 1.972879 -2.490792
1602.6953125 4.316708 2.134243 -2.182465
1603.546875 4.26937 1.921396 -2.347974
1604.42578125 4.707818 2.068529 -2.639289
1605.3203125 4.541893 2.332539 -2.209354
1606.1796875 4.489175 2.694506 -1.794669
1607.0078125 4.655845 3.042311 -1.613534
1607.8359375 4.74183 3.120447 -1.621383
1608.66796875 4.805356 3.08318 -1.722176
1609.51171875 4.585766 2.943407 -1.642359
1610.37109375 4.235892 2.745508 -1.490384
1611.2578125 4.807939 2.603294 -2.204645
1612.1328125 4.467511 2.471285 -1.996226
1612.9921875 4.6514050000000005 2.327836 -2.323569
1613.8125 4.76241 2.241786 -2.520624
1614.625 4.182228 2.17 -2.012228
1615.484375 4.24024 2.029086 -2.211154
1616.3671875 4.513787000000001 2.101313 -2.412474
1617.2421875 4.560657 2.219902 -2.340755
1618.09375 4.624433 2.459419 -2.165014
1618.94140625 4.9286010000000005 2.554192 -2.374409
1619.76171875 4.344175 2.355901 -1.988274
1620.6015625 4.606548 2.17078 -2.435768
1621.43359375 4.463597 2.125875 -2.337722
1622.296875 4.175509 1.580405 -2.595104
1623.19921875 3.8935709999999997 1.699588 -2.193983
1624.07421875 4.052064 2.00505 -2.047014
1624.91796875 4.434038 1.900661 -2.533377
1625.73046875 4.624142 1.884841 -2.739301
1626.5546875 4.657958 1.91166 -2.746298
1627.3984375 3.986863 1.906863 -2.08
1628.2890625 4.240186 1.932064 -2.308122
1629.15234375 3.949047 1.934047 -2.015
1630.0078125 3.938094 1.916849 -2.021245
1630.859375 4.417505 2.059312 -2.358193
1631.6953125 4.464555 1.960809 -2.503746
1632.515625 4.694848 2.089759 -2.605089
1633.34375 4.2471689999999995 1.994777 -2.252392
1634.22265625 4.142075999999999 2.06065 -2.081426
1635.10546875 4.232079 2.294924 -1.937155
1635.98828125 4.29293 2.067666 -2.225264
1636.83203125 4.282621000000001 1.82539 -2.457231
1637.6484375 4.610706 1.715706 -2.895
1638.4765625 3.9069130000000003 1.808809 -2.098104
1639.328125 4.49331 2.116581 -2.376729
1640.1953125 4.406727 2.107154 -2.299573
1641.06640625 4.267465 1.824238 -2.443227
1641.9296875 4.480705 1.862506 -2.618199
1642.77734375 4.397784 1.976865 -2.420919
1643.6171875 4.264342 2.175935 -2.088407
1644.4375 4.47651 2.189969 -2.286541
1645.26171875 4.420548 2.133272 -2.287276
1646.15234375 4.009562 1.792084 -2.217478
1647.03515625 4.3289349999999995 1.862631 -2.466304
1647.90625 4.220229 2.162467 -2.057762
1648.7421875 4.335191 2.478527 -1.856664
1649.57421875 4.581775 2.52452 -2.057255
1650.390625 4.50723 2.384344 -2.122886
1651.23828125 4.010159 2.205032 -1.805127
1652.09765625 3.9167129999999997 2.059331 -1.857382
1652.95703125 3.724726 1.970678 -1.754048
1653.8515625 3.68039 1.644529 -2.035861
1654.703125 4.39843 1.8785 -2.51993
1655.5234375 4.678248 1.945086 -2.733162
1656.3359375 4.451881 2.057253 -2.394628
1657.17578125 4.506839 2.140807 -2.366032
1658.05078125 3.496003 1.736044 -1.759959
1658.94921875 3.9535910000000003 1.621444 -2.332147
1659.8125 4.144382 1.678715 -2.465667
1660.6484375 4.523637 1.699902 -2.823735
1661.484375 4.165012 1.726425 -2.438587
1662.3125 4.539275 1.8188 -2.720475
1663.14453125 4.0705670000000005 1.764255 -2.306312
1663.9921875 4.039383 1.772309 -2.267074
1664.875 4.230018 1.51 -2.720018
1665.75 4.338425 2.08 -2.258425
1666.6171875 4.125101 2.534612 -1.590489
1667.44140625 4.503713 2.783207 -1.720506
1668.2578125 4.054259 2.482391 -1.571868
1669.1015625 3.7877039999999997 2.048875 -1.738829
1669.98046875 4.160096 1.832769 -2.327327
1670.86328125 4.334215 1.898976 -2.435239
1671.71875 4.195361 1.909261 -2.2861
1672.57421875 4.647005999999999 1.928683 -2.718323
1673.3984375 3.9685449999999998 1.701538 -2.267007
1674.23046875 4.2661999999999995 1.654925 -2.611275
1675.05078125 4.370164 1.690944 -2.67922
1675.89453125 4.2585690000000005 1.813182 -2.445387
1676.79296875 3.7667729999999997 1.794548 -1.972225
1677.6796875 4.353583 2.142621 -2.210962
1678.53125 4.186134 1.840447 -2.345687
1679.35546875 4.419655 1.721309 -2.698346
1680.1796875 4.596176 1.736046 -2.86013
1681.01171875 4.430547000000001 1.761508 -2.669039
1681.88671875 3.883484 1.580938 -2.302546
1682.7578125 4.164059 1.931229 -2.23283
1683.6171875 4.147498000000001 1.893231 -2.254267
1684.48046875 4.14674 1.913543 -2.233197
1685.3203125 4.594014 2.080835 -2.513179
1686.14453125 4.878515 2.052432 -2.826083
1686.9609375 4.8186029999999995 2.015475 -2.803128
1687.8125 4.453494 2.33338 -2.120114
1688.6875 4.332823 3.030333 -1.30249
1689.58203125 4.463543 3.376201 -1.087342
1690.44140625 4.946926 3.310213 -1.636713
1691.2734375 4.8908190000000005 3.100819 -1.79
1692.09765625 4.559554 2.806974 -1.75258
1692.9453125 4.912788 2.6388 -2.273988
1693.80078125 4.164742 2.453174 -1.711568
1694.6640625 4.226268 2.407791 -1.818477
1695.5390625 4.487693999999999 2.333265 -2.154429
1696.390625 4.435954 2.194619 -2.241335
1697.23046875 4.719056 2.025285 -2.693771
1698.0546875 4.844863999999999 2.027259 -2.817605
1698.8828125 4.55391 1.90709 -2.64682
1699.7265625 4.4628239999999995 2.258613 -2.204211
1700.6328125 4.572512 2.544202 -2.02831
1701.515625 4.486924 2.460918 -2.026006
1702.359375 4.576651999999999 2.868457 -1.708195
1703.19140625 4.784016 3.289488 -1.494528
1704.0078125 4.326696 3.16713 -1.159566
1704.84375 4.35293 2.84578 -1.50715
1705.69921875 4.655163999999999 2.409629 -2.245535
1706.5703125 4.333309 2.375 -1.958309
1707.44140625 3.8829329999999995 2.208903 -1.67403
1708.32421875 4.321206999999999 2.3 -2.021207
1709.15234375 3.966488 2.116424 -1.850064
1709.96484375 4.427187 2.137187 -2.29
1710.79296875 4.36468 2.286148 -2.078532
1711.640625 4.288708 2.315023 -1.973685
1712.5390625 3.9119990000000002 2.11736 -1.794639
1713.4296875 4.253368 2.151975 -2.101393
1714.2890625 4.228758 2.034461 -2.194297
1715.11328125 4.591635 1.901517 -2.690118
1715.94921875 4.527505 1.902837 -2.624668
1716.77734375 4.602933999999999 2.443005 -2.159929
1717.6171875 4.550957 2.906986 -1.643971
1718.48046875 4.36869 2.614125 -1.754565
1719.92578125 4.534429 2.509326 -2.025103
1720.78515625 4.274543 2.391144 -1.883399
1721.60546875 4.466863 2.22493 -2.241933
1722.41796875 4.664601 2.326792 -2.337809
1723.26171875 4.141465 2.203976 -1.937489
1724.15625 3.9214599999999997 2.02146 -1.9
1725.04296875 4.380536 2.113992 -2.266544
1725.8984375 3.802239 1.981028 -1.821211
1726.75 4.46317 1.96 -2.50317
1727.5703125 4.527357 1.990112 -2.537245
1728.40234375 4.270937999999999 2.010938 -2.26
1729.23046875 4.369535 2.291171 -2.078364
1730.0859375 4.066096 2.307339 -1.758757
1730.7890625 2.242323 0.304937 -1.937386
1731.5625 4.360077 2.413958 -1.946119
1732.421875 4.30435 2.044557 -2.259793
1733.234375 4.28811 1.820676 -2.467434
1734.0625 4.806242 1.86733 -2.938912
1734.88671875 4.774448 1.914742 -2.859706
1735.75 4.750306999999999 2.175 -2.575307
1736.63671875 4.9089290000000005 2.611381 -2.297548
1738.07421875 4.807428 3.004041 -1.803387
1738.9296875 4.655402 2.979605 -1.675797
1739.75 4.862019 2.985 -1.877019
1740.5703125 5.0038 2.964303 -2.039497
1741.40625 4.710339 2.756536 -1.953803
1742.27734375 4.706317 2.611317 -2.095
1743.1640625 4.665962 2.574763 -2.091199
1744.5859375 4.559244 2.919404 -1.63984
1745.4140625 4.866445000000001 2.899773 -1.966672
1746.2421875 4.464375 2.738328 -1.726047
1747.08984375 4.633221000000001 2.503718 -2.129503
1747.953125 4.702751 2.318646 -2.384105
1748.8203125 4.643751 2.3725 -2.271251
1749.69140625 4.437506 2.391881 -2.045625
1750.54296875 4.64983 2.28687 -2.36296
1751.3828125 4.357547 2.191768 -2.165779
1752.19921875 4.748253 2.147386 -2.600867
1753.01953125 4.750592 2.139961 -2.610631
1753.87890625 4.576596 2.215131 -2.361465
1754.78515625 4.471007 2.257235 -2.213772
1755.6640625 4.803479 2.409612 -2.393867
1756.5078125 4.676913 2.405146 -2.271767
1757.96484375 4.419293 2.586048 -1.833245
1758.8046875 4.650259999999999 2.461508 -2.188752
1759.65625 4.824472 2.33425 -2.490222
1760.5234375 4.6952549999999995 2.386629 -2.308626
1761.39453125 4.501215999999999 2.62491 -1.876306
1762.28515625 5.102777 2.825091 -2.277686
1763.11328125 4.918566 2.918515 -2.000051
1763.91796875 4.71863 2.865703 -1.852927
1764.74609375 4.754294 2.714516 -2.039778
1765.58984375 4.805744 2.55 -2.255744
1766.484375 4.534198 2.283376 -2.250822
1767.9765625 4.870908999999999 2.289017 -2.581892
1768.8125 4.95943 2.129051 -2.830379
1769.65234375 4.6324749999999995 2.038235 -2.59424
1770.4765625 4.925572 2.075706 -2.849866
1771.3046875 4.51759 2.352962 -2.164628
1772.17578125 4.292603 2.469422 -1.823181
1773.04296875 4.506446 2.47173 -2.034716
1773.921875 4.500461 2.376706 -2.123755
1774.78125 4.963662 2.209267 -2.754395
1775.6015625 4.870915999999999 2.244242 -2.626674
1776.41015625 4.846140999999999 2.267639 -2.578502
1777.265625 4.04145 2.250119 -1.791331
1778.1484375 4.058882 2.323352 -1.73553
1779.01171875 4.3763689999999995 2.397877 -1.978492
1779.875 4.582433 2.37 -2.212433
1780.72265625 4.542795 2.348817 -2.193978
1781.55859375 4.580603 2.364448 -2.216155
1782.390625 4.839067 2.362045 -2.477022
1783.21875 4.653462 2.330719 -2.322743
1784.06640625 4.588036000000001 2.285 -2.303036
1784.97265625 4.4593430000000005 2.269343 -2.19
1785.83984375 4.799867 2.294397 -2.50547
1786.68359375 4.838759 2.509753 -2.329006
1787.50390625 4.937177 2.66053 -2.276647
1788.328125 4.845338 2.573242 -2.272096
1789.16796875 4.596604 2.512546 -2.084058
1790.046875 4.657719 2.56248 -2.095239
1790.92578125 4.816407 2.499523 -2.316884
1791.78515625 4.672013 2.446265 -2.225748
1792.65234375 4.719748 2.754748 -1.965
1793.48046875 5.343677 2.86491 -2.478767
1794.296875 4.879452000000001 2.557697 -2.321755
1795.671875 4.8567029999999995 3.308958 -1.547745
1796.5390625 4.771694 3.264763 -1.506931
1797.4296875 4.758491 2.97018 -1.788311
1798.29296875 5.006485 2.429035 -2.57745
1799.00390625 2.194625 -0.015447 -2.210072
1799.69921875 4.587562 2.655798 -1.931764
1800.54296875 4.906949 2.443874 -2.463075
1801.3984375 4.702128999999999 2.140793 -2.561336
1802.2578125 4.613187 2.01715 -2.596037
1803.1328125 4.606931 1.974639 -2.632292
1804.0 4.715848 1.97 -2.745848
