83 
248 
418 
585 
757 
931 
1098 
1263 
1439 
1615 
1785 
1949 
2116 
2282 
2450 
2621 
2788 
2950 
3116 
3290 
3458 
3620 
3784 
3951 
4115 
4280 
4447 
4613 
4778 
4946 
5115 
5282 
5446 
5611 
5778 
5947 
6119 
6282 
6447 
6616 
6791 
6959 
7123 
7288 
7456 
7626 
7797 
7959 
8123 
8288 
8460 
8625 
8790 
8953 
9121 
9283 
9452 
9620 
9787 
9949 
10120 
10290 
10457 
10620 
10785 
10949 
11117 
11288 
11451 
11613 
11778 
11953 
12119 
12282 
12445 
12614 
12781 
12951 
13117 
13283 
13446 
13620 
13786 
13952 
14112 
14276 
14437 
14603 
14768 
14931 
15090 
15255 
15422 
15586 
15747 
15911 
16075 
16243 
16412 
16575 
16739 
16901 
17073 
17235 
17400 
17560 
17724 
17884 
18052 
18219 
18382 
18541 
18710 
18881 
19048 
19208 
19371 
19536 
19702 
19873 
20037 
20199 
20364 
20536 
20700 
20864 
21028 
21196 
21360 
21528 
21692 
21858 
22018 
22186 
22353 
22519 
22678 
22841 
23004 
23171 
23338 
23500 
23660 
23823 
23992 
24156 
24319 
24478 
24645 
24808 
24976 
25142 
25306 
25468 
25637 
25806 
25973 
26133 
26296 
26458 
26625 
26792 
26955 
27117 
27284 
27456 
27621 
27785 
27950 
28117 
28282 
28450 
28617 
28783 
28946 
29116 
29288 
29456 
29619 
29784 
29948 
30116 
30289 
30453 
30614 
30780 
30953 
31120 
31282 
31444 
31610 
31775 
31939 
32103 
32266 
32422 
32584 
32754 
32920 
33085 
33251 
33417 
33585 
33755 
33918 
34082 
34249 
34422 
34591 
34756 
34922 
35090 
35263 
35434 
35599 
35765 
35929 
36103 
36270 
36437 
36601 
36770 
36935 
37105 
37272 
37438 
37602 
37775 
37944 
38109 
38272 
38437 
38600 
38767 
38937 
39100 
39260 
39427 
39599 
39763 
39923 
40087 
40254 
40421 
40591 
40756 
40922 
41085 
41255 
41421 
41586 
41747 
41911 
42073 
42239 
42406 
42570 
42731 
42899 
43070 
43237 
43400 
43564 
43731 
43900 
44071 
44235 
44401 
44569 
44745 
44909 
45071 
45234 
45400 
45566 
45736 
45898 
46063 
46225 
46397 
46565 
46732 
46896 
47063 
47226 
47396 
47566 
47732 
47892 
48060 
48229 
48395 
48555 
48718 
48882 
49047 
49215 
49376 
49538 
49701 
49873 
50039 
50203 
50364 
50532 
50694 
50862 
51028 
51192 
51351 
51517 
51687 
51854 
52014 
52179 
52345 
52514 
52685 
52853 
53021 
53188 
53361 
53527 
53693 
53856 
54022 
54187 
54352 
54519 
54682 
54843 
55011 
55179 
55347 
55507 
55673 
55838 
56010 
56182 
56347 
56508 
56677 
56849 
57016 
57178 
57344 
57510 
57676 
57845 
58011 
58175 
58338 
58507 
58676 
58843 
59008 
59177 
59340 
59509 
59680 
59847 
60010 
60179 
60351 
60517 
60678 
60843 
61008 
61177 
61348 
61513 
61678 
61848 
62025 
62195 
62361 
62529 
62699 
62873 
63046 
63213 
63380 
63550 
63725 
63894 
64060 
64230 
64401 
64573 
64747 
64917 
65087 
65258 
65436 
65605 
65773 
65943 
66113 
66283 
66455 
66623 
66790 
66957 
67132 
67302 
67469 
67635 
67806 
67976 
68147 
68318 
68485 
68650 
68821 
68991 
69155 
69317 
69482 
69644 
69808 
69974 
70134 
70293 
70456 
70624 
70787 
70947 
71108 
71273 
71438 
71604 
71767 
71929 
72089 
72254 
72421 
72586 
72744 
72905 
73067 
73235 
73405 
73566 
73729 
73894 
74067 
74231 
74394 
74557 
74723 
74885 
75052 
75216 
75379 
75537 
75704 
75869 
76034 
76194 
76358 
76521 
76686 
76855 
77017 
77182 
77344 
77518 
77681 
77844 
78007 
78174 
78337 
78506 
78673 
78839 
78998 
79168 
79339 
79507 
79668 
79834 
80001 
80172 
80344 
80513 
80678 
80848 
81022 
81190 
81353 
81521 
81690 
81861 
82031 
82195 
82361 
82529 
82703 
82870 
83036 
83202 
83373 
83543 
83715 
83884 
84051 
84218 
84394 
84565 
84733 
84898 
85065 
85229 
85401 
85567 
85735 
85900 
86076 
86249 
86419 
86585 
86756 
86922 
87093 
87264 
87433 
87596 
87767 
87938 
88106 
88268 
88437 
88606 
88778 
88953 
89122 
89290 
89464 
89639 
89812 
89978 
90148 
90318 
90494 
90671 
90843 
91011 
91184 
91359 
91532 
91698 
91868 
92036 
92210 
92385 
92555 
92723 
92901 
93077 
93250 
93420 
93593 
93764 
93941 
94117 
94288 
94456 
94632 
94807 
94980 
95147 
95316 
95485 
95658 
95835 
96004 
96169 
96339 
96513 
96682 
96844 
97008 
97173 
97340 
97509 
97674 
97836 
98001 
98173 
98340 
98506 
98671 
98842 
99012 
99182 
99352 
99518 
99684 
99856 
100028 
100197 
100361 
100526 
100691 
100858 
101029 
101193 
101356 
101523 
101696 
101863 
102028 
102194 
102363 
102534 
102708 
102875 
103041 
103209 
103383 
103550 
103716 
103882 
104053 
104223 
104395 
104566 
104736 
104906 
105085 
105255 
105423 
105590 
105762 
105929 
106099 
106268 
106436 
106599 
106770 
106941 
107110 
107275 
107447 
107615 
107787 
107959 
108130 
108297 
108470 
108644 
108815 
108979 
109147 
109315 
109486 
109661 
109830 
110000 
110178 
110356 
110531 
110701 
110874 
111045 
111221 
111395 
111566 
111734 
111909 
112081 
112253 
112419 
112587 
112753 
112923 
113096 
113263 
113426 
113598 
113771 
113940 
114104 
114272 
114439 
114610 
114783 
114950 
115114 
115284 
115459 
115626 
115789 
115953 
116121 
116292 
116463 
116628 
116794 
116960 
117136 
117303 
117469 
117635 
117805 
117973 
118143 
118308 
118476 
118638 
118809 
118975 
119142 
119304 
119470 
119633 
119801 
119969 
120134 
120296 
120465 
120635 
120802 
120962 
121125 
121289 
121455 
121624 
121786 
121946 
122108 
122279 
122443 
122606 
122768 
122933 
123094 
123261 
123428 
123592 
123752 
123920 
124090 
124256 
124417 
124583 
124748 
124915 
125083 
125247 
125411 
125574 
125745 
125910 
126075 
126238 
126405 
126570 
126738 
126908 
127072 
127233 
127401 
127572 
127740 
127899 
128063 
128227 
128395 
128563 
128727 
128890 
129055 
129225 
129390 
129553 
129717 
129883 
130049 
130216 
130381 
130544 
130706 
130873 
131038 
131201 
131360 
131522 
131683 
131849 
132017 
132178 
132338 
132502 
132673 
132839 
132999 
133161 
133326 
133489 
133653 
133817 
133977 
134134 
134300 
134467 
134630 
134789 
134951 
135114 
135279 
135448 
135610 
135772 
135938 
136109 
136274 
136435 
136599 
136764 
136929 
137094 
137257 
137419 
137580 
137747 
137913 
138077 
138239 
138400 
138561 
138729 
138901 
139064 
139224 
139390 
139561 
139726 
139886 
140050 
140214 
140380 
140548 
140711 
140872 
141034 
141203 
141367 
141528 
141691 
141857 
142020 
142185 
142351 
142512 
142671 
142836 
143004 
143167 
143324 
143484 
143646 
143810 
143975 
144137 
144298 
144458 
144624 
144792 
144957 
145117 
145279 
145441 
145605 
145773 
145932 
146092 
146255 
146423 
146584 
146745 
146907 
147074 
147239 
147409 
147574 
147741 
147909 
148082 
148252 
148421 
148588 
148757 
148923 
149095 
149267 
149434 
149598 
149768 
149941 
150110 
150276 
150444 
150612 
150782 
150957 
151124 
151288 
151457 
151631 
151798 
151960 
152124 
152292 
152459 
152627 
152791 
152957 
153122 
153297 
153464 
153632 
153798 
153971 
154140 
154314 
154483 
154651 
154819 
154993 
155162 
155334 
155499 
155669 
155835 
156007 
156177 
156345 
156509 
156683 
156853 
157023 
157187 
157356 
157521 
157693 
157863 
158030 
158193 
158365 
158537 
158705 
158868 
159035 
159201 
159371 
159542 
159708 
159871 
160040 
160216 
160384 
160547 
160715 
160883 
161054 
161225 
161392 
161560 
161725 
161899 
162068 
162234 
162400 
162569 
162739 
162911 
163077 
163245 
163412 
163585 
163753 
163920 
164082 
164249 
164413 
164581 
164745 
164909 
165069 
165238 
165405 
165571 
165732 
165897 
166060 
166231 
166402 
166570 
166735 
166906 
167079 
167247 
167409 
167577 
167742 
167909 
168077 
168242 
168404 
168567 
168739 
168906 
169071 
169232 
169400 
169566 
169735 
169903 
170070 
170231 
170404 
170575 
170745 
170906 
171071 
171235 
171404 
171573 
171738 
171900 
172068 
172239 
172406 
172569 
172735 
172901 
173070 
173238 
173404 
173569 
173734 
173903 
174067 
174230 
174390 
174552 
174712 
174880 
175049 
175213 
175374 
175544 
175717 
175884 
176045 
176210 
176375 
176545 
176713 
176878 
177041 
177207 
177380 
177545 
177709 
177876 
178046 
178214 
178383 
178553 
178722 
178889 
179062 
179234 
179402 
179569 
179738 
179905 
180075 
180244 
180411 
180576 
180746 
180918 
181087 
181250 
181417 
181582 
181756 
181929 
182094 
182259 
182429 
182601 
182768 
182931 
183096 
183260 
183428 
183599 
183761 
183923 
184090 
184262 
184426 
184589 
184756 
184923 
185093 
185263 
185431 
185598 
185764 
185939 
186108 
186273 
186438 
186604 
186770 
186938 
187107 
187273 
187436 
187605 
187777 
187944 
188107 
188270 
188435 
188602 
188771 
188934 
189096 
189263 
189432 
189596 
189756 
189920 
190085 
190254 
190424 
190588 
190752 
190918 
191091 
191257 
191423 
191587 
191753 
191917 
192086 
192254 
192416 
192576 
192743 
192911 
193077 
193238 
193401 
193564 
193730 
193902 
194065 
194229 
194396 
194572 
194738 
194902 
195068 
195238 
195407 
195576 
195742 
195909 
196077 
196252 
196423 
196592 
196759 
196931 
197101 
197274 
197445 
197616 
197782 
197955 
198127 
198298 
198463 
198630 
198797 
198969 
199142 
199310 
199473 
199646 
199817 
199986 
200151 
200318 
200484 
200655 
200827 
200993 
201156 
201325 
201498 
201663 
201826 
201991 
202157 
202326 
202496 
202660 
202823 
202987 
203160 
203325 
203492 
203654 
203821 
203983 
204151 
204316 
204481 
204639 
204805 
204974 
205140 
205299 
205463 
205626 
205796 
205966 
206128 
206292 
206460 
206633 
206800 
206961 
207125 
207292 
207461 
207630 
207792 
207956 
208119 
208290 
208454 
208620 
208783 
208949 
209113 
209283 
209451 
209618 
209780 
209952 
210121 
210289 
210453 
210622 
210786 
210956 
211128 
211296 
211459 
211631 
211807 
211978 
212143 
212314 
212484 
212659 
212834 
213006 
213172 
213347 
213522 
213694 
213858 
214026 
214192 
214364 
214537 
214705 
214869 
215040 
215214 
215385 
215550 
215718 
215886 
216059 
216231 
216386 
216537 
216660 
216797 
216921 
217039 
217179 
217319 
217468 
217626 
217777 
217940 
218104 
218246 
218382 
218539 
218706 
218878 
219047 
219212 
219351 
219496 
219657 
219793 
219929 
220074 
220215 
220350 
220474 
220588 
220695 
220805 
220918 
221038 
221168 
221276 
221394 
221512 
221626 
221735 
221842 
221957 
222070 
222179 
222284 
222397 
222514 
222619 
222726 
222827 
222932 
223188 
223374 
223551 
223733 
223911 
224087 
224258 
224431 
224606 
224782 
224957 
225130 
225302 
225480 
225653 
225824 
225995 
226168 
226339 
226513 
226685 
226854 
227026 
227204 
227376 
227547 
227718 
227891 
228063 
228238 
228409 
228577 
228745 
228922 
229094 
229261 
229424 
229595 
229763 
229933 
230103 
230269 
230436 
230609 
230780 
230947 
231111 
231278 
231444 
231612 
231781 
231946 
232111 
232282 
232453 
232621 
232785 
232952 
233119 
233290 
233463 
233630 
233794 
233964 
234138 
234308 
234472 
234637 
234803 
234974 
235148 
235312 
235475 
235643 
235816 
235982 
236144 
236311 
236477 
236646 
236816 
236983 
237148 
237315 
237488 
237654 
237818 
237983 
238152 
238319 
238487 
238654 
238818 
238983 
239154 
239326 
239494 
239660 
239828 
239997 
240169 
240342 
240512 
240678 
240850 
241024 
241196 
241363 
241529 
241695 
241867 
242041 
242207 
242373 
242546 
242722 
242892 
243058 
243226 
243395 
243567 
243741 
243906 
244072 
244242 
244417 
244584 
244747 
244913 
245079 
245248 
245420 
245586 
245752 
245918 
246091 
246259 
246425 
246590 
246762 
246928 
247098 
247269 
247438 
247603 
247775 
247946 
248116 
248280 
248452 
248622 
248795 
248968 
249141 
249309 
249487 
249662 
249836 
250006 
250180 
250351 
250526 
250699 
250869 
251036 
251210 
251380 
251550 
251717 
251887 
252054 
252227 
252399 
252569 
252734 
252909 
253083 
253253 
253419 
253589 
253756 
253929 
254100 
254266 
254430 
254604 
254778 
254947 
255111 
255280 
255447 
255619 
255792 
255960 
256126 
256298 
256474 
256646 
256811 
256977 
257145 
257316 
257490 
257657 
257824 
257994 
258169 
258339 
258505 
258673 
258841 
259014 
259191 
259357 
259523 
259694 
259869 
260035 
260198 
260362 
260528 
260697 
260869 
261034 
261198 
261365 
261540 
261706 
261871 
262038 
262207 
262376 
262548 
262683 
262883 
263049 
263222 
263387 
263552 
263716 
263885 
264050 
264220 
264386 
264554 
264718 
264891 
265063 
265233 
265395 
265561 
265726 
265895 
266065 
266229 
266390 
266558 
266730 
266897 
267058 
267222 
267387 
267556 
267727 
267890 
268054 
268219 
268390 
268552 
268718 
268880 
269047 
269208 
269375 
269540 
269708 
269869 
270041 
270211 
270380 
270545 
270715 
270883 
271057 
271233 
271402 
271565 
271739 
271914 
272084 
272248 
272416 
272584 
272756 
272928 
273098 
273265 
273438 
273615 
273787 
273953 
274126 
274295 
274470 
274645 
274814 
274981 
275155 
275330 
275504 
275669 
275840 
276010 
276188 
276364 
276535 
276702 
276877 
277055 
277228 
277394 
277564 
277732 
277906 
278082 
278249 
278413 
278586 
278758 
278927 
279089 
279256 
279421 
279589 
279760 
279925 
280089 
280262 
280438 
280607 
280770 
280939 
281108 
281281 
281453 
281622 
281789 
281959 
282136 
282307 
282474 
282644 
282814 
282989 
283166 
283337 
283506 
283679 
283856 
284029 
284195 
284364 
284533 
284708 
284883 
285052 
285218 
285391 
285568 
285737 
285901 
286070 
286239 
286411 
286585 
286752 
286918 
287088 
287263 
287434 
287600 
287769 
287938 
288110 
288284 
288453 
288621 
288791 
288967 
289140 
289308 
289477 
289649 
289823 
289996 
290166 
290335 
290505 
290683 
290854 
291020 
291189 
291359 
291531 
291704 
291872 
292039 
292209 
292385 
292555 
292724 
292892 
293061 
293230 
293401 
293571 
293738 
293902 
294072 
294241 
294408 
294573 
294738 
294903 
295073 
295247 
295413 
295576 
295748 
295920 
296087 
296248 
296416 
296582 
296752 
296923 
297088 
297250 
297419 
297594 
297763 
297928 
298098 
298270 
298446 
298623 
298795 
298965 
299136 
299314 
299486 
299653 
299823 
299993 
300166 
300342 
300510 
300678 
300851 
301029 
301202 
301370 
301540 
301711 
301887 
302064 
302233 
302400 
302575 
302753 
302923 
303089 
303258 
303427 
303600 
303777 
303944 
304110 
304285 
304460 
304630 
304794 
304962 
305130 
305300 
305475 
305644 
305810 
305981 
306158 
306328 
306493 
306662 
306830 
307005 
307182 
307350 
307518 
307691 
307869 
308042 
308207 
308374 
308542 
308715 
308889 
309057 
309226 
309402 
309582 
309758 
309930 
310105 
310277 
310455 
310632 
310804 
310973 
311151 
311327 
311500 
311673 
311846 
312017 
312193 
312367 
312537 
312705 
312879 
313054 
313226 
313393 
313564 
313732 
313904 
314078 
314246 
314412 
314584 
314758 
314928 
315094 
315259 
315426 
315594 
315764 
315929 
316093 
316262 
316436 
316604 
316768 
316935 
317103 
317274 
317446 
317611 
317777 
317943 
318115 
318280 
318446 
318609 
318775 
318943 
319114 
319283 
319450 
319616 
319790 
319960 
320128 
320294 
320463 
320629 
320799 
320969 
321137 
321302 
321474 
321645 
321814 
321982 
322154 
322323 
322495 
322668 
322836 
323002 
323173 
323347 
323516 
323680 
323847 
324014 
324185 
324359 
324527 
324692 
324862 
325039 
325212 
325381 
325552 
325722 
325897 
326074 
326245 
326414 
326589 
326765 
326936 
327102 
327269 
327436 
327607 
327780 
327948 
328113 
328288 
328464 
328636 
328805 
328976 
329147 
329321 
329498 
329670 
329838 
330013 
330191 
330365 
330535 
330669 
330880 
331056 
331229 
331399 
331565 
331737 
331909 
332079 
332244 
332413 
332583 
332755 
332926 
333096 
333263 
333439 
333614 
333785 
333952 
334125 
334295 
334469 
334642 
334812 
334981 
335156 
335330 
335503 
335673 
335846 
336014 
336188 
336361 
336531 
336698 
336871 
337044 
337214 
337380 
337551 
337718 
337891 
338063 
338231 
338398 
338574 
338748 
338919 
339086 
339257 
339426 
339599 
339772 
339942 
340107 
340280 
340454 
340625 
340793 
340963 
341134 
341309 
341486 
341661 
341833 
342010 
342187 
342364 
342536 
342710 
342883 
343061 
343236 
343409 
343580 
343759 
343934 
344107 
344276 
344450 
344623 
344799 
344972 
345143 
345311 
345489 
345658 
345827 
345995 
346166 
346334 
346508 
346678 
346850 
347017 
347192 
347361 
347529 
347696 
347870 
348038 
348211 
348383 
348556 
348727 
348908 
349083 
349255 
349423 
349596 
349768 
349944 
350112 
350282 
350452 
350633 
350807 
350978 
351150 
351325 
351500 
351678 
351849 
352021 
352195 
352375 
352546 
352716 
352887 
353059 
353232 
353411 
353579 
353747 
353918 
354095 
354263 
354426 
354592 
354758 
354926 
355097 
355261 
355423 
355584 
355753 
355916 
356077 
356235 
356400 
356559 
356724 
356886 
357049 
357207 
357372 
357538 
357701 
357859 
358021 
358183 
358349 
358516 
358679 
358842 
359007 
359178 
359341 
359504 
359665 
359831 
359994 
360161 
360323 
360484 
360640 
360805 
360969 
361131 
361286 
361444 
361602 
361761 
361926 
362083 
362241 
362397 
362564 
362724 
362885 
363041 
363202 
363360 
363522 
363685 
363841 
363997 
364155 
364320 
364475 
364632 
364785 
364945 
365101 
365263 
365426 
365585 
365744 
365906 
366074 
366236 
366395 
366555 
366719 
366883 
367050 
367213 
367377 
367537 
367705 
367871 
368038 
368199 
368366 
368529 
368699 
368867 
369032 
369193 
369362 
369531 
369696 
369857 
370024 
370189 
370359 
370532 
370699 
370866 
371039 
371217 
371391 
371559 
371734 
371907 
372084 
372265 
372442 
372612 
372788 
372967 
373144 
373311 
373484 
373656 
373832 
374005 
374178 
374347 
374526 
374702 
374876 
375044 
375219 
375391 
375569 
375741 
375913 
376084 
376266 
376438 
376611 
376780 
376954 
377124 
377299 
377469 
377641 
377809 
377986 
378157 
378326 
378496 
378669 
378840 
379014 
379184 
379352 
379518 
379693 
379859 
380025 
380187 
380356 
380524 
380693 
380860 
381029 
381195 
381371 
381542 
381714 
381882 
382057 
382229 
382405 
382576 
382749 
382919 
383098 
383271 
383445 
383618 
383794 
383972 
384152 
384326 
384499 
384676 
384859 
385034 
385203 
385375 
385547 
385721 
385898 
386067 
386232 
386404 
386581 
386751 
386916 
387085 
387253 
387426 
387601 
387770 
387937 
388107 
388283 
388452 
388615 
388780 
388949 
389117 
389287 
389454 
389622 
389790 
389966 
390135 
390304 
390473 
390645 
390818 
390994 
391165 
391334 
391504 
391681 
391852 
392021 
392188 
392359 
392530 
392704 
392874 
393044 
393216 
393395 
393567 
393738 
393910 
394085 
394259 
394433 
394603 
394773 
394944 
395121 
395291 
395458 
395626 
395797 
395969 
396142 
396311 
396479 
396648 
396826 
396998 
397165 
397331 
397502 
397671 
397843 
398010 
398175 
398341 
398516 
398685 
398851 
399016 
399187 
399358 
399528 
399695 
399862 
400030 
400205 
400373 
400541 
400707 
400877 
401046 
401218 
401386 
401553 
401716 
401889 
402057 
402224 
402389 
402557 
402722 
402894 
403063 
403232 
403396 
403570 
403740 
403909 
404072 
404242 
404407 
404576 
404744 
404914 
405079 
405253 
405425 
405597 
405763 
405935 
406106 
406281 
406454 
406626 
406793 
406967 
407141 
407314 
407481 
407650 
407816 
407991 
408162 
408331 
408497 
408671 
408844 
409017 
409184 
409355 
409521 
409696 
409870 
410039 
410204 
410381 
410556 
410728 
410894 
411065 
411234 
411408 
411582 
411754 
411920 
412096 
412274 
412447 
412615 
412787 
412956 
413131 
413304 
413477 
413643 
413816 
413988 
414160 
414327 
414495 
414663 
414836 
415009 
415179 
415344 
415519 
415694 
415866 
416031 
416202 
416371 
416546 
416719 
416890 
417055 
417229 
417401 
417572 
417738 
417909 
418076 
418251 
418427 
418599 
418766 
418943 
419118 
419292 
419461 
419635 
419803 
419977 
420152 
420324 
420490 
420667 
420843 
421016 
421182 
421355 
421526 
421700 
421873 
422044 
422211 
422387 
422560 
422731 
422896 
423064 
423230 
423402 
423569 
423737 
423902 
424076 
424246 
424417 
424585 
424755 
424921 
425095 
425269 
425438 
425603 
425779 
425949 
426118 
426283 
426453 
426620 
426794 
426968 
427140 
427308 
427487 
427664 
427838 
428009 
428186 
428359 
428535 
428710 
428883 
429054 
429233 
429405 
429575 
429747 
429921 
430096 
430273 
430443 
430615 
430788 
430968 
431141 
431309 
431480 
431650 
431826 
432000 
432168 
432336 
432507 
432682 
432854 
433021 
433189 
433358 
433531 
433707 
433876 
434042 
434213 
434389 
434557 
434722 
434889 
435058 
435227 
435396 
435563 
435728 
435894 
436069 
436236 
436403 
436568 
436739 
436908 
437077 
437246 
437415 
437580 
437715 
437921 
438091 
438254 
438419 
438582 
438751 
438920 
439087 
439249 
439419 
439590 
439759 
439920 
440086 
440251 
440421 
440591 
440756 
440920 
441091 
441265 
441432 
441578 
441764 
441933 
442108 
442284 
442453 
442620 
442793 
442970 
443142 
443308 
443480 
443648 
443823 
444001 
444172 
444340 
444515 
444695 
444872 
445042 
445218 
445390 
445569 
445746 
445921 
446091 
446272 
446449 
446623 
446792 
446965 
447135 
447309 
447479 
447648 
447815 
447990 
448160 
448328 
448493 
448661 
448825 
448995 
449161 
449329 
449490 
449660 
449828 
449995 
450157 
450321 
450484 
450655 
450826 
450991 
451154 
451325 
451500 
451671 
451834 
452005 
452175 
452351 
452528 
452700 
452867 
453044 
453221 
453395 
453563 
453736 
453907 
454084 
454259 
454433 
454605 
454783 
454958 
455135 
455308 
455484 
455657 
455835 
456010 
456182 
456355 
456535 
456710 
456882 
457051 
457223 
457397 
457574 
457744 
457912 
458083 
458263 
458434 
458602 
458773 
458946 
459118 
459294 
459466 
459636 
459807 
459985 
460156 
460324 
460493 
460664 
460838 
461012 
461183 
461354 
461527 
461706 
461880 
462048 
