462185 
68 
187 
385 
581 
772 
960 
1152 
1343 
1536 
1727 
1919 
2110 
2302 
2496 
2686 
2878 
3075 
3267 
3461 
3658 
3851 
4044 
4236 
4433 
4631 
4824 
5024 
5220 
5415 
5611 
5806 
6001 
6200 
6393 
6587 
6786 
6978 
7169 
7362 
7555 
7750 
7943 
8136 
8331 
8528 
8721 
8912 
9106 
9310 
9506 
9704 
9907 
10100 
10295 
10491 
10685 
10880 
11073 
11266 
11462 
11659 
11852 
12042 
12238 
12440 
12637 
12835 
13036 
13236 
13436 
13631 
13831 
14033 
14227 
14425 
14627 
14824 
15023 
15219 
15417 
15620 
15818 
16021 
16217 
16412 
16612 
16807 
17002 
17200 
17395 
17594 
17795 
17985 
18184 
18381 
18581 
18776 
18971 
19173 
19367 
19561 
19757 
19951 
20150 
20342 
20534 
20733 
20927 
21116 
21310 
21504 
21702 
21897 
22090 
22291 
22488 
22679 
22874 
23068 
23267 
23459 
23653 
23856 
24053 
24249 
24446 
24645 
24845 
24957 
25241 
25439 
25557 
25830 
26026 
26218 
26417 
26610 
26808 
27004 
27198 
27393 
27586 
27784 
27981 
28178 
28378 
28575 
28774 
28971 
29164 
29363 
29564 
29759 
29956 
30153 
30346 
30541 
30736 
30932 
31135 
31331 
31530 
31729 
31922 
32119 
32314 
32512 
32711 
32906 
33109 
33308 
33504 
33702 
33899 
34098 
34299 
34494 
34690 
34888 
35081 
35275 
35469 
35664 
35857 
36050 
36251 
36444 
36634 
36833 
37024 
37223 
37422 
37614 
37814 
38011 
38120 
38396 
38592 
38784 
38977 
39169 
39366 
39559 
39750 
39924 
40138 
40334 
40456 
40719 
40917 
41110 
41298 
41488 
41678 
41869 
42058 
42249 
42444 
42634 
42823 
43018 
43207 
43404 
43600 
43789 
43986 
44177 
44365 
44558 
44749 
44938 
45131 
45324 
45520 
45712 
45901 
46096 
46288 
46484 
46678 
46870 
47069 
47261 
47452 
47644 
47836 
48029 
48223 
48415 
48613 
48804 
48994 
49190 
49381 
49577 
49771 
49962 
50161 
50354 
50545 
50738 
50928 
51120 
51315 
51505 
51697 
51890 
52081 
52272 
52460 
52654 
52849 
53037 
53145 
53423 
53616 
53805 
53996 
54183 
54377 
54567 
54754 
54950 
55140 
55327 
55516 
55709 
55901 
56091 
56280 
56475 
56665 
56851 
57045 
57233 
57422 
57614 
57803 
57994 
58187 
58375 
58566 
58757 
58946 
59139 
59328 
59520 
59712 
59902 
60092 
60277 
60468 
60662 
60851 
61042 
61236 
61429 
61617 
61810 
62002 
62198 
62388 
62582 
62779 
62973 
63165 
63353 
63548 
63745 
63938 
64132 
64329 
64525 
64719 
64914 
65109 
65307 
65500 
65696 
65891 
66081 
66276 
66464 
66653 
66849 
67037 
67233 
67353 
67617 
67813 
67919 
68196 
68318 
68586 
68777 
68971 
69158 
69350 
69535 
69725 
69920 
70108 
70300 
70494 
70687 
70884 
71079 
71275 
71478 
71676 
71874 
72076 
72275 
72471 
72665 
72863 
73063 
73257 
73456 
73654 
73852 
74050 
74161 
74435 
74632 
74822 
74929 
75203 
75393 
75578 
75765 
75949 
76142 
76328 
76519 
76719 
76917 
77115 
77314 
77514 
77719 
77916 
78113 
78317 
78515 
78706 
78902 
79097 
79297 
79492 
79687 
79887 
80085 
80279 
80473 
80667 
80865 
81055 
81247 
81443 
81636 
81823 
82017 
82214 
82411 
82606 
82801 
82999 
83193 
83387 
83578 
83766 
83964 
84151 
84338 
84533 
84724 
84910 
85098 
85287 
85481 
85671 
85859 
86052 
86246 
86436 
86625 
86817 
87012 
87201 
87389 
87585 
87775 
87960 
88151 
88341 
88534 
88724 
88912 
89109 
89301 
89421 
89679 
89871 
90064 
90251 
90439 
90634 
90822 
91010 
91205 
91397 
91591 
91786 
91978 
92174 
92367 
92559 
92753 
92944 
93140 
93336 
93528 
93725 
93858 
94106 
94301 
94492 
94685 
94877 
95068 
95264 
95458 
95649 
95758 
96031 
96225 
96419 
96609 
96803 
96996 
97187 
97381 
97570 
97759 
97957 
98145 
98334 
98530 
98724 
98908 
99098 
99286 
99479 
99668 
99857 
100051 
100168 
100429 
100621 
100812 
101007 
101199 
101389 
101589 
101784 
101973 
102168 
102360 
102556 
102748 
102939 
103135 
103323 
103509 
103698 
103886 
104076 
104266 
104454 
104646 
104837 
105022 
105216 
105404 
105596 
105794 
105919 
106179 
106372 
106564 
106689 
106942 
107136 
107329 
107519 
107715 
107909 
108098 
108292 
108480 
108600 
108863 
109052 
109244 
109362 
109616 
109806 
109991 
110177 
110369 
110556 
110750 
110949 
111141 
111266 
111527 
111717 
111911 
112100 
112286 
112476 
112665 
112851 
113036 
113224 
113416 
113598 
113786 
113980 
114168 
114352 
114541 
114726 
114914 
115103 
115286 
115477 
115664 
115849 
116039 
116227 
116419 
116610 
116800 
116993 
117185 
117306 
117560 
117746 
117930 
118121 
118303 
118485 
118676 
118862 
119044 
119232 
119417 
119538 
119793 
119983 
120174 
120360 
120544 
120675 
120916 
121102 
121293 
121473 
121657 
121847 
122032 
122214 
122400 
122588 
122776 
122965 
123153 
123276 
123536 
123723 
123911 
124095 
124286 
124474 
124658 
124848 
125038 
125223 
125413 
125532 
125787 
125981 
126167 
126358 
126548 
126737 
126925 
127054 
127300 
127494 
127677 
127863 
128055 
128240 
128428 
128616 
128802 
128924 
129185 
129374 
129568 
129761 
129949 
130141 
130334 
130455 
130725 
130919 
131121 
131244 
131506 
131700 
131893 
132088 
132281 
132475 
132669 
132864 
133051 
133240 
133432 
133626 
133812 
134000 
134195 
134384 
134572 
134761 
134949 
135143 
135334 
135450 
135716 
135908 
136091 
136279 
136465 
136658 
136844 
137029 
137223 
137412 
137595 
137788 
137976 
138163 
138358 
138546 
138736 
138930 
139119 
139245 
139494 
139686 
139875 
140063 
140249 
140440 
140629 
140817 
141005 
141191 
141385 
141575 
141763 
141883 
142147 
142333 
142524 
142712 
142899 
143088 
143274 
143465 
143653 
143843 
144036 
144226 
144419 
144615 
144808 
144926 
145200 
145395 
145592 
145785 
145980 
146101 
146371 
146572 
146708 
146964 
147162 
147355 
147551 
147749 
147944 
148146 
148259 
148535 
148736 
148933 
149050 
149322 
149517 
149714 
149837 
150097 
150290 
150481 
150677 
150867 
151055 
151251 
151437 
151621 
151741 
151996 
152185 
152373 
152558 
152749 
152937 
153120 
153240 
153494 
153686 
153876 
154065 
154256 
154448 
154639 
154759 
155030 
155231 
155385 
155479 
155756 
155962 
156163 
156282 
156556 
156761 
156965 
157084 
157365 
157564 
157757 
157871 
158147 
158342 
158537 
158733 
158935 
159134 
159333 
159538 
159739 
159949 
160152 
160354 
160561 
160760 
160958 
161157 
161347 
161545 
161736 
161923 
162120 
162312 
162498 
162691 
162883 
163009 
163272 
163465 
163661 
163853 
164040 
164232 
164421 
164619 
164815 
165008 
165211 
165329 
165605 
165805 
166005 
166129 
166405 
166605 
166807 
167007 
167201 
167402 
167601 
167809 
168006 
168209 
168419 
168619 
168818 
169018 
169214 
169416 
169613 
169809 
170006 
170128 
170396 
170590 
170785 
170982 
171172 
171374 
171567 
171761 
171958 
172154 
172353 
172552 
172671 
172945 
173140 
173332 
173528 
173718 
173836 
174102 
174292 
174486 
174677 
174863 
175056 
175248 
175442 
175640 
175834 
176031 
176229 
176422 
176617 
176813 
176932 
177201 
177396 
177598 
177789 
177980 
178176 
178371 
178572 
178768 
178886 
179157 
179354 
179541 
179735 
179926 
180120 
180314 
180506 
180709 
180906 
181101 
181302 
181502 
181709 
181908 
182109 
182315 
182517 
182716 
182915 
183115 
183317 
183516 
183717 
183917 
184117 
184315 
184511 
184628 
184909 
185105 
185302 
185503 
185698 
185813 
186088 
186282 
186483 
186677 
186875 
186993 
187267 
187468 
187662 
187785 
188060 
188258 
188460 
188657 
188852 
189053 
189255 
189458 
189666 
189872 
190081 
190288 
190495 
190697 
190903 
191112 
191311 
191513 
191718 
191915 
192116 
192316 
192516 
192718 
192918 
193124 
193325 
193526 
193729 
193934 
194142 
194294 
194541 
194749 
194949 
195144 
195342 
195541 
195743 
195943 
196147 
196348 
196547 
196753 
196952 
197159 
197360 
197555 
197764 
197964 
198158 
198359 
198558 
198761 
198958 
199157 
199356 
199555 
199751 
199944 
200143 
200344 
200536 
200641 
200928 
201119 
201315 
201507 
201696 
201893 
202087 
202279 
202474 
202669 
202865 
203058 
203259 
203458 
203654 
203855 
204053 
204164 
204447 
204641 
204836 
205036 
205234 
205430 
205633 
205832 
206030 
206231 
206433 
206634 
206832 
207038 
207238 
207435 
207637 
207834 
208034 
208236 
208435 
208640 
208841 
209040 
209243 
209445 
209650 
209849 
210048 
210253 
210454 
210649 
210845 
211042 
211244 
211441 
211638 
211839 
212039 
212238 
212438 
212566 
212807 
213013 
213133 
213413 
213611 
213810 
214004 
214202 
214404 
214601 
214807 
214926 
215202 
215405 
215604 
215806 
216004 
216202 
216405 
216606 
216803 
217000 
217200 
217403 
217602 
217805 
218010 
218208 
218413 
218617 
218819 
219021 
219222 
219425 
219626 
219821 
220018 
220214 
220417 
220611 
220804 
221007 
221202 
221395 
221592 
221786 
221984 
222177 
222370 
222566 
222760 
222952 
223142 
223334 
223531 
223722 
223910 
224110 
224305 
224495 
224693 
224891 
225092 
225287 
225484 
225685 
225883 
226081 
226275 
226473 
226677 
226873 
227071 
227275 
227474 
227672 
227871 
228070 
228273 
228471 
228670 
228872 
229069 
229267 
229461 
229658 
229857 
230049 
230246 
230442 
230637 
230835 
231029 
231226 
231424 
231617 
231816 
232013 
232206 
232399 
232593 
232791 
232987 
233183 
233385 
233582 
233776 
233978 
234173 
234373 
234572 
234766 
234971 
235171 
235367 
235566 
235765 
235966 
236162 
236361 
236563 
236763 
236964 
237158 
237356 
237555 
237749 
237945 
238142 
238334 
238528 
238724 
238919 
239117 
239314 
239518 
239719 
239914 
240121 
240320 
240522 
240722 
240918 
241121 
241321 
241515 
241710 
241907 
242107 
242301 
242500 
242697 
242894 
243009 
243279 
243476 
243674 
243864 
244055 
244251 
244441 
244554 
244815 
245006 
245199 
245387 
245576 
245768 
245961 
246153 
246345 
246537 
246736 
246929 
247121 
247323 
247515 
247704 
247898 
248094 
248292 
248488 
248682 
248883 
249080 
249275 
249469 
249664 
249862 
250053 
250243 
250443 
250633 
250747 
251010 
251199 
251393 
251581 
251771 
251967 
252160 
252350 
252541 
252733 
252926 
253118 
253305 
253503 
253692 
253879 
254074 
254192 
254455 
254651 
254842 
255038 
255231 
255421 
255614 
255804 
255998 
256137 
256464 
256765 
256951 
257146 
257336 
257530 
257724 
257915 
258113 
258308 
258498 
258692 
258884 
259080 
259271 
259462 
259658 
259847 
260033 
260228 
260414 
260607 
260801 
260992 
261191 
261384 
261574 
261769 
261962 
262156 
262346 
262537 
262734 
262927 
263111 
263306 
263497 
263693 
263885 
264074 
264273 
264468 
264656 
264852 
265044 
265238 
265431 
265621 
265822 
266012 
266124 
266394 
266586 
266778 
266969 
267158 
267355 
267549 
267737 
267931 
268125 
268320 
268439 
268704 
268903 
269092 
269278 
269472 
269660 
269852 
270046 
270236 
270429 
270623 
270815 
271007 
271127 
271389 
271586 
271774 
271965 
272155 
272345 
272537 
272722 
272913 
273108 
273298 
273490 
273690 
273808 
274076 
274272 
274465 
274661 
274851 
275043 
275237 
275426 
275614 
275802 
275993 
276190 
276379 
276497 
276767 
276962 
277151 
277343 
277532 
277723 
277914 
278102 
278297 
278488 
278678 
278870 
279061 
279182 
279449 
279641 
279838 
280032 
280220 
280410 
280603 
280800 
280992 
281184 
281382 
281576 
281766 
281959 
282153 
282351 
282538 
282730 
282929 
283123 
283315 
283434 
283696 
283894 
284084 
284274 
284465 
284654 
284844 
285030 
285219 
285411 
285596 
285785 
285979 
286170 
286356 
286547 
286735 
286932 
287125 
287317 
287514 
287710 
287904 
288019 
288292 
288491 
288682 
288874 
289074 
289271 
289463 
289581 
289845 
290045 
290238 
290427 
290622 
290814 
291000 
291189 
291383 
291501 
291765 
291956 
292152 
292344 
292534 
292730 
292920 
293039 
293307 
293498 
293693 
293886 
294073 
294264 
294453 
294645 
294837 
295029 
295224 
295417 
295606 
295804 
295995 
296191 
296389 
296580 
296779 
296971 
297161 
297354 
297546 
297739 
297932 
298125 
298321 
298439 
298701 
298896 
299085 
299279 
299473 
299660 
299854 
300044 
300229 
300420 
300609 
300800 
300990 
301179 
301376 
301566 
301755 
301950 
302139 
302256 
302523 
302712 
302904 
303093 
303278 
303468 
303658 
303850 
304043 
304235 
304435 
304628 
304820 
305020 
305211 
305413 
305610 
305723 
305999 
306195 
306385 
306580 
306771 
306967 
307156 
307347 
307543 
307737 
307927 
308121 
308313 
308430 
308701 
308892 
309089 
309281 
309466 
309657 
309846 
310039 
310228 
310419 
310615 
310734 
310996 
311188 
311376 
311571 
311762 
311949 
312145 
312334 
312523 
312716 
312906 
313096 
313290 
313479 
313671 
313863 
314053 
314244 
314428 
314619 
314813 
314999 
315187 
315379 
315567 
315754 
315944 
316129 
316322 
316509 
316698 
316894 
317086 
317273 
317460 
317649 
317840 
318028 
318212 
318406 
318593 
318775 
318967 
319152 
319342 
319532 
319721 
319914 
320103 
320290 
320478 
320666 
320853 
321042 
321226 
321416 
321601 
321787 
321974 
322158 
322344 
322535 
322723 
322836 
323101 
323292 
323478 
323663 
323851 
324040 
324224 
324410 
324598 
324784 
324968 
325155 
325340 
325456 
325717 
325904 
326097 
326285 
326471 
326657 
326843 
327034 
327221 
327405 
327599 
327715 
327969 
328163 
328350 
328540 
328728 
328916 
329109 
329226 
329482 
329672 
329858 
330045 
330233 
330417 
330607 
330791 
330978 
331093 
331352 
331540 
331729 
331917 
332103 
332296 
332486 
332672 
332857 
333044 
333235 
333420 
333604 
333794 
333980 
334164 
334354 
334541 
334732 
334924 
335111 
335305 
335495 
335682 
335869 
335984 
336243 
336437 
336622 
336811 
336999 
337189 
337380 
337566 
337757 
337950 
338139 
338327 
338523 
338715 
338900 
339091 
339282 
339475 
339665 
339855 
340048 
340161 
340426 
340616 
340805 
340998 
341187 
341375 
341573 
341763 
341949 
342141 
342332 
342527 
342716 
342834 
343097 
343288 
343475 
343666 
343855 
344050 
344241 
344429 
344627 
344817 
345003 
345196 
345389 
345508 
345771 
345961 
346154 
346344 
346531 
346720 
348626 
348805 
348993 
349184 
349372 
349556 
349748 
349932 
350122 
350313 
350500 
350696 
350887 
351073 
351266 
351454 
351575 
351836 
352026 
352218 
352404 
352590 
352782 
352967 
353157 
353351 
353538 
353730 
353849 
354110 
354300 
354489 
354675 
354868 
355053 
355239 
355427 
355615 
355801 
355987 
357514 
357702 
357893 
358084 
358274 
358466 
358659 
358848 
359040 
359231 
359424 
359749 
360005 
360193 
360380 
360572 
360760 
360948 
361139 
361326 
361512 
361701 
361887 
362072 
362256 
362443 
362634 
362823 
363018 
363214 
363409 
363604 
363719 
363989 
364187 
364374 
364561 
364754 
364944 
365133 
365319 
365512 
365705 
365893 
366084 
366278 
366469 
366659 
366849 
367038 
367234 
367422 
367531 
367802 
367996 
368186 
368375 
368565 
368760 
368949 
369144 
369338 
369528 
369717 
369905 
370091 
370281 
370462 
370643 
370830 
371018 
371201 
371317 
371569 
371761 
371945 
372129 
372321 
372504 
372682 
372866 
373047 
373230 
373412 
373594 
373779 
373962 
374145 
374332 
374513 
374702 
374891 
375076 
375266 
375394 
375641 
375826 
376009 
376192 
376379 
376561 
376743 
376931 
377116 
377298 
377483 
377669 
377857 
378044 
378231 
378421 
378608 
378797 
378985 
379169 
379354 
379546 
379729 
379911 
380101 
380288 
380471 
380655 
380841 
381028 
381212 
381397 
381588 
381773 
381956 
382144 
382328 
382516 
382701 
382883 
383067 
383251 
383435 
383619 
383802 
383991 
384181 
384370 
384565 
384760 
384956 
385146 
385336 
385463 
385719 
385903 
386084 
386275 
386463 
386647 
386832 
387020 
387210 
387397 
387584 
387774 
387963 
388147 
388336 
388524 
388715 
388903 
389086 
389281 
389469 
389651 
389838 
390026 
390214 
390404 
390590 
390785 
390973 
391157 
391347 
391472 
391724 
391914 
392097 
392291 
392483 
392666 
392859 
392974 
393249 
393444 
393637 
393836 
394027 
394216 
394412 
394601 
394795 
394982 
395167 
395357 
395545 
395725 
395914 
396099 
396287 
396473 
396659 
396846 
397030 
397151 
397250 
397528 
397715 
397905 
398089 
398270 
398459 
398644 
398825 
399013 
399199 
399387 
399579 
399769 
399962 
400150 
400339 
400527 
400712 
400899 
401021 
401274 
401460 
401652 
401839 
402024 
402212 
402397 
402583 
402769 
402899 
403140 
403328 
403506 
403693 
403877 
404065 
404251 
404437 
404627 
404819 
405007 
405197 
405389 
405578 
405773 
405964 
406154 
406345 
406532 
406720 
406905 
407094 
407283 
407466 
407654 
407844 
408029 
408216 
408402 
408518 
408779 
408965 
409150 
409340 
409526 
409709 
409892 
410076 
410265 
410446 
410627 
410820 
411005 
411187 
411377 
411564 
411751 
411939 
412129 
412324 
412513 
412699 
412889 
413074 
413267 
413449 
413631 
413820 
414006 
414186 
414375 
414561 
414747 
414936 
415049 
415310 
415497 
415678 
415860 
416040 
416223 
416410 
416589 
416770 
416959 
417143 
417321 
417506 
417691 
417876 
418062 
418248 
418436 
418620 
418799 
418981 
419165 
419348 
419534 
419714 
419894 
420079 
420259 
420437 
420616 
420793 
420974 
421156 
421333 
421515 
421694 
421874 
422052 
422231 
422413 
422597 
422775 
422954 
423141 
423322 
423502 
423685 
423867 
424051 
424237 
424420 
424606 
424792 
424976 
425160 
425343 
425530 
425716 
425897 
426077 
426267 
426448 
426628 
426808 
426990 
427175 
427359 
427540 
427728 
427910 
428088 
428270 
428449 
428631 
428813 
428990 
429172 
429357 
429538 
429717 
429900 
430082 
430273 
430460 
430641 
430830 
431017 
431197 
431383 
431568 
431753 
431933 
432113 
432301 
432483 
432660 
432845 
433026 
433206 
433393 
433577 
433763 
433951 
434135 
434320 
434503 
434691 
434880 
435062 
435246 
435435 
435620 
435804 
435988 
436171 
436358 
436542 
436724 
436912 
437098 
437278 
437462 
437644 
437829 
438010 
438192 
438378 
438561 
438743 
438928 
439110 
439287 
439474 
439655 
439836 
440019 
440205 
440381 
440562 
440744 
440933 
441115 
441297 
441481 
441665 
441844 
442026 
442206 
442389 
442575 
442759 
442942 
443131 
443320 
443502 
443690 
443877 
444066 
444252 
444368 
444625 
444810 
444991 
445177 
445359 
445543 
445731 
445915 
446102 
446290 
446475 
446660 
446845 
447031 
447218 
447399 
447582 
447769 
447953 
448135 
448320 
448502 
448689 
448873 
449057 
449249 
449434 
449613 
449799 
449981 
450162 
450344 
450526 
450712 
450897 
451081 
451265 
451449 
451634 
451825 
452008 
452195 
452389 
452577 
452762 
452948 
453135 
453324 
453507 
453690 
453876 
454058 
454240 
454422 
454604 
454791 
454977 
455162 
455352 
455540 
455721 
455907 
456090 
456278 
456462 
456647 
456839 
457023 
457206 
457395 
457579 
457764 
457953 
458137 
458325 
458512 
458694 
458875 
459058 
459242 
459429 
459606 
459787 
459975 
460157 
460337 
460520 
460702 
460890 
461076 
461259 
461451 
461635 
461813 
461998 
