4.40625 1.2851 1.003309 -0.281791
5.05078125 1.174367 0.945593 -0.228774
5.63671875 1.253066 1.028066 -0.225
6.24609375 1.258229 0.948285 -0.309944
6.96875 1.22375 0.91375 -0.31
7.63671875 1.199723 0.879723 -0.32
8.296875 1.209044 0.885 -0.324044
9.01953125 1.214018 0.879682 -0.334336
9.62109375 1.276262 0.90706 -0.369202
10.20703125 1.259318 0.875105 -0.384213
10.75390625 0.91283 -0.082021 -0.994851
11.53125 1.161101 0.708 -0.453101
12.16796875 1.237697 0.900105 -0.337592
12.76171875 1.354214 0.956846 -0.397368
13.40234375 1.2585410000000001 0.868641 -0.3899
14.234375 1.2432210000000001 0.865179 -0.378042
14.89453125 1.3599510000000001 0.964968 -0.394983
15.640625 1.319158 0.900486 -0.418672
16.1875 1.332152 0.872188 -0.459964
16.921875 1.2065540000000001 0.859224 -0.34733
17.67578125 1.324541 0.984541 -0.34
18.72265625 1.127626 0.739501 -0.388125
19.296875 1.244456 0.929689 -0.314767
19.9609375 1.1579 0.914828 -0.243072
20.59375 1.377198 1.0463 -0.330898
21.16015625 1.279565 0.974565 -0.305
21.78515625 1.2126350000000001 0.867635 -0.345
23.33203125 1.231303 0.919278 -0.312025
24.078125 1.251679 0.919654 -0.332025
24.65625 1.3176670000000001 0.917748 -0.399919
25.28515625 1.18253 0.73253 -0.45
26.15625 1.207407 0.897786 -0.309621
26.8828125 1.1156579999999998 0.791522 -0.324136
27.49609375 1.2130429999999999 0.93807 -0.274973
28.46484375 1.19432 0.77 -0.42432
29.16015625 1.202267 0.797267 -0.405
29.859375 1.232545 0.829217 -0.403328
30.421875 1.2802989999999999 0.839101 -0.441198
30.7265625 0.6701429999999999 -0.28577 -0.955913
31.7421875 1.118033 0.653033 -0.465
32.41796875 1.249271 0.809271 -0.44
33.12109375 1.223497 0.790997 -0.4325
33.796875 1.3274 0.844559 -0.482841
34.375 1.373906 0.81 -0.563906
34.828125 0.66957 -0.26543 -0.935
35.5234375 1.220068 0.7361 -0.483968
36.15625 1.322341 0.822705 -0.499636
36.66796875 1.31811 0.83811 -0.48
37.3671875 1.178004 0.728088 -0.449916
38.12109375 1.302381 0.813058 -0.489323
38.82421875 1.201691 0.87038 -0.331311
39.4375 1.346902 1.101912 -0.24499
40.140625 1.2332619999999999 1.063262 -0.17
40.7421875 1.3584329999999998 1.189056 -0.169377
41.5390625 1.2219000000000002 1.079379 -0.142521
42.1796875 1.279467 1.109467 -0.17
42.81640625 1.306171 1.081507 -0.224664
43.44921875 1.219944 1.02 -0.199944
44.09375 1.2686899999999999 1.038814 -0.229876
44.79296875 1.312456 1.052414 -0.260042
45.421875 1.354585 1.066706 -0.287879
46.125 1.3034599999999998 1.025 -0.27846
46.79296875 1.216132 1.021151 -0.194981
47.2109375 1.487118 1.059763 -0.427355
47.94140625 1.192364 0.994365 -0.197999
48.66796875 1.183511 0.993511 -0.19
49.40625 1.188816 0.954594 -0.234222
50.1484375 1.246802 0.987523 -0.259279
50.71484375 1.412712 1.092712 -0.32
51.42578125 1.202704 0.924019 -0.278685
52.07421875 1.3303200000000002 1.022312 -0.308008
52.7109375 1.247167 0.958969 -0.288198
53.14453125 0.756433 -0.030007 -0.78644
53.765625 1.205625 0.890625 -0.315
54.3203125 1.2841749999999998 0.981675 -0.3025
54.91015625 1.285155 1.020155 -0.265
55.6484375 1.287939 0.953923 -0.334016
56.31640625 1.259155 0.959892 -0.299263
56.97265625 1.360641 1.079393 -0.281248
57.4765625 1.287477 1.033991 -0.253486
58.4609375 1.264147 0.984147 -0.28
59.015625 1.329564 0.9925 -0.337064
59.56640625 1.294603 1.01495 -0.279653
60.10546875 1.303871 1.069902 -0.233969
60.6640625 1.216452 1.04 -0.176452
61.33984375 1.26153 1.030869 -0.230661
62.1015625 1.27294 1.04644 -0.2265
62.828125 1.2475829999999999 1.054242 -0.193341
63.54296875 1.181511 0.891926 -0.289585
64.3984375 1.227143 0.954296 -0.272847
65.10546875 1.126635 0.814987 -0.311648
65.80859375 1.334752 1.19483 -0.139922
66.49609375 1.177421 1.098101 -0.07932
67.203125 1.133975 1.414007 0.280032
67.86328125 1.21366 1.352592 0.138932
68.609375 1.1766400000000001 1.093307 -0.083333
69.3515625 1.100738 0.713869 -0.386869
69.98046875 1.189667 0.634978 -0.554689
70.52734375 1.29276 0.634144 -0.658616
70.8828125 0.735608 -0.456528 -1.192136
71.79296875 1.267304 0.522304 -0.745
72.5078125 1.2695059999999998 0.559506 -0.71
73.078125 1.26098 0.621092 -0.639888
73.65234375 1.3845480000000001 0.854862 -0.529686
74.38671875 1.19 0.735 -0.455
75.30859375 1.046378 0.659697 -0.386681
76.015625 1.220338 0.950352 -0.269986
76.609375 1.3119530000000001 1.040809 -0.271144
77.296875 1.2871190000000001 1.022119 -0.265
78.05078125 1.1658140000000001 0.904533 -0.261281
78.69921875 1.302376 1.082376 -0.22
79.49609375 1.288394 1.05976 -0.228634
80.23828125 1.281299 1.064397 -0.216902
80.9296875 1.314754 1.164754 -0.15
81.703125 1.276242 1.059444 -0.216798
82.39453125 1.19861 0.999648 -0.198962
83.08203125 1.334055 1.124368 -0.209687
83.90234375 1.268948 1.063219 -0.205729
84.578125 1.2589750000000002 1.049913 -0.209062
85.23046875 1.348796 1.209956 -0.13884
85.98828125 1.331743 1.143362 -0.188381
86.52734375 1.293642 1.108687 -0.184955
87.2890625 1.204652 1.049652 -0.155
87.87890625 1.274649 1.149649 -0.125
88.65625 1.266782 1.142705 -0.124077
89.30859375 1.2848 1.129886 -0.154914
89.83203125 1.454283 1.209622 -0.244661
90.421875 1.279551 1.034551 -0.245
91.125 1.276869 1.0 -0.276869
91.89453125 1.193939 0.915285 -0.278654
92.60546875 1.2338580000000001 0.935525 -0.298333
93.34765625 1.265355 0.964701 -0.300654
94.08203125 1.233065 0.941581 -0.291484
94.8046875 1.308434 0.96318 -0.345254
95.5 1.347534 0.995 -0.352534
96.12890625 1.245074 0.899266 -0.345808
96.66796875 1.267021 0.84415 -0.422871
97.41796875 1.27383 0.847378 -0.426452
97.9296875 0.723486 -0.221514 -0.945
98.2265625 0.715382 -0.169618 -0.885
99.15234375 1.101991 0.731991 -0.37
99.76171875 1.296906 1.009406 -0.2875
100.4609375 1.215925 0.999706 -0.216219
101.1640625 1.224462 1.044977 -0.179485
101.7890625 1.23981 1.07481 -0.165
102.46875 1.228869 1.088869 -0.14
103.11328125 1.301711 1.150044 -0.151667
103.69140625 1.322958 1.139817 -0.183141
104.47265625 1.199844 1.039844 -0.16
105.20703125 1.191731 1.028804 -0.162927
105.92578125 1.210339 1.03173 -0.178609
106.58203125 1.3376949999999999 1.085022 -0.252673
107.2265625 1.1873 0.992412 -0.194888
107.91796875 1.277728 1.043506 -0.234222
108.51953125 1.267587 1.029618 -0.237969
109.28125 1.193968 1.014643 -0.179325
109.87890625 1.315 1.105 -0.21
110.65234375 1.191192 0.897418 -0.293774
111.41796875 1.323931 0.969973 -0.353958
112.01953125 1.285 1.0 -0.285
112.6015625 1.309256 1.039968 -0.269288
113.26953125 1.319938 1.03497 -0.284968
114.015625 1.242514 0.942514 -0.3
114.72265625 1.317349 0.982349 -0.335
115.45703125 1.3343829999999999 0.964507 -0.369876
116.15234375 1.222961 0.863598 -0.359363
116.80078125 1.308032 0.962075 -0.345957
117.46875 1.300719 0.905719 -0.395
118.0234375 1.390271 0.946248 -0.444023
118.5546875 1.297802 0.882802 -0.415
119.21875 1.360855 0.925 -0.435855
119.765625 1.406674 0.93808 -0.468594
120.40234375 1.2951840000000001 0.842636 -0.452548
120.97265625 1.2829920000000001 0.882992 -0.4
121.66796875 1.314586 0.929586 -0.385
122.58984375 1.210314 0.776026 -0.434288
123.25390625 1.283397 0.891834 -0.391563
123.875 1.4419710000000001 0.1 -1.341971
124.265625 0.653924 -0.095739 -0.749663
125.140625 1.14333 0.823359 -0.319971
125.5390625 1.2935880000000002 0.104845 -1.188743
126.42578125 1.357705 1.023472 -0.334233
126.8203125 1.330273 0.045 -1.285273
127.7265625 1.211765 0.882195 -0.32957
128.4296875 1.229303 0.974303 -0.255
128.9609375 0.7398 0.1598 -0.58
129.625 1.194021 0.825 -0.369021
130.13671875 1.111951 0.259732 -0.852219
130.86328125 1.313164 0.939072 -0.374092
131.54296875 1.304265 0.919265 -0.385
132.140625 1.028089 0.295561 -0.732528
132.8515625 1.307977 1.048719 -0.259258
133.609375 1.246313 0.964187 -0.282126
134.13671875 1.133312 0.233312 -0.9
134.75 0.829986 -0.075 -0.904986
135.65625 1.340484 0.924219 -0.416265
136.35546875 1.300815 0.889995 -0.41082
136.984375 1.2629009999999998 0.853042 -0.409859
137.546875 1.288325 0.919551 -0.368774
137.98828125 1.079522 0.668378 -0.411144
138.87890625 1.239517 0.911556 -0.327961
139.6875 1.296045 0.952083 -0.343962
140.44140625 1.320817 0.950817 -0.37
141.140625 1.278003 0.963398 -0.314605
141.82421875 1.3472270000000002 1.021759 -0.325468
142.5625 1.339309 0.970625 -0.368684
143.11328125 1.350992 0.95 -0.400992
143.92578125 1.263573 0.858573 -0.405
144.6796875 1.252022 0.887022 -0.365
145.46484375 1.182723 0.892723 -0.29
146.14453125 1.379908 1.024908 -0.355
146.99609375 1.19391 0.904105 -0.289805
147.6875 1.3399180000000002 1.007262 -0.332656
148.390625 1.307588 0.988127 -0.319461
149.0703125 1.2750949999999999 0.96556 -0.309535
149.8984375 1.236426 0.91149 -0.324936
150.6796875 1.312397 0.967426 -0.344971
151.53125 1.261509 0.960896 -0.300613
152.171875 1.3199999999999998 1.005 -0.315
152.7734375 1.3724319999999999 1.035423 -0.337009
153.42578125 1.302547 0.965965 -0.336582
154.28515625 1.199332 0.889332 -0.31
154.984375 1.245454 0.910675 -0.334779
155.71875 1.346673 0.968781 -0.377892
156.4140625 1.266311 0.934921 -0.33139
157.21484375 1.3001800000000001 0.892839 -0.407341
157.97265625 1.243005 0.862436 -0.380569
158.6875 1.361793 0.903611 -0.458182
159.36328125 1.342354 0.832647 -0.509707
159.99609375 1.363998 0.779066 -0.584932
160.69921875 1.3019880000000001 0.818956 -0.483032
161.3671875 1.374687 0.884792 -0.489895
162.11328125 1.311361 0.961361 -0.35
162.69921875 1.3312 0.9562 -0.375
163.44140625 1.33454 0.911814 -0.422726
164.07421875 1.315344 0.889387 -0.425957
165.0 1.19 0.83 -0.36
165.58203125 1.3229380000000002 0.998457 -0.324481
166.328125 1.3413369999999998 1.017977 -0.32336
166.9921875 1.452987 1.048163 -0.404824
167.6640625 1.324476 0.87056 -0.453916
168.23828125 1.3038219999999998 0.96115 -0.342672
168.78515625 1.4140039999999998 1.064323 -0.349681
169.4921875 1.3363209999999999 0.9198 -0.416521
170.19921875 1.45328 0.879466 -0.573814
170.90625 1.3703370000000001 0.73875 -0.631587
171.64453125 1.381215 0.684919 -0.696296
172.27734375 1.518691 0.862619 -0.656072
172.91796875 1.311672 0.816672 -0.495
173.5390625 1.368032 0.974837 -0.393195
174.1953125 1.2734230000000002 1.0538 -0.219623
174.94140625 1.233776 1.004948 -0.228828
175.58203125 1.3504 1.110739 -0.239661
176.328125 1.327463 1.113094 -0.214369
176.98828125 1.384147 1.099732 -0.284415
177.62890625 1.419603 1.148119 -0.271484
178.3828125 1.2543300000000002 1.04933 -0.205
179.078125 1.484229 1.164915 -0.319314
179.91015625 1.144189 0.940492 -0.203697
180.53125 1.4523730000000001 1.169381 -0.282992
181.21484375 1.440231 1.132729 -0.307502
181.99609375 1.3940329999999999 0.975239 -0.418794
182.80078125 1.444937 1.075103 -0.369834
183.4453125 1.719876 1.107546 -0.61233
184.17578125 1.5634770000000002 1.002849 -0.560628
185.06640625 1.4682559999999998 0.94483 -0.523426
185.6171875 1.6679300000000001 1.048675 -0.619255
186.33203125 1.592794 0.901873 -0.690921
187.03125 1.481535 1.047786 -0.433749
187.69921875 1.520999 1.16602 -0.354979
188.4375 1.5325769999999999 1.220769 -0.311808
189.21484375 1.792327 1.351421 -0.440906
189.89453125 1.503406 1.234893 -0.268513
190.4609375 1.5610490000000001 1.269943 -0.291106
191.16796875 1.645915 1.15279 -0.493125
191.88671875 1.583491 1.139008 -0.444483
192.51171875 1.602868 0.553801 -1.049067
193.12109375 1.405718 0.604738 -0.80098
193.75390625 1.4403920000000001 0.610672 -0.82972
194.48828125 1.444064 0.831267 -0.612797
195.25 1.4358659999999999 1.105 -0.330866
195.9296875 1.693061 1.140364 -0.552697
196.64453125 1.397895 0.839978 -0.557917
197.296875 1.361143 0.973009 -0.388134
198.00390625 1.31671 0.99671 -0.32
198.62890625 1.3706589999999998 1.104105 -0.266554
199.24609375 1.458928 1.218996 -0.239932
199.8203125 1.3812170000000001 1.164851 -0.216366
200.265625 0.764513 0.054583 -0.70993
201.57421875 1.351895 1.122274 -0.229621
202.203125 1.47449 1.273589 -0.200901
202.82421875 1.3713570000000002 1.161245 -0.210112
203.3984375 1.363904 1.132617 -0.231287
204.0625 1.320829 1.061923 -0.258906
204.75390625 1.322177 1.007958 -0.314219
205.53515625 1.0949529999999998 0.839953 -0.255
206.25 1.3442129999999999 0.96 -0.384213
206.859375 1.338274 0.918274 -0.42
207.28515625 0.741697 -0.13 -0.871697
207.859375 1.23883 0.827231 -0.411599
208.52734375 1.259849 0.779849 -0.48
209.09765625 1.294697 0.814697 -0.48
209.66015625 1.380126 0.885126 -0.495
210.16796875 0.634458 0.23 -0.404458
210.984375 1.326438 0.862942 -0.463496
211.73046875 1.307501 0.954973 -0.352528
212.3515625 1.380067 1.035402 -0.344665
213.01953125 1.5042550000000001 1.104284 -0.399971
213.60546875 1.514948 1.139948 -0.375
214.30859375 1.412753 1.079745 -0.333008
214.859375 1.381252 1.068127 -0.313125
215.38671875 1.4897909999999999 1.148629 -0.341162
216.1015625 1.402298 1.082573 -0.319725
216.765625 1.365959 1.073408 -0.292551
217.43359375 1.382846 1.009889 -0.372957
218.11328125 1.315817 0.948583 -0.367234
218.79296875 1.316697 0.926697 -0.39
219.41015625 1.45764 1.004345 -0.453295
219.90625 1.398155 0.940462 -0.457693
220.76953125 1.307985 0.914893 -0.393092
221.4375 1.418639 1.049048 -0.369591
222.10546875 1.280267 0.995758 -0.284509
222.8125 1.344942 1.132188 -0.212754
223.50390625 1.382822 1.187041 -0.195781
223.8203125 0.744763 0.095019 -0.649744
224.73046875 1.215278 0.940278 -0.275
225.51171875 1.296154 0.988072 -0.308082
226.0703125 1.314375 1.017519 -0.296856
226.3203125 1.022269 0.184377 -0.837892
226.7890625 1.259148 0.829977 -0.429171
227.4296875 1.426797 1.053663 -0.373134
228.05078125 1.371685 1.015103 -0.356582
228.5390625 0.592112 0.209495 -0.382617
228.8671875 1.991914 1.317291 -0.674623
229.30859375 1.023741 0.177186 -0.846555
229.62109375 1.844576 0.903906 -0.94067
230.0078125 0.328049 -0.39116 -0.719209
230.33203125 1.5170940000000002 0.885 -0.632094
230.921875 1.914136 1.057651 -0.856485
231.6484375 1.710722 1.146032 -0.56469
232.40625 1.544171 1.030517 -0.513654
233.1015625 1.708845 1.199185 -0.50966
233.38671875 1.7025540000000001 0.180371 -1.522183
234.22265625 1.825921 1.108496 -0.717425
234.7890625 1.5809389999999999 1.138839 -0.4421
235.51953125 1.574647 1.139927 -0.43472
236.27734375 1.5869659999999999 1.144132 -0.442834
237.0078125 1.69678 1.164085 -0.532695
237.7109375 1.509388 0.819978 -0.68941
238.375 1.480912 1.065 -0.415912
238.6953125 0.400049 -0.025522 -0.425571
239.1015625 1.636444 0.943157 -0.693287
239.7578125 1.589572 1.30716 -0.282412
240.3828125 1.5076429999999998 1.416035 -0.091608
240.92578125 0.910466 0.226607 -0.683859
242.01953125 1.4649290000000001 1.114994 -0.349935
242.78125 1.284221 0.928173 -0.356048
243.546875 1.625961 1.143889 -0.482072
244.1328125 1.495546 1.105 -0.390546
244.859375 1.334667 0.925 -0.409667
245.5390625 1.4740300000000002 1.00903 -0.465
246.203125 1.303105 0.813105 -0.49
246.8203125 1.439736 0.934904 -0.504832
247.421875 1.478284 0.968284 -0.51
248.09375 1.24036 0.765536 -0.474824
248.8828125 1.3479860000000001 0.898498 -0.449488
249.71484375 1.330661 0.970661 -0.36
250.44921875 1.243159 0.982718 -0.260441
251.01953125 1.369947 1.079947 -0.29
251.63671875 1.3733090000000001 1.007562 -0.365747
252.37890625 1.253285 0.903285 -0.35
253.109375 1.325 0.995 -0.33
253.77734375 1.284156 0.979156 -0.305
254.40234375 1.392996 1.066916 -0.32608
255.1015625 1.307038 1.003966 -0.303072
255.9375 1.2961880000000001 0.918 -0.378188
256.671875 1.387549 0.973828 -0.413721
257.8125 1.357206 0.942206 -0.415
258.36328125 1.3416059999999999 1.000085 -0.341521
259.05078125 1.338536 1.029557 -0.308979
259.37109375 0.873005 0.153188 -0.719817
260.18359375 1.226676 1.02495 -0.201726
260.890625 1.353312 1.149245 -0.204067
261.625 1.25975 0.975 -0.28475
262.4375 1.317143 0.982143 -0.335
263.07421875 1.286752 0.971808 -0.314944
264.01953125 1.2645739999999999 0.94 -0.324574
264.66796875 1.3448369999999998 1.002444 -0.342393
265.484375 1.325229 0.945385 -0.379844
266.21875 1.3022369999999999 0.927237 -0.375
266.93359375 1.3246980000000002 0.935 -0.389698
267.76953125 1.2487059999999999 0.91469 -0.334016
268.390625 1.37248 1.002495 -0.369985
268.8359375 0.675821 0.345897 -0.329924
269.69921875 1.2214 0.819564 -0.401836
270.3828125 1.154449 0.663824 -0.490625
271.046875 1.307505 0.773889 -0.533616
271.75390625 1.228649 0.771676 -0.456973
272.4375 1.348967 0.937206 -0.411761
273.29296875 1.281906 0.859271 -0.422635
273.78515625 1.321828 0.886828 -0.435
274.4140625 1.3466420000000001 0.884851 -0.461791
275.19140625 1.258873 0.794206 -0.464667
275.87890625 1.1919119999999999 0.894559 -0.297353
276.5859375 1.3925230000000002 1.134978 -0.257545
277.3046875 1.344608 1.134608 -0.21
277.875 1.27 1.12 -0.15
278.5234375 1.289779 1.161591 -0.128188
279.3203125 1.175422 1.014445 -0.160977
279.796875 0.729687 0.27 -0.459687
280.484375 1.187925 0.932925 -0.255
281.21484375 1.2265220000000001 0.937682 -0.28884
281.82421875 1.376779 0.986117 -0.390662
282.3828125 1.391538 0.917967 -0.473571
283.07421875 1.284378 0.881652 -0.402726
283.72265625 1.307215 0.929681 -0.377534
284.39453125 1.346809 0.929973 -0.416836
285.125 1.239415 0.835 -0.404415
285.88671875 1.273065 0.872856 -0.400209
286.57421875 1.389354 0.971628 -0.417726
287.3359375 1.26779 0.884863 -0.382927
287.921875 1.337413 0.944572 -0.392841
288.57421875 1.2994919999999999 0.894492 -0.405
289.2734375 1.401859 0.971483 -0.430376
290.0703125 1.335243 0.899456 -0.435787
290.8984375 1.274205 0.89649 -0.377715
291.54296875 1.36121 0.991847 -0.369363
292.1875 1.384408 1.012647 -0.371761
292.84375 1.309315 0.975963 -0.333352
293.62109375 1.298834 0.978445 -0.320389
294.30078125 1.299471 1.009471 -0.29
294.87890625 1.370098 1.075098 -0.295
295.5078125 1.371337 1.056562 -0.314775
295.8828125 0.789025 0.002603 -0.786422
296.7265625 1.1916579999999999 0.871826 -0.319832
297.46484375 1.232487 0.897588 -0.334899
298.09375 1.308869 0.953869 -0.355
298.671875 1.3116430000000001 0.963763 -0.34788
299.2578125 1.328144 1.006832 -0.321312
299.94140625 1.294295 0.939295 -0.355
300.53125 1.288583 0.900818 -0.387765
300.9453125 0.7136520000000001 -0.115656 -0.829308
301.8125 1.196922 0.777391 -0.419531
302.3203125 1.222219 0.837275 -0.384944
302.94140625 1.2997489999999998 0.939749 -0.36
303.6171875 1.296729 0.926944 -0.369785
304.2890625 1.289919 0.894919 -0.395
304.90234375 1.188091 0.861255 -0.326836
305.5625 1.3832630000000001 1.023894 -0.359369
306.26171875 1.33568 0.963312 -0.372368
306.96484375 1.2424709999999999 0.832471 -0.41
307.68359375 1.274258 0.939414 -0.334844
308.31640625 1.264325 0.935 -0.329325
309.0546875 1.239085 0.884937 -0.354148
309.8125 1.255067 0.971346 -0.283721
310.45703125 1.3423749999999999 1.082431 -0.259944
311.10546875 1.238418 0.974981 -0.263437
311.8515625 1.2322879999999998 1.072412 -0.159876
312.48828125 1.3191199999999998 1.164335 -0.154785
313.0625 1.320451 1.160625 -0.159826
313.7578125 1.2365750000000002 1.096575 -0.14
314.34375 1.32888 1.218309 -0.110571
314.921875 1.294125 1.134396 -0.159729
315.5859375 1.22967 1.014782 -0.214888
316.44921875 1.2288020000000002 1.078858 -0.149944
317.171875 1.210461 0.99 -0.220461
317.75390625 1.206003 1.016117 -0.189886
318.3046875 1.319819 1.134819 -0.185
318.80078125 1.36898 1.125254 -0.243726
319.61328125 1.203813 0.922892 -0.280921
320.35546875 1.2699699999999998 1.01497 -0.255
321.0 1.287064 0.96 -0.327064
321.65234375 1.266282 0.871282 -0.395
321.984375 0.785193 -0.089766 -0.874959
322.84375 1.238883 0.872383 -0.3665
323.515625 1.28234 0.920508 -0.361832
324.1640625 1.382661 1.029782 -0.352879
324.74609375 1.310695 0.945 -0.365695
325.44921875 1.274452 0.949564 -0.324888
326.4140625 1.237756 0.844805 -0.392951
327.11328125 1.294152 0.898515 -0.395637
327.75 1.314805 0.92 -0.394805
328.62890625 1.30557 0.976117 -0.329453
329.28515625 1.317329 0.957329 -0.36
329.96484375 1.313067 0.97681 -0.336257
330.6015625 1.330435 1.003292 -0.327143
331.29296875 1.306111 1.01445 -0.291661
331.9375 1.258538 1.024853 -0.233685
332.42578125 1.483802 1.08 -0.403802
333.26953125 1.2218360000000001 0.935 -0.286836
333.84375 1.318426 1.053814 -0.264612
334.4765625 1.276896 1.01709 -0.259806
335.41796875 1.187732 0.909169 -0.278563
336.26171875 1.257976 0.952984 -0.304992
336.96484375 1.3531279999999999 1.035 -0.318128
337.66015625 1.241449 0.931682 -0.309767
338.4296875 1.3196050000000001 0.969157 -0.350448
339.11328125 1.281101 0.974739 -0.306362
339.89453125 1.226162 0.895 -0.331162
340.53515625 1.296952 0.891952 -0.405
341.2109375 1.283449 0.914584 -0.368865
341.859375 1.304833 0.893127 -0.411706
342.47265625 1.288767 0.908831 -0.379936
343.0859375 1.343215 0.954094 -0.389121
343.94140625 1.287089 0.89495 -0.392139
344.5859375 1.404045 0.959725 -0.44432
345.2578125 1.266691 0.897592 -0.369099
345.90625 1.31717 0.908942 -0.408228
346.73046875 1.321943 0.939835 -0.382108
347.484375 1.300495 0.923387 -0.377108
348.078125 1.332203 0.943922 -0.388281
348.8125 1.281755 0.930446 -0.351309
349.515625 1.301278 0.92308 -0.378198
350.3359375 1.313667 0.986011 -0.327656
351.10546875 1.3047369999999998 0.929931 -0.374806
351.7734375 1.307641 0.952727 -0.354914
352.46484375 1.2461090000000001 0.976109 -0.27
353.2265625 1.3080319999999999 1.055095 -0.252937
353.9140625 1.3344829999999999 1.086042 -0.248441
354.56640625 1.3277169999999998 1.027248 -0.300469
355.20703125 1.2736990000000001 0.942844 -0.330855
355.92578125 1.348177 1.014533 -0.333644
356.72265625 1.383579 1.023804 -0.359775
357.27734375 1.307736 1.019318 -0.288418
357.96875 1.229095 0.901768 -0.327327
358.3359375 0.788609 -0.0050 -0.793609
359.18359375 1.261988 0.921988 -0.34
359.78125 1.359173 1.009258 -0.349915
360.4296875 1.275854 0.904464 -0.37139
361.15234375 1.3850760000000002 1.004347 -0.380729
361.875 1.340203 0.98 -0.360203
362.640625 1.231608 0.840675 -0.390933
363.38671875 1.253505 0.86 -0.393505
364.296875 1.209077 0.855 -0.354077
365.28515625 1.130101 0.770101 -0.36
365.984375 1.269147 0.919147 -0.35
366.69921875 1.417469 1.019211 -0.398258
367.421875 1.2972000000000001 0.918479 -0.378721
368.15234375 1.309495 0.944166 -0.365329
368.90234375 1.33881 0.997358 -0.341452
369.5703125 1.365 1.01 -0.355
370.37890625 1.363153 1.013153 -0.35
371.19921875 1.217139 0.868039 -0.3491
371.9140625 1.302219 0.949785 -0.352434
372.46875 1.359381 0.992786 -0.366595
373.27734375 1.268037 0.93865 -0.329387
374.00390625 1.35623 1.001391 -0.354839
374.70703125 1.31287 1.003804 -0.309066
375.46875 1.321457 1.00479 -0.316667
376.11328125 1.33582 1.03 -0.30582
376.7890625 1.273245 0.96995 -0.303295
377.3671875 1.3686010000000002 1.049805 -0.318796
378.03125 1.372669 1.028984 -0.343685
378.70703125 1.3609609999999999 1.026441 -0.33452
379.62109375 1.2434319999999999 0.958432 -0.285
380.2890625 1.360391 1.029976 -0.330415
381.07421875 1.27951 0.944735 -0.334775
381.765625 1.353272 0.963301 -0.389971
382.4453125 1.375079 0.97636 -0.398719
383.125 1.3242150000000001 0.935 -0.389215
383.75390625 1.419799 0.989962 -0.429837
384.4765625 1.39494 0.99 -0.40494
385.17578125 1.2723200000000001 0.93732 -0.335
385.9140625 1.336028 1.001028 -0.335
386.90234375 1.154018 0.887436 -0.266582
387.57421875 1.403991 1.043512 -0.360479
388.26953125 1.296802 0.964932 -0.33187
388.97265625 1.317025 0.967884 -0.349141
389.58203125 1.287944 0.922944 -0.365
390.40234375 1.246109 0.873687 -0.372422
391.19140625 1.344134 0.999681 -0.344453
391.95703125 1.358926 1.02 -0.338926
392.66015625 1.387589 1.042589 -0.345
393.46875 1.3471799999999998 1.066466 -0.280714
394.21875 1.3655719999999998 1.069462 -0.29611
394.984375 1.349139 1.009209 -0.33993
395.51171875 1.403629 1.053629 -0.35
396.1484375 1.3800000000000001 1.07 -0.31
396.84765625 1.3740219999999999 1.039022 -0.335
397.5078125 1.371714 0.982647 -0.389067
398.3046875 1.374508 1.025266 -0.349242
399.07421875 1.4320469999999998 1.037272 -0.394775
399.82421875 1.287897 0.847985 -0.439912
400.5546875 1.382306 1.006019 -0.376287
401.2421875 1.487395 1.057863 -0.429532
401.86328125 1.429643 1.001853 -0.42779
402.55078125 1.442348 1.074438 -0.36791
403.13671875 1.4590230000000002 1.109023 -0.35
403.9296875 1.3116940000000001 0.941702 -0.369992
404.73828125 1.159918 0.921614 -0.238304
405.3828125 1.443207 1.139301 -0.303906
406.09375 1.284629 0.978796 -0.305833
406.67578125 1.3825610000000002 1.129447 -0.253114
407.28515625 1.364565 1.069565 -0.295
407.875 1.369847 0.955 -0.414847
408.4375 1.411036 1.021364 -0.389672
409.01171875 1.383303 0.973303 -0.41
409.921875 1.2458369999999999 0.778712 -0.467125
410.64453125 1.354707 0.874912 -0.479795
411.390625 1.303846 0.865486 -0.43836
412.04296875 1.2991510000000002 0.93 -0.369151
412.62890625 1.406892 1.167361 -0.239531
413.28125 1.318354 1.170833 -0.147521
413.9296875 1.348233 1.133241 -0.214992
414.54296875 1.2943669999999998 1.04612 -0.248247
415.44140625 1.306826 1.069889 -0.236937
416.1875 1.3054459999999999 1.010446 -0.295
416.80078125 1.410892 1.036434 -0.374458
417.54296875 1.322469 0.957469 -0.365
418.2578125 1.403842 1.036575 -0.367267
418.9453125 1.3059720000000001 0.950972 -0.355
419.53125 1.358725 0.955462 -0.403263
420.12890625 1.337622 0.928515 -0.409107
420.7109375 1.364848 1.00988 -0.354968
421.2421875 1.176048 -0.026413 -1.202461
421.4609375 1.18991 0.009932 -1.179978
422.12890625 1.183033 -0.011967 -1.195
422.8515625 1.108992 -0.083899 -1.192891
423.24609375 1.12099 -0.07607 -1.19706
423.8984375 1.350231 0.835524 -0.514707
424.25 0.819532 -0.14 -0.959532
425.16796875 1.276005 0.807075 -0.46893
425.8125 1.398555 0.979336 -0.419219
426.3828125 1.426974 1.00109 -0.425884
427.09765625 1.278067 0.918067 -0.36
427.90234375 1.371329 0.981329 -0.39
428.64453125 1.369752 1.019908 -0.349844
429.3125 1.379283 1.02525 -0.354033
429.9296875 1.357224 1.00318 -0.354044
430.62109375 1.384877 1.013171 -0.371706
431.65234375 1.22294 0.893982 -0.328958
432.328125 1.391386 1.04373 -0.347656
433.06640625 1.385407 1.139626 -0.245781
433.7734375 1.330925 1.062727 -0.268198
434.56640625 1.404058 1.124808 -0.27925
435.2734375 1.3101500000000001 1.050167 -0.259983
435.93359375 1.4001620000000001 1.074229 -0.325933
436.6015625 1.3286319999999998 1.0388 -0.289832
437.21484375 1.4099110000000001 1.051984 -0.357927
437.80078125 1.430684 1.025684 -0.405
438.39453125 1.422521 1.004344 -0.418177
438.98828125 1.382857 0.974406 -0.408451
439.74609375 1.288754 0.915 -0.373754
440.4140625 1.4289969999999999 1.034608 -0.394389
441.5234375 1.242754 0.870918 -0.371836
442.24609375 1.305289 0.960953 -0.344336
442.9921875 1.3393709999999999 0.93768 -0.401691
443.70703125 1.354406 0.954444 -0.399962
444.265625 1.4526629999999998 1.037942 -0.414721
444.9375 1.380979 0.971912 -0.409067
445.6640625 1.4192110000000002 1.019848 -0.399363
446.44921875 1.344968 0.965 -0.379968
447.1640625 1.349934 1.035571 -0.314363
447.80859375 1.3458240000000001 1.035824 -0.31
448.546875 1.310305 0.963915 -0.34639
449.16796875 1.404669 1.000249 -0.40442
449.8125 1.353791 1.033947 -0.319844
450.45703125 1.3957869999999999 1.102469 -0.293318
451.21875 1.36707 1.02207 -0.345
451.94140625 1.333908 1.0396 -0.294308
452.30859375 0.7426419999999999 -0.055718 -0.79836
453.1328125 1.273784 0.945 -0.328784
453.77734375 1.3188680000000002 0.944864 -0.374004
454.42578125 1.36713 1.0683 -0.29883
455.13671875 1.3359779999999999 1.086272 -0.249706
455.45703125 0.7343 -0.036161 -0.770461
456.16796875 1.221257 0.861621 -0.359636
456.79296875 1.4755099999999999 1.106825 -0.368685
457.61328125 1.31021 0.967529 -0.342681
458.375 1.379971 1.05 -0.329971
459.1171875 1.3605749999999999 1.043431 -0.317144
459.703125 1.369016 1.048667 -0.320349
460.26171875 1.348767 1.046267 -0.3025
460.9140625 1.42476 1.14976 -0.275
461.63671875 1.2863099999999998 0.973583 -0.312727
462.4140625 1.3697139999999999 1.054714 -0.315
463.015625 1.433399 1.109229 -0.32417
463.56640625 1.3854060000000001 0.971507 -0.413899
464.2421875 1.335579 0.957261 -0.378318
464.9375 1.343473 0.993462 -0.350011
465.62109375 1.383143 1.003587 -0.379556
466.37109375 1.3430360000000001 0.828248 -0.514788
467.2109375 1.309091 0.924647 -0.384444
467.90234375 1.344292 1.019306 -0.324986
468.5703125 1.319754 1.059754 -0.26
469.3125 1.292696 1.118333 -0.174363
470.05078125 1.308464 1.128783 -0.179681
470.69140625 1.291031 1.074195 -0.216836
471.4296875 1.283785 0.972024 -0.311761
472.37109375 1.2448320000000002 0.925 -0.319832
472.8359375 0.8081430000000001 0.209774 -0.598369
473.53125 1.3137059999999998 0.919167 -0.394539
473.87109375 0.866436 -0.054782 -0.921218
474.59765625 1.246255 0.826255 -0.42
475.32421875 1.325563 0.959735 -0.365828
476.0546875 1.273484 0.953945 -0.319539
476.64453125 1.414945 1.079945 -0.335
477.30078125 1.321499 0.968338 -0.353161
478.05078125 1.282975 0.909814 -0.373161
478.7734375 1.293489 0.888514 -0.404975
479.36328125 1.337729 0.948004 -0.389725
480.04296875 1.346288 0.906621 -0.439667
480.66796875 1.282183 0.90014 -0.382043
481.36328125 1.365 0.96 -0.405
482.20703125 1.30037 0.938887 -0.361483
482.8984375 1.326467 0.951467 -0.375
483.85546875 1.250345 0.860469 -0.389876
484.97265625 1.208572 0.808697 -0.399875
485.671875 1.335 0.94 -0.395
486.41015625 1.306379 0.907938 -0.398441
487.140625 1.321094 0.945 -0.376094
487.7890625 1.332856 0.944977 -0.387879
488.62890625 1.35523 0.989105 -0.366125
489.35546875 1.36998 0.99498 -0.375
490.01171875 1.438907 1.056682 -0.382225
490.5625 1.385284 1.0188 -0.366484
490.8671875 0.742611 -0.095603 -0.838214
491.5625 1.31195 0.922419 -0.389531
492.0703125 1.403497 1.013688 -0.389809
492.77734375 1.324736 0.964707 -0.360029
493.62109375 1.2413509999999999 0.878203 -0.363148
494.3984375 1.319935 0.950789 -0.369146
495.08984375 1.35018 0.945 -0.40518
495.8125 1.357928 0.982167 -0.375761
496.51953125 1.3896549999999999 1.039674 -0.349981
497.04296875 1.3978860000000002 1.007886 -0.39
497.98046875 1.234897 0.849957 -0.38494
498.609375 1.3445 0.977793 -0.366707
499.8203125 1.254472 0.836581 -0.417891
500.5234375 1.343603 0.870442 -0.473161
501.25390625 1.312182 0.852182 -0.46
501.890625 1.343505 0.935 -0.408505
502.6796875 1.325411 0.895411 -0.43
503.37109375 1.3239489999999998 0.848949 -0.475
504.00390625 1.400412 0.980412 -0.42
504.5625 1.473384 1.0505 -0.422884
505.1796875 1.389313 0.949303 -0.44001
505.99609375 1.364871 1.009927 -0.354944
506.81640625 1.421237 0.992987 -0.42825
507.6328125 1.311455 0.843498 -0.467957
508.28515625 1.37284 0.98284 -0.39
508.875 1.3686340000000001 0.995 -0.373634
509.53515625 1.408636 0.988636 -0.42
510.23046875 1.2880820000000002 0.944957 -0.343125
510.96484375 1.4230209999999999 1.041861 -0.38116
511.73046875 1.274893 0.894953 -0.37994
512.36328125 1.30153 1.03153 -0.27
513.109375 1.382796 1.093154 -0.289642
513.796875 1.309086 0.935 -0.374086
514.1796875 1.5375519999999998 -0.08136 -1.618912
515.1640625 1.450641 1.021507 -0.429134
515.578125 1.3783880000000002 -0.015089 -1.393477
516.3515625 1.242524 0.777859 -0.464665
517.1796875 1.3825569999999998 1.024754 -0.357803
517.96875 1.41461 1.039667 -0.374943
518.6875 1.265656 0.895 -0.370656
519.3671875 1.4627809999999999 1.035807 -0.426974
520.0 1.409854 1.01 -0.399854
520.5703125 1.506719 1.076719 -0.43
521.234375 1.286052 0.862474 -0.423578
521.91796875 1.326001 0.896001 -0.43
522.57421875 1.402086 0.975254 -0.426832
523.2890625 1.3847580000000002 0.989758 -0.395
524.09765625 1.286694 0.929862 -0.356832
524.75390625 1.383166 1.028166 -0.355
525.5390625 1.405102 1.055563 -0.349539
526.26171875 1.349437 1.031781 -0.317656
526.87890625 1.3985400000000001 1.04854 -0.35
527.6875 1.148975 0.849138 -0.299837
528.359375 1.433317 1.138317 -0.295
528.97265625 1.396806 1.123473 -0.273333
529.66015625 1.372369 1.103753 -0.268616
530.390625 1.4455609999999999 1.150561 -0.295
531.12890625 1.365361 1.081642 -0.283719
531.91796875 1.36803 1.11 -0.25803
532.67578125 1.343956 1.113956 -0.23
533.43359375 1.354068 1.144681 -0.209387
534.1015625 1.4224409999999998 1.174475 -0.247966
534.73046875 1.355 1.11 -0.245
535.5 1.318438 1.09 -0.228438
536.29296875 1.451055 1.15 -0.301055
536.9453125 1.420158 1.115567 -0.304591
537.625 1.330901 1.03 -0.300901
538.234375 1.464375 1.1 -0.364375
538.82421875 1.469905 1.084905 -0.385
539.125 0.799151 -0.035 -0.834151
540.07421875 1.19798 0.857235 -0.340745
541.47265625 1.380266 1.012974 -0.367292
542.14453125 1.409731 1.054737 -0.354994
542.7734375 1.4902259999999998 1.146591 -0.343635
543.4921875 1.396091 1.048154 -0.347937
544.22265625 1.3342829999999999 1.043283 -0.291
544.82421875 1.423591 1.093591 -0.33
545.37109375 1.384325 1.070874 -0.313451
546.078125 1.2782499999999999 1.009566 -0.268684
546.79296875 1.343936 1.085782 -0.258154
547.5078125 1.437053 1.139808 -0.297245
548.26171875 1.369372 1.079372 -0.29
548.89453125 1.435278 1.115278 -0.32
550.2109375 1.403734 1.079484 -0.32425
550.80859375 1.424867 1.104254 -0.320613
551.2109375 1.5076390000000002 0.974751 -0.532888
552.04296875 1.418103 1.114568 -0.303535
552.65625 1.378943 1.139 -0.239943
553.3515625 1.360167 1.065167 -0.295
554.01171875 1.391228 1.142723 -0.248505
554.74609375 1.338043 1.06807 -0.269973
555.390625 1.4126729999999998 1.070954 -0.341719
556.1171875 1.284321 0.969789 -0.314532
556.796875 1.426421 1.071092 -0.355329
557.4765625 1.4218520000000001 1.04418 -0.377672
558.109375 1.321022 1.006106 -0.314916
558.5390625 0.82927 -0.019035 -0.848305
559.1328125 1.330269 0.95355 -0.376719
559.7890625 1.305544 0.940544 -0.365
560.54296875 1.415952 1.077414 -0.338538
561.21484375 1.458609 1.079813 -0.378796
561.5234375 0.807759 -0.061659 -0.869418
562.44921875 1.19772 0.867812 -0.329908
563.0546875 1.4037 1.083729 -0.319971
563.68359375 1.3961729999999999 1.018948 -0.377225
564.37109375 1.315828 1.020828 -0.295
564.9921875 1.385449 1.049289 -0.33616
565.7421875 1.310859 0.92 -0.390859
566.515625 1.33232 1.042363 -0.289957
567.18359375 1.447551 1.099585 -0.347966
567.76953125 1.285 0.965 -0.32
568.3984375 1.377166 1.050663 -0.326503
569.09375 1.396047 1.09 -0.306047
569.828125 1.2900909999999999 0.929326 -0.360765
570.4375 1.373191 1.018191 -0.355
571.05078125 1.485182 1.145182 -0.34
571.671875 1.372458 1.064297 -0.308161
572.40625 1.278817 0.982012 -0.296805
573.10546875 1.400503 0.989994 -0.410509
573.8125 1.35386 0.933889 -0.419971
574.41015625 1.377367 0.992748 -0.384619
575.08203125 1.312454 0.89011 -0.422344
575.65234375 1.448518 1.066379 -0.382139
576.3125 1.4195069999999999 1.110588 -0.308919
577.1875 1.273199 0.996912 -0.276287
577.94921875 1.399897 1.059447 -0.34045
578.6796875 1.4082780000000001 1.017951 -0.390327
579.4375 1.347639 0.992187 -0.355452
580.20703125 1.317444 0.957444 -0.36
580.8828125 1.372698 0.994807 -0.377891
581.49609375 1.406193 1.002303 -0.40389
582.1875 1.340194 0.965385 -0.374809
582.8984375 1.327769 0.971317 -0.356452
583.8046875 1.235123 0.925152 -0.309971
584.5 1.39 1.015 -0.375
585.21484375 1.340273 0.947065 -0.393208
585.96484375 1.284199 0.909323 -0.374876
586.6796875 1.3480509999999999 0.927531 -0.42052
587.33203125 1.374056 0.958487 -0.415569
588.28125 1.2341799999999998 0.87918 -0.355
588.96875 1.442476 1.047476 -0.395
589.58984375 1.3950019999999999 1.037661 -0.357341
590.28125 1.3297279999999998 1.012047 -0.317681
591.09765625 1.321339 1.001339 -0.32
592.08984375 1.2211340000000002 0.94527 -0.275864
592.95703125 1.263852 0.961173 -0.302679
593.7265625 1.3501670000000001 1.010167 -0.34
594.4453125 1.416974 1.075211 -0.341763
595.05859375 1.4743620000000002 1.129949 -0.344413
595.77734375 1.350647 1.039144 -0.311503
596.6484375 1.376271 1.046321 -0.32995
597.3828125 1.408732 1.077366 -0.331366
598.0234375 1.348977 1.030789 -0.318188
598.5703125 1.425784 1.063775 -0.362009
599.21484375 1.4027889999999998 1.048331 -0.354458
600.05859375 1.2627680000000001 0.937316 -0.325452
600.4453125 0.874549 0.194617 -0.679932
601.15625 1.341226 0.953333 -0.387893
601.82421875 1.429742 1.052476 -0.377266
602.2734375 0.762243 -0.067043 -0.829286
603.0 1.299785 0.945 -0.354785
603.59375 1.3738350000000001 0.988711 -0.385124
604.30078125 1.278776 0.444019 -0.834757
605.125 1.432784 1.12 -0.312784
605.68359375 1.3877110000000001 1.03482 -0.352891
606.3203125 1.259139 0.412481 -0.846658
606.62109375 0.802572 -0.076805 -0.879377
607.40625 1.369086 0.975 -0.394086
608.11328125 1.332738 0.947953 -0.384785
608.78125 1.3677700000000002 1.01225 -0.35552
609.484375 1.395675 1.010675 -0.385
609.78125 0.803041 -0.056767 -0.859808
610.75390625 1.189937 0.84 -0.349937
611.3515625 1.399806 1.08 -0.319806
611.8828125 1.523037 1.188161 -0.334876
612.34375 1.3210709999999999 1.006071 -0.315
612.9921875 1.428068 1.138456 -0.289612
613.77734375 1.4346229999999998 1.139687 -0.294936
614.546875 1.307926 0.974317 -0.333609
615.32421875 1.409513 1.069669 -0.339844
616.07421875 1.410084 1.070943 -0.339141
616.65234375 1.49798 1.146366 -0.351614
617.36328125 1.442167 1.037647 -0.40452
617.921875 1.408955 1.081076 -0.327879
618.51171875 1.436535 1.096021 -0.340514
618.9609375 0.651769 0.365 -0.286769
620.1640625 1.310362 0.924706 -0.385656
620.8671875 1.463168 1.099783 -0.363385
621.5546875 1.474819 1.089819 -0.385
622.28515625 1.4489390000000002 1.073619 -0.37532
622.953125 1.408496 1.098504 -0.309992
623.5546875 1.439456 1.08447 -0.354986
624.26171875 1.3675639999999998 1.00822 -0.359344
624.99609375 1.418135 1.058135 -0.36
625.6015625 1.54608 1.197643 -0.348437
626.32421875 1.366818 1.059034 -0.307784
627.03515625 1.440238 1.095238 -0.345
627.890625 1.3289630000000001 0.971929 -0.357034
628.6640625 1.404949 1.039949 -0.365
629.34375 1.3160669999999999 1.007031 -0.309036
630.04296875 1.3374139999999999 1.022414 -0.315
630.76953125 1.3601869999999998 1.064933 -0.295254
631.5859375 1.351048 1.066054 -0.284994
632.23828125 1.427263 1.082409 -0.344854
633.171875 1.3883349999999999 1.053915 -0.33442
633.76171875 1.427924 1.122924 -0.305
634.46484375 1.3434570000000001 1.092756 -0.250701
635.19140625 1.342178 1.078643 -0.263535
635.83203125 1.457967 1.160183 -0.297784
636.37890625 1.518445 1.183445 -0.335
637.03515625 1.342383 1.062383 -0.28
637.74609375 1.4039059999999999 1.098906 -0.305
638.4921875 1.378068 1.038068 -0.34
639.16796875 1.4841680000000002 1.117887 -0.366281
639.75 1.5170890000000001 1.12 -0.397089
640.35546875 1.518741 1.114901 -0.40384
640.8984375 1.4914610000000001 1.10149 -0.389971
641.6015625 1.295456 0.984296 -0.31116
642.203125 1.443587 1.084805 -0.358782
642.734375 1.4881600000000001 1.118284 -0.369876
643.109375 0.842612 -0.027365 -0.869977
643.84375 1.348191 0.987031 -0.36116
644.48828125 1.4649320000000001 1.107647 -0.357285
645.1171875 1.385908 1.053764 -0.332144
645.80859375 1.444394 1.094394 -0.35
646.3515625 1.471074 1.137369 -0.333705
646.88671875 1.4216579999999999 1.128615 -0.293043
647.5078125 1.463084 1.133534 -0.32955
648.1953125 1.3364189999999998 1.041888 -0.294531
648.91796875 1.343732 1.053732 -0.29
649.65625 1.4637250000000002 1.140462 -0.323263
650.3203125 1.40604 1.117535 -0.288505
651.046875 1.3825 1.067733 -0.314767
651.7265625 1.4040720000000002 1.094521 -0.309551
652.40234375 1.4325709999999998 1.12845 -0.304121
652.94140625 1.534354 1.17476 -0.359594
653.51953125 1.3819279999999998 0.989937 -0.391991
654.171875 1.363787 1.008787 -0.355
655.1640625 1.29481 1.02481 -0.27
656.69140625 1.3918000000000001 1.109757 -0.282043
657.5078125 1.3294160000000002 1.008018 -0.321398
658.33203125 1.271475 0.851649 -0.419826
658.96875 1.432306 1.058214 -0.374092
659.625 1.375389 1.035 -0.340389
660.3125 1.28848 0.963654 -0.324826
661.015625 1.375645 1.060645 -0.315
661.890625 1.265256 0.885508 -0.379748
662.66015625 1.167792 0.797792 -0.37
663.359375 1.352918 1.089229 -0.263689
664.015625 1.42795 1.107965 -0.319985
664.66796875 1.425756 1.057561 -0.368195
665.3203125 1.274812 0.957079 -0.317733
665.95703125 1.399081 1.089169 -0.309912
666.484375 1.471616 1.126616 -0.345
667.14453125 1.31478 0.939936 -0.374844
667.8046875 1.3658730000000001 1.01807 -0.347803
668.45703125 1.408307 1.078419 -0.329888
669.2578125 1.311716 0.934239 -0.377477
670.0078125 1.293416 0.908611 -0.384805
670.65234375 1.415115 1.109192 -0.305923
671.29296875 1.3424209999999999 1.057421 -0.285
671.98828125 1.3566250000000002 1.038728 -0.317897
672.55078125 1.3911630000000001 1.029735 -0.361428
672.86328125 0.85446 -0.04554 -0.9
673.8046875 1.2715809999999999 0.891581 -0.38
674.5703125 1.354481 0.992375 -0.362106
675.4140625 1.270883 0.894848 -0.376035
676.140625 1.390401 0.973262 -0.417139
676.76171875 1.380207 0.987856 -0.392351
677.3203125 1.4227109999999998 1.04818 -0.374531
678.1171875 1.29867 0.96 -0.33867
678.8359375 1.3764129999999999 1.054722 -0.321691
679.4375 1.4348260000000002 1.06 -0.374826
680.265625 1.2810519999999999 0.971447 -0.309605
680.92578125 1.350056 1.012508 -0.337548
681.49609375 1.44303 1.048135 -0.394895
682.19921875 1.357869 0.9635 -0.394369
682.82421875 1.342695 0.968544 -0.374151
684.12109375 1.328881 0.953949 -0.374932
684.75390625 1.337136 0.962361 -0.374775
685.50390625 1.374952 1.004952 -0.37
686.421875 1.271928 0.929812 -0.342116
687.07421875 1.380517 1.045798 -0.334719
687.96484375 1.287471 0.987471 -0.3
688.6875 1.362433 1.078333 -0.2841
689.47265625 1.34185 1.093725 -0.248125
690.66796875 1.318357 1.089568 -0.228789
691.34765625 1.389068 1.154068 -0.235
692.26171875 1.265957 1.067104 -0.198853
692.99609375 1.4024199999999998 1.144035 -0.258385
693.6015625 1.3933579999999999 1.150054 -0.243304
694.3984375 1.273236 1.063243 -0.209993
695.0546875 1.4057089999999999 1.14 -0.265709
695.71484375 1.328341 1.085 -0.243341
696.4140625 1.334889 1.044889 -0.29
697.09375 1.366416 1.102748 -0.263668
697.79296875 1.339148 1.08 -0.259148
698.609375 1.3468010000000001 1.062386 -0.284415
699.29296875 1.42573 1.111001 -0.314729
700.00390625 1.288154 1.048192 -0.239962
700.65625 1.329442 1.068309 -0.261133
701.33203125 1.330153 1.035191 -0.294962
701.99609375 1.3199999999999998 1.025 -0.295
702.6875 1.3464660000000002 1.026466 -0.32
703.36328125 1.370436 1.056606 -0.31383
704.04296875 1.354568 1.046697 -0.307871
704.72265625 1.377554 1.063234 -0.31432
705.34375 1.4076689999999998 1.117821 -0.289848
706.0703125 1.30727 1.03728 -0.26999
706.75 1.32861 1.01 -0.31861
707.35546875 1.412663 1.159982 -0.252681
708.0859375 1.3844699999999999 1.08947 -0.295
708.73046875 1.322114 0.994988 -0.327126
709.6015625 1.3486609999999999 0.988908 -0.359753
710.375 1.344953 1.02 -0.324953
711.02734375 1.3771689999999999 0.987169 -0.39
711.609375 1.459107 1.109275 -0.349832
712.37109375 1.4068129999999999 1.092223 -0.31459
713.11328125 1.369029 0.997231 -0.371798
713.7265625 1.289403 0.931619 -0.357784
714.3671875 1.443228 1.098374 -0.344854
715.07421875 1.33033 0.984211 -0.346119
715.7265625 1.378066 1.068341 -0.309725
716.40625 1.374898 1.10707 -0.267828
717.15234375 1.278886 0.934347 -0.344539
717.796875 1.438774 1.105 -0.333774
718.46484375 1.4221300000000001 1.082748 -0.339382
719.09765625 1.324852 1.009852 -0.315
719.7734375 1.4032639999999998 1.078264 -0.325
720.48828125 1.366241 1.023451 -0.34279
721.12890625 1.348091 0.985412 -0.362679
721.71484375 1.4795509999999998 1.167879 -0.311672
722.40234375 1.340903 1.056329 -0.284574
723.13671875 1.3368520000000002 1.01218 -0.324672
723.8203125 1.324591 1.06 -0.264591
724.4453125 1.403537 1.048605 -0.354932
725.0703125 1.405459 1.030459 -0.375
725.7734375 1.264819 0.8711 -0.393719
726.47265625 1.368442 1.024866 -0.343576
727.0078125 1.3907550000000002 1.066604 -0.324151
727.625 1.354859 0.995 -0.359859
728.21484375 1.3505500000000001 0.970238 -0.380312
728.515625 0.810664 -0.003428 -0.814092
729.26953125 1.366293 0.989927 -0.376366
729.66796875 0.8123 -0.067408 -0.879708
730.375 1.294962 0.865 -0.429962
731.109375 1.288244 0.8921 -0.396144
731.70703125 1.3457620000000001 0.9708 -0.374962
732.4140625 1.3044449999999999 0.964769 -0.339676
733.171875 1.3091949999999999 0.954195 -0.355
733.95703125 1.282762 0.952431 -0.330331
734.73046875 1.31882 0.98998 -0.32884
735.41796875 1.374791 1.010575 -0.364216
736.15234375 1.343509 1.081348 -0.262161
736.7109375 1.388249 1.099737 -0.288512
737.35546875 1.2948520000000001 0.969912 -0.32494
737.96484375 1.377657 1.036077 -0.34158
738.64453125 1.287682 0.909716 -0.377966
739.59375 1.270704 0.888437 -0.382267
740.30078125 1.344569 0.994569 -0.35
740.91015625 1.429103 1.02935 -0.399753
741.61328125 1.300391 0.929095 -0.371296
742.2890625 1.381644 0.994601 -0.387043
743.16015625 1.234364 0.884364 -0.35
743.875 1.349859 1.005 -0.344859
744.7734375 1.261041 0.941467 -0.319574
745.53515625 1.351543 1.006907 -0.344636
746.13671875 1.448284 1.063284 -0.385
746.92578125 1.282913 0.927913 -0.355
747.58203125 1.395176 0.994793 -0.400383
748.34765625 1.349808 0.956329 -0.393479
748.9609375 1.369354 0.989647 -0.379707
749.65625 1.351218 1.00625 -0.344968
750.33984375 1.369593 1.002065 -0.367528
751.0078125 1.389809 1.034809 -0.355
751.58984375 1.45647 1.086109 -0.370361
752.2734375 1.353742 1.045268 -0.308474
753.16015625 1.335 1.035 -0.3
753.8515625 1.334478 1.044562 -0.289916
754.5 1.375361 1.08 -0.295361
755.12890625 1.398263 1.089433 -0.30883
755.796875 1.354801 1.038411 -0.31639
756.44921875 1.4299279999999999 1.038444 -0.391484
757.09765625 1.37994 0.99 -0.38994
757.78125 1.374645 1.009645 -0.365
758.42578125 1.37378 1.057431 -0.316349
759.2421875 1.372518 1.044581 -0.327937
759.89453125 1.3674080000000002 1.019986 -0.347422
760.34375 0.735092 -0.080469 -0.815561
760.9375 1.280357 0.925357 -0.355
761.6640625 1.376136 1.019746 -0.35639
762.390625 1.334542 0.944766 -0.389776
763.20703125 1.309622 0.940582 -0.36904
763.96484375 1.38501 1.04501 -0.34
764.62109375 1.411019 1.046696 -0.364323
765.45703125 1.3277269999999999 0.974684 -0.353043
766.1640625 1.4034270000000002 1.004706 -0.398721
766.77734375 1.435257 1.117497 -0.31776
767.37890625 1.4339469999999999 1.068166 -0.365781
768.16796875 1.378515 1.013515 -0.365
768.8828125 1.242418 0.992848 -0.24957
769.609375 1.387883 1.122955 -0.264928
770.30859375 1.4398360000000001 1.099836 -0.34
770.88671875 1.381815 1.046815 -0.335
771.44921875 0.757175 0.517175 -0.24
771.8046875 1.2315589999999998 0.900056 -0.331503
772.17578125 1.4385690000000002 1.069492 -0.369077
772.77734375 1.338193 0.918654 -0.419539
773.39453125 1.390734 0.954889 -0.435845
774.10546875 1.385285 0.925285 -0.46
774.7890625 1.2748 0.8198 -0.455
775.46484375 1.384788 1.106742 -0.278046
776.08984375 1.389358 1.090035 -0.299323
776.62890625 1.32181 0.991846 -0.329964
777.28515625 1.263621 1.032356 -0.231265
777.7890625 0.8488760000000001 0.149962 -0.698914
778.7109375 1.32556 0.984647 -0.340913
779.1328125 1.3449669999999998 0.162316 -1.182651
779.85546875 1.404995 1.004995 -0.4
780.546875 1.217241 0.86471 -0.352531
781.265625 1.313307 1.033365 -0.279942
781.9453125 1.4070399999999998 1.038832 -0.368208
782.6640625 1.216472 0.89495 -0.321522
783.30078125 1.305475 1.003561 -0.301914
783.94921875 1.3995719999999998 1.038277 -0.361295
784.7109375 1.323271 0.876267 -0.447004
785.2890625 1.434851 1.029851 -0.405
786.01171875 1.335816 1.0068 -0.329016
786.60546875 1.4199730000000002 1.069973 -0.35
787.21484375 1.3863979999999998 1.045238 -0.34116
788.0 1.34864 1.09 -0.25864
788.73828125 1.285683 1.079105 -0.206578
789.546875 1.3597979999999998 1.064798 -0.295
790.37109375 1.255977 0.986065 -0.269912
791.1484375 1.300713 1.028292 -0.272421
791.85546875 1.384457 1.054966 -0.329491
792.46484375 1.434874 1.08514 -0.349734
793.10546875 1.3794170000000001 1.079911 -0.299506
793.8828125 1.2202790000000001 0.051509 -1.16877
794.5546875 1.202741 0.912489 -0.290252
795.23828125 1.397059 1.072129 -0.32493
795.9921875 1.362908 1.053123 -0.309785
796.7265625 1.0734970000000001 0.818744 -0.254753
797.3828125 1.248796 0.978796 -0.27
797.88671875 0.976509 0.013022 -0.963487
798.37109375 1.1886459999999999 0.041642 -1.147004
798.94921875 1.239034 0.939034 -0.3
799.59375 1.319561 0.994645 -0.324916
800.25390625 1.337777 1.005902 -0.331875
800.84375 1.406345 1.031429 -0.374916
801.46484375 0.6024499999999999 -0.067733 -0.670183
802.08984375 1.6239460000000001 1.142425 -0.481521
802.5625 0.7961429999999999 0.1485 -0.647643
802.89453125 0.808647 0.039817 -0.76883
803.83203125 1.181438 0.84318 -0.338258
804.46484375 1.405005 1.030969 -0.374036
805.11328125 1.2306080000000001 0.957647 -0.272961
805.90234375 1.1913010000000002 0.921301 -0.27
806.63671875 1.371606 1.032887 -0.338719
807.328125 1.285942 0.956116 -0.329826
807.8984375 1.288847 0.982753 -0.306094
808.71875 1.299962 1.02 -0.279962
809.56640625 1.274731 1.006567 -0.268164
810.2109375 1.2999779999999999 1.014978 -0.285
810.875 1.3198880000000002 1.06 -0.259888
811.65234375 1.281037 0.984318 -0.296719
812.34375 1.4026370000000001 1.043711 -0.358926
813.27734375 1.286803 0.933797 -0.353006
813.99609375 1.321478 0.996117 -0.325361
814.6796875 1.3201230000000002 1.017559 -0.302564
815.33203125 1.406181 1.065248 -0.340933
816.05078125 1.41028 1.063444 -0.346836
816.6484375 1.411467 1.086467 -0.325
817.390625 1.366325 1.038359 -0.327966
818.05078125 1.417768 1.062768 -0.355
818.7578125 1.4088379999999998 1.039802 -0.369036
819.57421875 1.352026 1.004057 -0.347969
820.30859375 1.3315139999999999 0.994092 -0.337422
821.02734375 1.389843 1.079859 -0.309984
821.66015625 1.276597 1.007329 -0.269268
822.3125 1.3879 1.01375 -0.37415
823.0078125 1.327149 0.893133 -0.434016
823.7890625 1.355 0.995 -0.36
824.51953125 1.3138 0.969943 -0.343857
825.296875 1.2957610000000002 0.935 -0.360761
825.93359375 1.379839 0.954214 -0.425625
826.5703125 1.487587 1.086104 -0.401483
827.1171875 1.4843860000000002 1.12762 -0.356766
827.46875 0.9619869999999999 0.126987 -0.835
828.1484375 1.3645589999999999 1.025215 -0.339344
828.69140625 1.4227539999999999 1.039593 -0.383161
829.4296875 1.3968990000000001 1.096675 -0.300224
830.02734375 1.371749 1.084068 -0.287681
830.453125 0.976724 0.262089 -0.714635
831.00390625 0.90052 -0.14948 -1.05
831.73046875 1.461721 1.079912 -0.381809
832.46875 1.36825 0.97325 -0.395
833.21875 1.174916 0.792087 -0.382829
833.94921875 1.423386 1.107915 -0.315471
834.6171875 1.285744 0.953478 -0.332266
835.32421875 1.189712 0.88788 -0.301832
836.03515625 1.427733 1.157733 -0.27
836.59765625 1.349837 0.999837 -0.35
837.3046875 1.2356150000000001 0.897514 -0.338101
838.015625 1.3141690000000001 1.022914 -0.291255
838.7421875 1.304239 0.784239 -0.52
839.4375 1.1185209999999999 0.488947 -0.629574
840.18359375 1.262693 0.76 -0.502693
840.8203125 1.446801 0.982559 -0.464242
841.4140625 1.324861 0.859861 -0.465
841.890625 0.22796899999999998 -0.37 -0.597969
842.77734375 1.3348659999999999 1.019866 -0.315
843.4140625 1.258583 1.075551 -0.183032
844.33203125 1.194381 1.242511 0.04813
844.94921875 1.447079 1.315173 -0.131906
845.59765625 1.164952 0.974212 -0.19074
846.26953125 1.378776 1.044948 -0.333828
847.03515625 1.417762 1.002762 -0.415
847.74609375 1.18351 0.793088 -0.390422
848.3671875 1.3292510000000002 1.009681 -0.31957
849.125 1.3376759999999999 1.055 -0.282676
849.7578125 1.3000829999999999 0.984302 -0.315781
850.30859375 1.23993 0.86993 -0.37
851.0859375 1.3918730000000001 1.071873 -0.32
851.5078125 0.737452 0.398311 -0.339141
852.15234375 1.218689 0.893914 -0.324775
852.8359375 1.3320159999999999 1.030897 -0.301119
853.546875 1.3230089999999999 1.068009 -0.255
854.27734375 1.25483 1.009852 -0.244978
855.0390625 1.28592 1.054946 -0.230974
855.74609375 1.361278 1.061384 -0.299894
856.44140625 1.389469 1.048554 -0.340915
857.03515625 1.4401549999999999 1.000155 -0.44
857.95703125 1.174668 0.768804 -0.405864
858.57421875 1.375844 0.982407 -0.393437
859.26171875 1.2105730000000001 0.88322 -0.327353
859.96875 1.396647 1.016894 -0.379753
860.6328125 1.438649 1.054796 -0.383853
861.33984375 1.37358 1.01858 -0.355
862.08984375 1.2966929999999999 0.962231 -0.334462
862.796875 1.401563 1.029447 -0.372116
863.53125 1.383493 0.994645 -0.388848
863.99609375 0.660936 0.331696 -0.32924
864.71875 1.2690130000000002 0.850508 -0.418505
865.63671875 1.105866 0.700954 -0.404912
866.34375 1.372031 0.947031 -0.425
866.984375 1.342953 0.894199 -0.448754
867.68359375 1.2386629999999998 0.799214 -0.439449
868.34375 1.2975189999999999 0.945963 -0.351556
868.984375 1.263365 1.070934 -0.192431
869.6640625 1.14628 1.269758 0.123478
870.3671875 1.1226639999999999 1.324312 0.201648
870.98828125 1.2874720000000002 1.286539 -9.33E-4
871.74609375 1.238515 1.048515 -0.19
872.48828125 1.148789 0.798004 -0.350785
873.28515625 1.248985 0.723465 -0.52552
873.94140625 1.2292 0.579606 -0.649594
874.56640625 1.1883110000000001 0.57653 -0.611781
875.28125 1.147827 0.568679 -0.579148
875.90625 1.4490340000000002 0.796664 -0.65237
876.5546875 1.22753 0.735521 -0.492009
877.34375 1.214288 0.81 -0.404288
877.78515625 1.533445 -0.075688 -1.609133
878.51953125 1.2538019999999999 0.85 -0.403802
878.8515625 0.638557 -0.131697 -0.770254
879.625 1.279229 0.875 -0.404229
880.30859375 1.308507 0.949891 -0.358616
881.03515625 1.2977910000000001 0.932791 -0.365
881.87109375 1.198771 0.820987 -0.377784
882.515625 1.408642 0.995384 -0.413258
883.20703125 1.315105 0.955105 -0.36
883.78515625 1.314097 0.954461 -0.359636
884.45703125 1.324982 1.008291 -0.316691
885.0546875 1.3294519999999999 1.006759 -0.322693
885.7890625 1.286821 0.949845 -0.336976
886.50390625 1.219746 0.939914 -0.279832
887.1953125 1.405786 1.084303 -0.321483
887.8828125 1.344922 1.056562 -0.28836
888.55859375 1.3769689999999999 1.089276 -0.287693
889.2734375 1.38418 1.07418 -0.31
889.9609375 1.36452 1.015 -0.34952
890.71875 1.386301 1.023173 -0.363128
891.5234375 1.2618900000000002 1.018933 -0.242957
892.01953125 1.403822 1.104994 -0.298828
892.6796875 1.2686629999999999 1.038663 -0.23
893.4765625 1.2758539999999998 1.000854 -0.275
894.1015625 1.315077 1.07037 -0.244707
894.74609375 1.409096 1.159128 -0.249968
895.61328125 1.269384 1.078451 -0.190933
896.37109375 1.1452149999999999 0.99 -0.155215
896.9453125 1.307981 1.125015 -0.182966
897.66796875 1.280019 1.095454 -0.184565
898.55859375 1.228302 0.944225 -0.284077
899.2109375 1.391905 0.98482 -0.407085
899.89453125 1.27172 0.834957 -0.436763
900.5390625 1.3865720000000001 0.91 -0.476572
901.23046875 1.348879 0.985281 -0.363598
901.828125 1.4130989999999999 1.079272 -0.333827
902.5 1.381691 1.065 -0.316691
903.05859375 1.4015199999999999 1.059948 -0.341572
903.921875 1.158089 0.92855 -0.229539
904.5859375 1.396963 1.159857 -0.237106
905.13671875 1.449415 1.219415 -0.23
905.8359375 1.394332 1.134768 -0.259564
906.3984375 1.2995510000000001 1.063379 -0.236172
907.0234375 1.398123 1.145442 -0.252681
907.63671875 0.96788 0.483774 -0.484106
908.37109375 1.36893 1.164513 -0.204417
909.1015625 1.3452309999999998 1.146688 -0.198543
909.734375 1.4815680000000002 1.133323 -0.348245
910.4375 1.288219 0.983947 -0.304272
911.09765625 1.4540870000000001 1.154087 -0.3
911.74609375 1.3254679999999999 1.075 -0.250468
912.4765625 1.393211 1.033379 -0.359832
913.3828125 1.178558 0.858701 -0.319857
914.125 1.314932 0.96 -0.354932
914.78515625 1.369312 0.944312 -0.425
915.45703125 1.246929 0.897176 -0.349753
916.0546875 1.3508330000000002 1.025862 -0.324971
916.66796875 1.411002 1.072886 -0.338116
917.2734375 1.4113069999999999 1.086757 -0.32455
917.828125 1.3591700000000002 1.049365 -0.309805
918.5078125 1.43354 1.10247 -0.33107
919.1015625 1.4284430000000001 1.038319 -0.390124
919.734375 1.394224 0.969224 -0.425
920.51171875 1.295684 0.840684 -0.455
921.3125 1.2850570000000001 0.840385 -0.444672
921.953125 1.298138 0.849419 -0.448719
922.65625 1.30469 0.784648 -0.520042
923.328125 1.3433890000000002 0.833389 -0.51
923.91796875 1.398013 0.933013 -0.465
924.6875 1.293938 0.842448 -0.45149
925.3046875 1.439527 0.884303 -0.555224
926.12890625 1.305847 0.824011 -0.481836
926.578125 0.927936 0.10827 -0.819666
927.375 1.3786399999999999 0.955 -0.42364
927.984375 1.301822 0.917326 -0.384496
928.625 1.3996089999999999 0.94 -0.459609
929.35546875 1.409934 0.944934 -0.465
930.05078125 1.33958 0.924034 -0.415546
931.08203125 1.280044 0.794576 -0.485468
931.734375 1.371282 0.8682 -0.503082
932.42578125 1.316021 0.874138 -0.441883
933.23828125 1.300075 0.869714 -0.430361
933.9296875 1.266068 0.896104 -0.369964
934.609375 1.358225 1.035264 -0.322961
935.40234375 1.222561 0.965 -0.257561
935.96484375 1.409461 1.139461 -0.27
936.2578125 0.694812 0.004812 -0.69
937.078125 1.193571 0.914505 -0.279066
937.79296875 1.340989 0.975989 -0.365
938.609375 1.267722 0.911016 -0.356706
939.31640625 1.24735 0.869694 -0.377656
940.1015625 1.264916 0.835 -0.429916
940.7109375 1.27597 0.831082 -0.444888
941.328125 1.403071 0.899566 -0.503505
942.0 1.357267 0.895 -0.462267
942.66015625 1.239323 0.904323 -0.335
942.96875 0.6791659999999999 -0.073988 -0.753154
944.0546875 1.182398 0.964683 -0.217715
944.8203125 1.33 1.135 -0.195
945.4296875 1.416768 1.182879 -0.233889
945.74609375 0.788111 0.088965 -0.699146
946.60546875 1.2594560000000001 0.94496 -0.314496
947.234375 1.398227 1.053284 -0.344943
947.84375 1.3058589999999999 0.955859 -0.35
948.47265625 1.3396919999999999 0.944692 -0.395
948.98828125 1.443986 0.999736 -0.44425
949.71875 1.312781 0.96707 -0.345711
950.45703125 1.288789 0.957543 -0.331246
951.1484375 1.3811909999999998 1.021191 -0.36
951.68359375 1.458315 1.042988 -0.415327
952.36328125 1.210179 0.821827 -0.388352
953.0390625 1.4185050000000001 0.83482 -0.583685
953.953125 1.227975 0.619531 -0.608444
954.5625 1.354 0.924 -0.43
955.22265625 1.254968 1.11 -0.144968
955.84375 1.340771 1.245771 -0.095
956.5078125 1.424804 1.264804 -0.16
957.1484375 1.396577 1.131591 -0.264986
957.84765625 1.322038 1.04451 -0.277528
958.578125 1.272786 1.007954 -0.264832
959.30078125 1.266477 1.008376 -0.258101
959.95703125 1.361698 1.091315 -0.270383
960.48828125 1.903327 1.337734 -0.565593
961.0703125 1.377748 1.102748 -0.275
961.55078125 2.912735 1.743143 -1.169592
962.55859375 1.9007800000000001 1.704544 -0.196236
962.9375 1.949683 0.503824 -1.445859
963.640625 1.030449 0.979187 -0.051262
964.34375 1.2687149999999998 1.141768 -0.126947
964.98046875 1.181845 0.90497 -0.276875
965.59375 1.098535 0.45479 -0.643745
966.12890625 1.353531 0.506187 -0.847344
966.765625 1.009309 0.270625 -0.738684
967.609375 0.7984720000000001 0.15 -0.648472
968.19140625 1.3433160000000002 0.742414 -0.600902
968.828125 1.031706 0.614059 -0.417647
969.59375 1.3813840000000002 1.063384 -0.318
970.19140625 1.317931 1.248807 -0.069124
971.51171875 0.852954 0.892954 0.04
971.90234375 1.59135 0.316301 -1.275049
972.796875 1.144149 0.749149 -0.395
973.23046875 1.694961 0.079987 -1.614974
974.015625 1.1555490000000002 0.567822 -0.587727
974.765625 1.110328 0.445386 -0.664942
975.4453125 1.35946 0.58946 -0.77
976.03125 1.398828 0.613828 -0.785
976.7734375 1.2788650000000001 0.648908 -0.629957
977.5234375 1.1576300000000002 0.636016 -0.521614
978.09765625 1.329303 0.784859 -0.544444
978.796875 1.363607 0.798607 -0.565
979.44140625 1.333721 0.850247 -0.483474
980.29296875 1.434753 1.079588 -0.355165
980.94921875 1.518058 1.16415 -0.353908
981.65625 1.657109 1.072109 -0.585
982.36328125 1.498095 0.742892 -0.755203
983.01171875 1.111637 0.541758 -0.569879
983.7578125 1.725383 3.319581 1.594198
984.98828125 0.918773 0.844734 -0.074039
985.70703125 0.8300000000000001 0.145 -0.685
986.3671875 0.811353 -0.068404 -0.879757
987.23828125 0.7831640000000001 -0.066356 -0.84952
987.98046875 0.880948 0.205 -0.675948
988.58203125 0.856272 0.292971 -0.563301
989.26953125 0.854168 0.36491 -0.489258
989.90234375 0.9267650000000001 0.403687 -0.523078
990.5703125 0.869184 0.412172 -0.457012
991.234375 0.9285680000000001 0.475703 -0.452865
991.890625 0.899985 0.434985 -0.465
992.5 0.875853 0.47 -0.405853
993.31640625 0.860131 0.534803 -0.325328
994.109375 0.7756810000000001 0.380809 -0.394872
994.8203125 0.8879859999999999 0.537986 -0.35
995.5234375 0.957423 0.737423 -0.22
996.13671875 0.9484379999999999 0.815 -0.133438
996.7109375 0.9341700000000001 0.839701 -0.094469
997.37109375 0.8706780000000001 0.810806 -0.059872
998.01953125 0.849932 0.804932 -0.045
998.75390625 0.956956 0.853048 -0.103908
999.45703125 0.723851 0.67471 -0.049141
1000.15625 1.039581 0.79706 -0.242521
1000.859375 0.795004 0.59125 -0.203754
1002.0078125 0.716595 0.464028 -0.252567
1002.578125 0.913007 0.587152 -0.325855
1003.296875 0.758526 0.489258 -0.269268
1004.2734375 0.46408699999999997 0.260918 -0.203169
1005.04296875 0.855324 0.65311 -0.202214
1005.75390625 0.843012 0.708118 -0.134894
1006.69921875 0.46946200000000005 0.369462 -0.1
1007.2421875 0.933959 0.778498 -0.155461
1007.9296875 0.9163789999999999 0.806626 -0.109753
1008.6484375 0.773764 0.623869 -0.149895
1009.39453125 0.834713 0.699904 -0.134809
1010.08203125 0.9277070000000001 0.743117 -0.18459
1010.8671875 0.939485 0.689485 -0.25
1011.55859375 0.871445 0.621445 -0.25
1012.26953125 0.8899929999999999 0.84 -0.049993
1012.88671875 0.84142 0.801635 -0.039785
1013.59375 0.930589 0.545589 -0.385
1014.2578125 0.890299 0.107946 -0.782353
1014.9453125 0.796837 0.07207 -0.724767
1015.6640625 0.812705 0.330566 -0.482139
1016.328125 0.8052090000000001 0.54 -0.265209
1016.9140625 0.8356030000000001 0.651082 -0.184521
1017.36328125 1.225249 0.160259 -1.06499
1018.19921875 0.620796 0.455374 -0.165422
1018.60546875 1.668714 0.459986 -1.208728
1019.5546875 0.795537 0.592538 -0.202999
1019.97265625 1.609977 0.440656 -1.169321
1020.66015625 0.7771649999999999 0.6426 -0.134565
1021.30078125 0.9211940000000001 0.652849 -0.268345
1021.78515625 1.337166 0.067477 -1.269689
1022.42578125 0.769467 0.46935 -0.300117
1022.88671875 1.794908 1.19027 -0.604638
1023.5859375 0.708511 0.474683 -0.233828
1024.40625 0.76611 0.50374 -0.26237
1024.83203125 1.691675 1.15353 -0.538145
1025.734375 0.626352 0.384209 -0.242143
1026.140625 1.692879 0.360111 -1.332768
1026.9765625 0.74013 0.411221 -0.328909
1027.44140625 1.639699 0.324718 -1.314981
1028.140625 0.7963439999999999 0.466183 -0.330161
1028.8828125 0.833704 0.509485 -0.324219
1029.4921875 0.9394640000000001 0.506206 -0.433258
1030.2578125 0.8840429999999999 0.512052 -0.371991
1031.03125 0.8345389999999999 0.44 -0.394539
1031.75390625 0.8456710000000001 0.392312 -0.453359
1032.34375 0.911843 0.512109 -0.399734
1033.05859375 0.9230259999999999 0.634585 -0.288441
1033.83984375 0.762384 0.487723 -0.274661
1034.609375 0.840472 0.616818 -0.223654
1035.328125 0.930497 0.702025 -0.228472
1036.0078125 0.861737 0.681737 -0.18
1036.7265625 0.8128789999999999 0.693016 -0.119863
1037.4140625 0.9463360000000001 0.759792 -0.186544
1038.14453125 0.9482459999999999 0.659887 -0.288359
1038.62890625 1.038379 0.761858 -0.276521
1039.28515625 0.7413529999999999 0.438474 -0.302879
1040.1171875 0.866587 0.531587 -0.335
1040.85546875 0.883494 0.534994 -0.3485
1041.56640625 0.8271580000000001 0.469476 -0.357682
1042.3515625 0.796843 0.375843 -0.421
1043.2265625 0.498737 0.173889 -0.324848
1043.94921875 0.764921 0.459471 -0.30545
1044.6171875 0.8692759999999999 0.5544 -0.314876
1045.36328125 0.946014 0.584002 -0.362012
1046.19921875 0.707913 0.422913 -0.285
1046.8046875 0.908793 0.568844 -0.339949
1047.53125 0.844821 0.492705 -0.352116
1047.875 1.269763 0.0 -1.269763
1048.54296875 0.625896 0.305896 -0.32
1049.20703125 0.8314760000000001 0.506476 -0.325
1049.84765625 2.039574 1.459574 -0.58
1050.453125 0.8373079999999999 0.647689 -0.189619
1050.7421875 1.139822 0.125187 -1.014635
1051.46875 0.641336 0.448738 -0.192598
1052.2578125 0.7242390000000001 0.569567 -0.154672
1053.06640625 0.735833 0.524516 -0.211317
1053.81640625 0.789922 0.544507 -0.245415
1054.33203125 1.083676 0.780749 -0.302927
1055.0390625 0.7250559999999999 0.334727 -0.390329
1055.65625 1.022973 0.221594 -0.801379
1056.28125 0.851351 0.667132 -0.184219
1056.97265625 0.9532020000000001 0.732987 -0.220215
1057.796875 0.8300000000000001 0.545 -0.285
1058.20703125 0.6640170000000001 0.111179 -0.552838
1058.8671875 0.609301 0.414301 -0.195
1059.55078125 0.872469 0.635 -0.237469
1060.2734375 0.877059 0.601007 -0.276052
1060.90625 0.7743789999999999 0.511664 -0.262715
1061.4296875 0.926719 0.701719 -0.225
1062.09375 0.7921429999999999 0.567143 -0.225
1062.81640625 0.844978 0.530808 -0.31417
1063.5625 0.81145 0.597187 -0.214263
1064.4375 0.821856 0.571875 -0.249981
1065.23046875 0.839036 0.55055 -0.288486
1065.9453125 0.909048 0.689048 -0.22
1066.69921875 0.8518560000000001 0.65549 -0.196366
1067.4375 0.883328 0.661797 -0.221531
1068.1328125 0.8180259999999999 0.542862 -0.275164
1068.76171875 0.8484039999999999 0.602529 -0.245875
1069.3046875 0.948145 0.699141 -0.249004
1069.9765625 0.674385 0.344449 -0.329936
1070.71484375 0.765636 0.532699 -0.232937
1071.4296875 0.8484200000000001 0.60343 -0.24499
1072.328125 0.672809 0.402977 -0.269832
1073.28125 0.45436200000000004 0.269656 -0.184706
1073.95703125 0.79142 0.530022 -0.261398
1074.625 0.855 0.515 -0.34
1075.33203125 0.794926 0.549926 -0.245
1076.1328125 0.774726 0.519789 -0.254937
1077.0 1.203964 -0.06 -1.263964
1077.61328125 0.958742 0.596272 -0.36247
1078.3359375 0.739523 0.499611 -0.239912
1078.875 1.2329189999999999 0.835 -0.397919
1079.81640625 0.8325940000000001 -0.056751 -0.889345
1080.44140625 0.884423 0.539648 -0.344775
1081.09765625 0.682755 0.272139 -0.410616
1081.6171875 1.062338 -0.155907 -1.218245
1082.46875 0.639393 0.277143 -0.36225
1082.921875 1.661825 0.205 -1.456825
1083.45703125 1.0738249999999998 -0.124586 -1.198411
1084.0859375 1.270521 -0.021013 -1.291534
1084.703125 1.661595 1.2379 -0.423695
1084.9921875 1.1713 0.305 -0.8663
1085.61328125 1.367143 0.223774 -1.143369
1086.35546875 0.779719 0.349994 -0.429725
1086.7890625 1.2839399999999999 0.724711 -0.559229
1087.80859375 0.613807 0.239585 -0.374222
1088.22265625 1.659639 0.246218 -1.413421
1088.9609375 0.6792320000000001 0.279232 -0.4
1089.71484375 0.798543 0.400753 -0.39779
1090.5 0.73 0.345 -0.385
1091.25390625 1.235008 -0.061742 -1.29675
1091.9296875 0.735314 0.375343 -0.359971
1092.64453125 1.275 -0.06 -1.335
1093.43359375 0.6085929999999999 0.339663 -0.26893
1094.23046875 1.247231 0.085 -1.162231
1094.953125 0.86453 0.614671 -0.249859
1096.3046875 0.7687569999999999 0.45364 -0.315117
1097.01953125 0.751139 0.445275 -0.305864
1097.71484375 0.808134 0.47599 -0.332144
1098.515625 1.1922409999999999 -0.031908 -1.224149
1099.09765625 0.850534 0.549104 -0.30143
1099.73828125 0.8140229999999999 0.509023 -0.305
1100.55078125 0.798928 0.564553 -0.234375
1101.3828125 0.741568 -0.054539 -0.796107
1101.96484375 0.918163 0.651952 -0.266211
1102.59765625 0.799447 0.539531 -0.259916
1103.16015625 1.126374 -0.023168 -1.149542
1103.69921875 0.743494 0.478494 -0.265
1104.33984375 1.28 0.045 -1.235
1105.015625 0.8611739999999999 0.596818 -0.264356
1105.53125 1.336327 0.92725 -0.409077
1106.41015625 0.7602 0.3802 -0.38
1106.8515625 1.453419 0.81789 -0.635529
1107.51953125 1.232 0.05 -1.182
1108.34375 0.618599 0.332087 -0.286512
1108.765625 1.678908 0.32 -1.358908
1109.2265625 1.1560679999999999 0.032034 -1.124034
1110.00390625 0.47473 0.285263 -0.189467
1110.78515625 1.28131 0.081832 -1.199478
1111.734375 0.653154 0.388154 -0.265
1112.171875 1.671509 0.170933 -1.500576
1113.03125 1.183357 0.90207 -0.281287
1113.9921875 1.228362 1.356493 0.128131
1114.75 1.159559 1.07 -0.089559
1115.47265625 1.463587 1.203821 -0.259766
1115.83984375 0.7964870000000001 0.026773 -0.769714
1116.5 1.243352 0.68 -0.563352
1117.15234375 1.258385 0.919479 -0.338906
1117.96875 1.300468 0.717087 -0.583381
1118.77734375 1.255158 0.919697 -0.335461
1119.48828125 1.403602 0.904397 -0.499205
1120.21484375 1.288976 0.913508 -0.375468
1120.9609375 1.532859 1.219725 -0.313134
1121.6015625 1.4242659999999998 1.003016 -0.42125
1122.26171875 1.32 1.02 -0.3
1122.828125 1.454373 1.314174 -0.140199
1123.453125 1.488939 1.198977 -0.289962
1124.2578125 1.330348 1.03801 -0.292338
1125.015625 1.429993 1.2 -0.229993
1125.76171875 1.457592 1.097592 -0.36
1126.515625 1.376552 0.951576 -0.424976
1127.296875 1.5272359999999998 1.184408 -0.342828
1127.859375 1.4920550000000001 1.107366 -0.384689
1128.52734375 1.203488 0.838641 -0.364847
1129.31640625 1.417969 1.09 -0.327969
1130.0625 1.486726 1.136944 -0.349782
1131.0 1.2458529999999999 0.965 -0.280853
1131.6171875 1.505878 1.179098 -0.32678
1132.22265625 1.498119 1.097418 -0.400701
1132.78125 1.3780320000000001 1.081196 -0.296836
1133.35546875 1.434947 1.194947 -0.24
1134.1640625 1.436537 1.079732 -0.356805
1134.96875 1.448806 1.126992 -0.321814
1135.6171875 1.4015970000000002 1.104572 -0.297025
1136.23828125 1.446863 1.102129 -0.344734
1137.69921875 1.457126 1.132126 -0.325
1138.3359375 1.4548510000000001 1.114851 -0.34
1139.08203125 1.3832520000000001 1.07834 -0.304912
1139.7890625 1.483993 1.129977 -0.354016
1140.5625 1.357053 1.068981 -0.288072
1141.33984375 1.450146 1.145071 -0.305075
1141.97265625 1.456567 1.151317 -0.30525
1142.61328125 1.4043580000000002 1.08451 -0.319848
1142.9453125 1.086336 0.046961 -1.039375
1143.74609375 1.395915 0.940915 -0.455
1144.49609375 1.4008850000000002 0.920953 -0.479932
1145.28515625 1.4913859999999999 0.971386 -0.52
1145.86328125 1.489447 1.038379 -0.451068
1146.70703125 1.439131 1.074916 -0.364215
1147.4765625 1.506392 1.142218 -0.364174
1148.08203125 1.579256 1.219368 -0.359888
1148.67578125 1.505308 1.153472 -0.351836
1149.43359375 1.4982520000000001 1.184568 -0.313684
1150.1484375 1.5283309999999999 1.223331 -0.305
1150.890625 1.502929 1.168154 -0.334775
1151.56640625 1.437926 1.122926 -0.315
1152.1796875 1.534332 1.194303 -0.340029
1152.8515625 1.535295 1.145789 -0.389506
1153.4375 1.502206 1.147206 -0.355
1154.21875 1.4078249999999999 1.052949 -0.354876
1154.91796875 1.514035 1.139672 -0.374363
1155.48046875 1.5249769999999998 1.144977 -0.38
1156.1171875 1.2955489999999998 1.024028 -0.271521
1156.859375 1.3846610000000001 1.095625 -0.289036
1157.51171875 1.446875 1.085 -0.361875
1158.171875 1.307322 1.018787 -0.288535
1158.4921875 0.768068 0.41433 -0.353738
1159.4140625 1.3699459999999999 1.014946 -0.355
1160.1171875 1.367751 1.013431 -0.35432
1160.953125 1.4344830000000002 1.124629 -0.309854
1161.60546875 1.4144349999999999 1.059435 -0.355
1162.30078125 1.3877730000000001 0.983925 -0.403848
1162.62109375 0.8974390000000001 0.032665 -0.864774
1163.55859375 1.3367040000000001 1.05467 -0.282034
1164.28515625 1.3399999999999999 0.955 -0.385
1164.9140625 1.333982 1.019905 -0.314077
1165.55078125 1.415961 1.099571 -0.31639
1166.27734375 1.413353 0.979276 -0.434077
1167.0 1.185 0.88 -0.305
1167.796875 1.3857979999999999 1.091996 -0.293802
1168.48046875 1.439857 1.019941 -0.419916
1169.2265625 1.239783 0.884783 -0.355
1169.8984375 1.443089 1.097972 -0.345117
1170.6328125 1.499291 0.999442 -0.499849
1171.4921875 1.288519 0.798644 -0.489875
1172.09765625 1.3575 1.0 -0.3575
1172.87109375 1.451626 0.977958 -0.473668
1173.6328125 1.339011 0.894011 -0.445
1174.34375 1.300411 0.885658 -0.414753
1175.1484375 1.527905 1.109289 -0.418616
1175.9140625 1.514404 1.074637 -0.439767
1176.6015625 1.519847 1.066347 -0.4535
1177.38671875 1.361135 1.007817 -0.353318
1178.140625 1.4933299999999998 1.168359 -0.324971
1178.9296875 1.531533 1.167489 -0.364044
1179.4765625 1.54142 1.18649 -0.35493
1180.23046875 1.384477 1.049986 -0.334491
1180.9453125 1.33467 0.983508 -0.351162
1181.5703125 1.48949 1.099602 -0.389888
1182.17578125 1.505823 1.086317 -0.419506
1182.546875 0.9246559999999999 0.179081 -0.745575
1183.40234375 1.4716589999999998 1.06751 -0.404149
1183.8359375 1.484737 0.034737 -1.45
1184.8125 0.742401 0.258333 -0.484068
1185.70703125 1.487192 1.06258 -0.424612
1186.390625 1.383817 0.987884 -0.395933
1187.09375 1.489138 1.074167 -0.414971
1187.7890625 1.529621 1.109621 -0.42
1188.4765625 1.5093640000000001 1.109364 -0.4
1189.140625 1.423108 1.02969 -0.393418
1189.56640625 0.9511399999999999 0.546653 -0.404487
1190.48828125 1.348691 1.004707 -0.343984
1191.2265625 1.51987 1.134927 -0.384943
1191.921875 1.482715 1.139693 -0.343022
1192.515625 1.5763600000000002 1.17636 -0.4
1193.09765625 1.566222 1.144518 -0.421704
1193.703125 1.564059 1.124805 -0.439254
1194.2421875 1.5969879999999999 1.159312 -0.437676
1194.8671875 1.447174 1.022992 -0.424182
1195.68359375 1.54988 1.10988 -0.44
1196.4296875 1.536019 1.133293 -0.402726
1197.22265625 1.5388709999999999 1.163176 -0.375695
1198.11328125 1.553983 1.192621 -0.361362
1198.74609375 1.514138 1.219962 -0.294176
1199.33984375 1.358725 1.10435 -0.254375
1200.0 1.489151 1.17 -0.319151
1200.61328125 1.5415780000000001 1.215 -0.326578
1201.49609375 1.437716 1.095239 -0.342477
1202.18359375 1.4889649999999999 1.153965 -0.335
1202.93359375 1.5237829999999999 1.164872 -0.358911
1203.69921875 1.535229 1.139567 -0.395662
1204.453125 1.4661460000000002 1.054121 -0.412025
1205.14453125 1.44772 1.149994 -0.297726
1205.79296875 1.382421 1.067421 -0.315
1206.484375 1.4492289999999999 1.009229 -0.44
1207.26953125 1.292175 1.004925 -0.28725
1208.0234375 1.4200940000000002 1.045268 -0.374826
1208.5859375 1.669921 1.014977 -0.654944
1209.3515625 1.336346 0.956375 -0.379971
1209.921875 1.360225 0.974612 -0.385613
1210.56640625 1.369487 0.944487 -0.425
1211.21484375 1.227208 0.902208 -0.325
1211.91015625 1.383655 1.108655 -0.275
1212.234375 0.8951220000000001 0.006426 -0.888696
1212.89453125 1.219878 0.769668 -0.45021
1213.5546875 1.279252 0.888832 -0.39042
1214.2734375 1.373166 1.119631 -0.253535
1215.01171875 1.3979659999999998 1.015 -0.382966
1215.68359375 1.350785 0.964872 -0.385913
1216.375 1.468719 1.05 -0.418719
1217.078125 1.292089 0.962089 -0.33
1217.78515625 1.349626 1.04206 -0.307566
1218.4921875 1.375813 0.964567 -0.411246
1219.109375 1.420822 0.950386 -0.470436
1219.73046875 1.4252850000000001 1.075285 -0.35
1220.52734375 1.4761760000000002 1.028396 -0.44778
1221.44140625 1.396039 0.990829 -0.40521
1222.05078125 1.488801 0.976379 -0.512422
1222.65625 1.444334 0.974648 -0.469686
1223.2421875 1.5071940000000001 1.04933 -0.457864
1223.546875 1.083385 0.013649 -1.069736
1224.4375 1.365132 0.880132 -0.485
1225.03125 1.386265 0.908409 -0.477856
1225.73046875 1.374713 0.904988 -0.469725
1226.4609375 1.3997950000000001 0.969851 -0.429944
1227.109375 1.37415 0.96915 -0.405
1227.9375 1.477514 1.073661 -0.403853
1228.6171875 1.349442 0.9798 -0.369642
1229.21484375 1.448133 1.072624 -0.375509
1229.85546875 1.42451 1.045 -0.37951
1230.5546875 1.461815 1.086829 -0.374986
1231.26171875 1.487136 1.083136 -0.404
1231.890625 1.50041 1.073042 -0.427368
1232.60546875 1.412113 1.034969 -0.377144
1233.29296875 1.352675 0.983755 -0.36892
1234.046875 1.38639 1.055 -0.33139
1234.75390625 1.491937 1.131937 -0.36
1235.40625 1.3916879999999998 1.059645 -0.332043
1235.9921875 1.499406 1.148992 -0.350414
1236.55078125 1.490015 1.162272 -0.327743
1237.0859375 1.0150329999999999 0.114916 -0.900117
1238.09375 1.4037709999999999 1.089265 -0.314506
1238.55078125 1.058253 0.709581 -0.348672
1239.35546875 1.343994 1.079994 -0.264
1239.6875 0.8611989999999999 0.086205 -0.774994
1240.421875 1.427165 1.098747 -0.328418
1241.0625 1.470625 1.171667 -0.298958
1241.67578125 1.338527 1.061808 -0.276719
1242.3125 1.3683859999999999 1.123611 -0.244775
1243.01171875 1.448458 1.193515 -0.254943
1243.69140625 1.458361 1.184681 -0.27368
1244.37890625 1.316846 1.061846 -0.255
1245.08984375 1.4708109999999999 1.227817 -0.242994
1245.87109375 1.530778 1.270902 -0.259876
1246.6875 1.38299 1.128646 -0.254344
1247.4296875 1.423605 1.203283 -0.220322
1248.05078125 1.466652 1.216652 -0.25
1248.69140625 1.4489239999999999 1.143924 -0.305
1249.43359375 1.374626 1.129297 -0.245329
1250.23046875 1.44475 1.144891 -0.299859
1250.984375 1.367767 1.033447 -0.33432
1251.60546875 1.3844150000000002 1.109609 -0.274806
1252.30078125 1.4759129999999998 1.14 -0.335913
1253.4453125 1.334174 0.974365 -0.359809
1254.15625 1.38457 1.11957 -0.265
1254.765625 1.507484 1.202484 -0.305
1255.44140625 1.4379680000000001 1.09453 -0.343438
1256.1171875 1.37833 1.078992 -0.299338
1256.828125 1.454122 1.189907 -0.264215
1257.58203125 1.434908 1.117844 -0.317064
1258.21484375 1.490996 1.109345 -0.381651
1258.93359375 1.362481 1.029817 -0.332664
1259.51953125 1.474453 1.144972 -0.329481
1260.234375 1.455984 1.094463 -0.361521
1260.96875 1.475326 1.10425 -0.371076
1261.78515625 1.4345729999999999 1.144906 -0.289667
1262.47265625 1.417368 1.099701 -0.317667
1263.7578125 1.423292 1.073811 -0.349481
1264.421875 1.3399999999999999 1.025 -0.315
1265.24609375 1.498169 1.114559 -0.38361
1265.6875 0.685385 0.350385 -0.335
1265.953125 0.989857 0.002952 -0.986905
1266.95703125 1.398098 1.041086 -0.357012
1267.671875 1.464791 1.079671 -0.38512
1268.71484375 1.328345 1.000555 -0.32779
1269.375 1.5430030000000001 1.175 -0.368003
1270.00390625 1.500865 1.150953 -0.349912
1270.58984375 1.496087 1.161238 -0.334849
1271.16015625 1.548636 1.183636 -0.365
1271.86328125 1.475 1.135 -0.34
1272.515625 1.318409 1.053409 -0.265
1273.16015625 1.434364 1.119364 -0.315
1273.765625 1.544691 1.20808 -0.336611
1274.4296875 1.452866 1.112866 -0.34
1275.08203125 1.439038 1.111771 -0.327267
1275.734375 1.37652 1.032231 -0.344289
1276.375 1.460992 1.085 -0.375992
1276.98828125 1.419612 1.08 -0.339612
1277.53125 1.5371290000000002 1.099339 -0.43779
1278.09765625 1.44747 1.089866 -0.357604
1278.40625 0.903519 0.023395 -0.880124
1279.328125 1.31224 0.944689 -0.367551
1279.86328125 1.466769 1.046853 -0.419916
1280.63671875 1.33182 0.948136 -0.383684
1281.37890625 1.368874 1.043906 -0.324968
1282.01953125 1.502636 1.089955 -0.412681
1282.734375 1.420111 1.020111 -0.4
1283.0625 0.9325340000000001 -0.017172 -0.949706
1284.09765625 1.3171140000000001 0.929479 -0.387635
1284.83984375 1.349247 0.955382 -0.393865
1285.3359375 0.970997 -0.12 -1.090997
1285.95703125 1.451558 1.058824 -0.392734
1286.69140625 1.491695 1.069195 -0.4225
1287.34765625 1.446753 1.082325 -0.364428
1288.109375 1.503672 1.283672 -0.22
1288.83984375 1.519799 1.184993 -0.334806
1289.57421875 1.37218 1.087256 -0.284924
1290.18359375 1.436955 1.144394 -0.292561
1291.04296875 1.329936 0.890183 -0.439753
1291.91015625 1.351386 1.016386 -0.335
1292.50390625 1.607021 1.16208 -0.444941
1293.1875 1.2486169999999999 0.838646 -0.409971
1293.93359375 1.3051970000000002 0.999943 -0.305254
1294.64453125 1.5139930000000001 1.124972 -0.389021
1295.39453125 1.299986 0.934986 -0.365
1295.9609375 1.369191 1.099191 -0.27
1296.60546875 1.4857170000000002 1.039646 -0.446071
1297.23046875 1.371889 0.939956 -0.431933
1297.91015625 1.273624 0.983624 -0.29
1298.52734375 1.408832 1.104864 -0.303968
1299.2109375 1.494856 1.059647 -0.435209
1299.53515625 1.000406 -0.006648 -1.007054
1300.29296875 1.23004 0.894774 -0.335266
1301.04296875 1.413487 1.118487 -0.295
1301.70703125 1.407035 1.037035 -0.37
1302.37890625 1.3367010000000001 0.951076 -0.385625
1303.17578125 1.2948469999999999 0.986652 -0.308195
1303.99609375 1.397738 0.989098 -0.40864
1304.75390625 1.31286 0.88786 -0.425
1305.49609375 1.381117 0.921117 -0.46
1306.20703125 1.388383 0.99818 -0.390203
1306.87109375 1.364302 0.989302 -0.375
1307.40234375 1.5281150000000001 1.083115 -0.445
1308.015625 1.285484 0.885768 -0.399716
1308.62890625 1.4740980000000001 0.999098 -0.475
1309.27734375 1.3129549999999999 0.963424 -0.349531
1309.9609375 1.465709 1.039854 -0.425855
1310.77734375 1.422382 1.019701 -0.402681
1311.65625 1.511498 1.088738 -0.42276
1312.2890625 1.424825 1.039825 -0.385
1312.81640625 1.55029 1.086606 -0.463684
1313.39453125 1.41198 0.964946 -0.447034
1314.07421875 1.349719 1.005 -0.344719
1314.69140625 1.50526 1.145 -0.36026
1315.25390625 1.485926 1.16963 -0.316296
1315.984375 1.442444 1.133804 -0.30864
1316.75390625 1.4674040000000002 1.149086 -0.318318
1317.41015625 1.410562 1.079275 -0.331287
1318.09375 1.465165 1.075412 -0.389753
1318.7421875 1.403146 1.03834 -0.364806
1319.35546875 1.418285 1.074957 -0.343328
1320.02734375 1.339416 1.004649 -0.334767
1320.69140625 1.484171 1.089952 -0.394219
1321.29296875 1.4684789999999999 1.098479 -0.37
1321.984375 1.4700389999999999 1.040508 -0.429531
1322.6953125 1.391494 1.019141 -0.372353
1323.35546875 1.466875 1.085 -0.381875
1323.9296875 1.569416 1.164416 -0.405
1324.62890625 1.326799 0.998791 -0.328008
1325.27734375 1.462965 1.082965 -0.38
1325.90625 1.328922 0.994 -0.334922
1326.890625 1.318301 1.058301 -0.26
1327.578125 1.494758 1.171104 -0.323654
1328.4609375 1.442297 1.07983 -0.362467
1329.09765625 1.428949 1.102699 -0.32625
1329.79296875 1.4581600000000001 1.049622 -0.408538
1330.4140625 1.487357 1.089664 -0.397693
1331.109375 1.317135 0.967386 -0.349749
1331.6796875 1.439499 1.169226 -0.270273
1332.3203125 1.38384 1.077531 -0.306309
1332.99609375 1.443779 1.098779 -0.345
1333.92578125 1.287197 1.024036 -0.263161
1334.43359375 1.876066 1.359877 -0.516189
1335.203125 1.432255 1.083937 -0.348318
1336.1171875 1.097888 0.879216 -0.218672
1336.8515625 1.362503 1.11396 -0.248543
1337.4609375 1.379823 1.024823 -0.355
1338.0703125 1.335979 0.926828 -0.409151
1338.6640625 1.398928 1.204861 -0.194067
1339.22265625 1.4741220000000002 1.214479 -0.259643
1339.89453125 1.154964 0.74 -0.414964
1340.734375 1.237173 1.107884 -0.129289
1341.55078125 1.500731 1.265506 -0.235225
1342.81640625 1.179229 1.079557 -0.099672
1343.23828125 1.421386 0.349023 -1.072363
1344.05859375 1.398062 1.188604 -0.209458
1344.6484375 1.218008 1.065 -0.153008
1345.26171875 1.292449 1.014723 -0.277726
1345.875 1.287267 0.865 -0.422267
1346.5859375 1.187664 0.7699 -0.417764
1347.20703125 1.380967 1.008358 -0.372609
1348.07421875 1.422689 0.911697 -0.510992
1348.828125 1.252469 0.794542 -0.457927
1349.5390625 1.424754 0.954754 -0.47
1350.18359375 1.2596699999999998 0.76467 -0.495
1350.81640625 1.344204 0.974585 -0.369619
1351.5859375 1.4270390000000002 1.004825 -0.422214
1352.19140625 1.464718 1.029718 -0.435
1352.90625 1.198474 0.884621 -0.313853
1353.53515625 1.4109690000000001 1.110969 -0.3
1354.2734375 1.2884309999999999 0.945 -0.343431
1354.921875 1.3749090000000002 0.979909 -0.395
1355.54296875 1.383762 0.993442 -0.39032
1356.44921875 1.204215 0.91 -0.294215
1357.05078125 1.4225590000000001 1.081838 -0.340721
1357.703125 1.482966 1.085 -0.397966
1358.3125 1.5297 1.1297 -0.4
1359.05078125 1.4285210000000002 1.00032 -0.428201
1359.6875 1.4936099999999999 1.038667 -0.454943
1360.4921875 1.338477 0.956575 -0.381902
1361.2109375 1.383208 1.019722 -0.363486
1361.87109375 1.468621 1.093789 -0.374832
1362.5078125 1.29605 1.02205 -0.274
1363.13671875 1.4576959999999999 1.09473 -0.362966
1363.91796875 1.493042 1.125171 -0.367871
1364.7890625 1.449764 1.114764 -0.335
1365.73046875 1.428834 1.084994 -0.34384
1366.40625 1.45639 1.115 -0.34139
1367.15625 1.4165370000000002 1.074167 -0.34237
1367.80078125 1.4700879999999998 1.142718 -0.32737
1368.8359375 1.179978 0.804978 -0.375
1369.60546875 1.515364 1.184949 -0.330415
1369.90625 0.894606 -0.03375 -0.928356
1370.9375 1.2850000000000001 1.04 -0.245
1371.671875 1.436543 1.144707 -0.291836
1372.37890625 1.443003 1.14 -0.303003
1372.99609375 1.413905 1.089302 -0.324603
1373.66015625 1.4919200000000001 1.06692 -0.425
1374.34765625 1.4774370000000001 1.059104 -0.418333
1374.96875 1.409741 1.063375 -0.346366
1375.5546875 1.440308 1.12116 -0.319148
1376.375 1.467679 1.14 -0.327679
1377.36328125 1.3462999999999998 1.076401 -0.269899
1378.28125 1.388374 1.143125 -0.245249
1379.0234375 1.355209 1.131968 -0.223241
1379.59765625 1.4339719999999998 1.178305 -0.255667
1379.9453125 0.907848 0.070167 -0.837681
1380.85546875 1.394868 1.114973 -0.279895
1381.5234375 1.45891 1.133935 -0.324975
1382.2109375 1.3246120000000001 1.059612 -0.265
1382.91796875 1.508514 1.198785 -0.309729
1383.234375 1.0249190000000001 0.120996 -0.903923
1383.9609375 1.476918 1.104782 -0.372136
1384.5546875 1.522583 1.096011 -0.426572
1385.3125 1.412391 1.052391 -0.36
1385.99609375 1.4483039999999998 1.068949 -0.379355
1386.69140625 1.5144980000000001 1.084948 -0.42955
1387.30078125 1.546434 1.131434 -0.415
1387.875 1.434973 1.11 -0.324973
1388.5234375 1.434521 1.154521 -0.28
1389.16015625 1.4106150000000002 1.095101 -0.315514
1389.8359375 1.486983 1.081367 -0.405616
1390.57421875 1.407731 1.147731 -0.26
1391.296875 1.41552 1.17 -0.24552
1391.98828125 1.3661379999999999 1.081815 -0.284323
1392.70703125 1.417886 1.127886 -0.29
1393.25390625 1.4353410000000002 1.234927 -0.200414
1393.94921875 1.461964 1.123956 -0.338008
1394.6875 1.39047 1.023654 -0.366816
1395.38671875 1.311579 1.049714 -0.261865
1396.0078125 1.493002 1.176604 -0.316398
1396.61328125 1.4839000000000002 1.059438 -0.424462
1397.30078125 1.2133 0.9083 -0.305
1397.8203125 1.643912 1.278912 -0.365
1398.39453125 1.4790929999999998 1.039972 -0.439121
1399.0078125 1.244484 0.874572 -0.369912
1399.6640625 1.434948 1.079948 -0.355
1400.29296875 1.5406339999999998 1.062414 -0.47822
1401.015625 1.279906 0.860234 -0.419672
1401.7421875 1.3095979999999998 0.997454 -0.312144
1402.37890625 1.534399 1.131743 -0.402656
1403.09375 1.467786 1.058033 -0.409753
1403.89453125 1.389806 0.999962 -0.389844
1404.71484375 1.5127329999999999 1.122733 -0.39
1405.27734375 1.614704 1.134704 -0.48
1405.890625 1.446904 1.002942 -0.443962
1406.61328125 1.488127 1.061765 -0.426362
1407.2421875 1.5473150000000002 1.146562 -0.400753
1407.859375 1.530062 1.134229 -0.395833
1408.203125 1.0403060000000002 0.02408 -1.016226
1409.27734375 1.457764 1.07251 -0.385254
1409.96875 1.444936 1.05 -0.394936
1410.6015625 1.499625 1.068125 -0.4315
1411.296875 1.543661 1.153544 -0.390117
1411.875 1.5707200000000001 1.195 -0.37572
1412.56640625 1.4021919999999999 1.054536 -0.347656
1413.296875 1.513763 1.148763 -0.365
1414.21484375 1.45581 1.112425 -0.343385
1414.8828125 1.5188959999999998 1.122963 -0.395933
1415.49609375 1.523623 1.17279 -0.350833
1416.09375 1.421397 1.094635 -0.326762
1416.734375 1.507911 1.10877 -0.399141
1417.4296875 1.474224 1.081802 -0.392422
1418.12109375 1.4546070000000002 1.09 -0.364607
1418.86328125 1.459176 1.07 -0.389176
1419.60546875 1.484967 1.129967 -0.355
1420.29296875 1.435749 1.075749 -0.36
1420.9296875 1.4861060000000001 1.081719 -0.404387
1421.5703125 1.349678 0.959226 -0.390452
1422.21484375 1.48572 1.043612 -0.442108
1422.7421875 1.591733 1.133796 -0.457937
1423.05859375 0.940171 -0.050899 -0.99107
1423.7734375 1.5015680000000002 1.038933 -0.462635
1424.48046875 1.4444400000000002 1.069978 -0.374462
1425.17578125 1.465175 1.08649 -0.378685
1425.8671875 1.328188 0.95834 -0.369848
1426.6796875 1.5350579999999998 1.200087 -0.334971
1427.42578125 1.520511 1.184598 -0.335913
1428.36328125 1.381387 1.055 -0.326387
1429.00390625 1.3621249999999998 1.093033 -0.269092
1429.7578125 1.394228 1.142832 -0.251396
1430.4375 1.4940000000000002 1.249 -0.245
1431.1640625 1.38186 1.124978 -0.256882
1431.78515625 1.436315 1.083749 -0.352566
1432.09375 0.882938 -0.024538 -0.907476
1432.84375 1.378001 0.973125 -0.404876
1433.43359375 1.504927 1.213994 -0.290933
1434.03515625 1.567741 1.172741 -0.395
1434.609375 1.56493 1.095 -0.46993
1435.30078125 1.475593 0.990593 -0.485
1435.9375 1.400227 1.015227 -0.385
1436.625 1.376802 0.96 -0.416802
1437.30859375 1.41415 0.955 -0.45915
1438.05078125 1.338286 0.944438 -0.393848
1438.7421875 1.324307 1.028374 -0.295933
1439.4375 1.37804 0.928587 -0.449453
1440.0546875 1.344234 0.898971 -0.445263
1440.765625 1.273355 0.923355 -0.35
1441.51953125 1.4701359999999999 1.10998 -0.360156
1442.25390625 1.31776 0.96589 -0.35187
1442.83984375 1.3925230000000002 1.047635 -0.344888
1443.55078125 1.454363 1.155 -0.299363
1444.28125 1.357552 0.988594 -0.368958
1444.95703125 1.35957 1.0 -0.35957
1445.65234375 1.516768 1.194866 -0.321902
1446.34765625 1.48702 1.118687 -0.368333
1447.05078125 1.3 0.97 -0.33
1447.75 1.3849710000000002 1.08 -0.304971
1448.5390625 1.474669 1.149669 -0.325
1449.23828125 1.4149479999999999 1.127621 -0.287327
1449.89453125 1.484588 1.164994 -0.319594
1450.49609375 1.501358 1.177223 -0.324135
1451.0703125 1.435594 1.167375 -0.268219
1451.75 1.319151 1.14 -0.179151
1452.453125 1.371847 1.128649 -0.243198
1453.11328125 1.428779 1.152529 -0.27625
1453.8515625 1.388874 1.139121 -0.249753
1454.58203125 1.453519 1.158812 -0.294707
1455.23046875 1.36 1.1 -0.26
1455.890625 1.496162 1.17 -0.326162
1456.80859375 1.4549459999999999 1.129946 -0.325
1457.3671875 1.631753 1.218018 -0.413735
1457.87109375 1.678434 1.11354 -0.564894
1458.78515625 1.4866899999999998 1.104747 -0.381943
1459.42578125 1.4130820000000002 1.039438 -0.373644
1460.15234375 1.482313 1.09 -0.392313
1460.8671875 1.469427 1.049541 -0.419886
1461.58984375 1.44276 1.04776 -0.395
1462.28125 1.51507 1.126461 -0.388609
1462.9375 1.542769 1.140714 -0.402055
1463.54296875 1.607444 1.202444 -0.405
1464.23828125 1.540655 1.169734 -0.370921
1464.90234375 1.4644719999999998 1.15132 -0.313152
1465.4609375 1.5062220000000002 1.199623 -0.306599
1466.28515625 1.540834 1.195834 -0.345
1466.984375 1.492433 1.177493 -0.31494
1467.71875 1.6015089999999998 1.263437 -0.338072
1468.28515625 1.6052 1.2752 -0.33
1468.95703125 1.4025109999999998 1.097511 -0.305
1469.69921875 1.4931519999999998 1.178529 -0.314623
1470.32421875 1.5994329999999999 1.354471 -0.244962
1470.9765625 1.449115 1.25209 -0.197025
1471.5234375 1.5827369999999998 1.344053 -0.238684
1472.29296875 1.451339 1.167491 -0.283848
1472.92578125 1.4707189999999999 1.155905 -0.314814
1473.62890625 1.569439 1.202034 -0.367405
1474.2109375 1.59938 1.379848 -0.219532
1474.90234375 1.4115309999999999 1.149649 -0.261882
1475.6171875 1.487524 1.152992 -0.334532
1476.21875 1.5684989999999999 1.148375 -0.420124
1476.79296875 1.51318 1.16818 -0.345
1477.48828125 1.331078 1.068006 -0.263072
1478.25390625 1.4533 1.088791 -0.364509
1478.95703125 1.592405 1.083795 -0.50861
1479.7578125 1.448032 0.995 -0.453032
1480.5390625 1.321822 1.059916 -0.261906
1481.171875 1.411564 1.083871 -0.327693
1481.7890625 1.524921 1.119921 -0.405
1482.4609375 1.384363 0.989363 -0.395
1483.13671875 1.354843 1.104843 -0.25
1483.83984375 1.499685 1.090397 -0.409288
1484.75390625 1.4594939999999998 1.036034 -0.42346
1485.41796875 1.483397 1.174549 -0.308848
1486.08984375 1.564672 1.141123 -0.423549
1486.890625 1.382883 0.8829 -0.499983
1487.72265625 1.593787 1.114144 -0.479643
1488.37890625 1.3466740000000001 0.914197 -0.432477
1488.98828125 1.3211490000000001 0.969443 -0.351706
1489.58984375 1.545272 1.263673 -0.281599
1490.375 1.3786889999999998 1.13 -0.248689
1491.09765625 1.330994 1.228067 -0.102927
1491.796875 1.5069569999999999 1.248516 -0.258441
1492.53515625 1.295794 1.01175 -0.284044
1493.2734375 1.41798 1.164475 -0.253505
1493.92578125 1.3822480000000001 0.93232 -0.449928
1494.671875 1.181772 0.799272 -0.3825
1495.29296875 1.474716 1.024716 -0.45
1496.0859375 1.4010120000000001 0.869893 -0.531119
1496.80859375 1.33924 0.936274 -0.402966
1497.44921875 1.509509 1.044541 -0.464968
1498.2109375 1.465359 0.959976 -0.505383
1498.8125 1.505655 0.972237 -0.533418
1499.4921875 1.3439450000000002 1.003945 -0.34
1500.265625 1.568284 1.108284 -0.46
1500.8984375 1.384858 0.971417 -0.413441
1501.53515625 1.499366 1.054366 -0.445
1502.171875 1.447317 1.043528 -0.403789
1502.89453125 1.504542 1.149972 -0.35457
1503.6171875 1.369694 0.97326 -0.396434
1504.4453125 1.5278370000000001 1.07 -0.457837
1505.0390625 1.514887 1.099887 -0.415
1505.70703125 1.5324909999999998 1.142491 -0.39
1506.26171875 1.475346 1.148312 -0.327034
1506.92578125 1.416115 1.06155 -0.354565
1508.0234375 1.3178159999999999 1.019521 -0.298295
1508.7265625 1.354587 1.069587 -0.285
1509.39453125 1.471784 1.159948 -0.311836
1510.015625 1.531795 1.214116 -0.317679
1510.6953125 1.467939 1.128408 -0.339531
1511.40625 1.42625 1.10125 -0.325
1512.375 1.289213 0.99 -0.299213
1513.00390625 1.5599530000000001 1.165 -0.394953
1513.59765625 1.584605 1.169826 -0.414779
1513.91015625 1.004678 0.05717 -0.947508
1514.95703125 1.382228 0.997336 -0.384892
1515.68359375 1.48 1.065 -0.415
1516.30859375 1.446769 1.089523 -0.357246
1517.0 1.489932 1.095 -0.394932
1517.828125 1.377376 1.042161 -0.335215
1518.72265625 1.3774359999999999 1.032436 -0.345
1519.33203125 1.394047 1.039152 -0.354895
1520.0625 1.4192259999999999 1.011912 -0.407314
1520.89453125 1.382903 0.974986 -0.407917
1521.5859375 1.451902 0.96 -0.491902
1522.2109375 1.391206 0.934895 -0.456311
1522.94921875 1.381371 0.925125 -0.456246
1523.67578125 1.411813 0.994567 -0.417246
1524.34765625 1.371249 0.999347 -0.371902
1525.0625 1.3724539999999998 1.008333 -0.364121
1525.6484375 1.443056 1.061191 -0.381865
1526.3515625 1.32207 0.997564 -0.324506
1526.7109375 0.863497 5.83E-4 -0.862914
1527.49609375 1.364028 0.968048 -0.39598
1528.203125 1.417557 1.043747 -0.37381
1528.875 1.365864 1.02 -0.345864
1529.54296875 1.4744380000000001 1.074438 -0.4
1529.83984375 0.97473 0.036731 -0.937999
1530.578125 1.297847 0.899678 -0.398169
1531.2421875 1.505281 1.059301 -0.44598
1532.0 1.4949999999999999 1.17 -0.325
1532.84765625 1.4341490000000001 1.184276 -0.249873
1533.546875 1.5 1.165 -0.335
1533.859375 0.9511970000000001 -0.027095 -0.978292
1534.83984375 1.300932 0.967208 -0.333724
1535.703125 1.342435 1.159134 -0.183301
1536.421875 1.517043 1.265 -0.252043
1537.1484375 1.4792669999999999 1.144521 -0.334746
1537.87890625 1.394659 1.071846 -0.322813
1538.44140625 1.438752 1.143752 -0.295
1539.15625 1.440765 1.216136 -0.224629
1540.01171875 1.4065089999999998 1.151803 -0.254706
1540.78515625 1.3911229999999999 1.026123 -0.365
1541.4375 1.3332060000000001 1.035446 -0.29776
1542.078125 1.361491 1.084342 -0.277149
1542.8125 1.50068 1.163333 -0.337347
1543.68359375 1.428906 1.090834 -0.338072
1544.4296875 1.2976459999999999 0.918688 -0.378958
1545.16796875 1.3666960000000001 1.012629 -0.354067
1545.875 1.4666350000000001 1.245 -0.221635
1546.62109375 1.408963 1.154077 -0.254886
1547.39453125 1.494927 1.099994 -0.394933
1548.01953125 1.329707 1.029973 -0.299734
1548.80078125 1.430243 1.167313 -0.26293
1549.48046875 1.296152 0.944902 -0.35125
1550.1953125 1.283914 0.940695 -0.343219
1550.8125 1.317396 1.041667 -0.275729
1551.42578125 1.486071 1.161071 -0.325
1552.0859375 1.35494 0.974978 -0.379962
1552.859375 1.169619 0.880443 -0.289176
1553.54296875 1.356651 1.003772 -0.352879
1554.28515625 1.4113090000000001 0.982588 -0.428721
1554.92578125 1.264071 0.884071 -0.38
1555.546875 1.3292899999999999 0.9579 -0.37139
1556.15234375 1.443641 1.003641 -0.44
1556.8828125 1.22321 0.80321 -0.42
1557.5859375 1.218289 0.889971 -0.328318
1558.30859375 1.401159 1.134948 -0.266211
1558.96875 1.3168060000000001 0.997391 -0.319415
1559.5390625 1.2877 0.944701 -0.342999
1560.390625 1.298817 1.067884 -0.230933
1561.078125 1.3836940000000002 1.058839 -0.324855
1561.69140625 1.357801 0.949789 -0.408012
1562.45703125 1.2597749999999999 0.95 -0.309775
1562.91796875 0.753029 0.488393 -0.264636
1563.7734375 1.380138 0.960167 -0.419971
1564.5703125 1.199176 0.859176 -0.34
1565.25 1.289213 1.035 -0.254213
1565.88671875 1.3509069999999999 0.978181 -0.372726
1566.5390625 1.410102 0.885563 -0.524539
1567.15234375 1.33239 0.899697 -0.432693
1567.94921875 1.30545 1.015 -0.29045
1568.5859375 1.4298170000000001 0.964817 -0.465
1569.171875 1.402156 0.913995 -0.488161
1569.85546875 1.359994 0.879994 -0.48
1570.41796875 1.5246279999999999 1.032414 -0.492214
1571.015625 1.470576 1.051406 -0.41917
1571.8828125 1.4384219999999999 1.068517 -0.369905
1572.2734375 0.8766050000000001 0.576605 -0.3
1573.43359375 1.404789 1.074542 -0.330247
1574.23046875 1.468703 1.085266 -0.383437
1574.96875 1.511275 1.124167 -0.387108
1575.6171875 1.455076 1.064043 -0.391033
1576.21875 1.392184 1.01245 -0.379734
1576.7734375 1.600795 1.136523 -0.464272
1577.39453125 1.399931 0.959931 -0.44
1577.7421875 0.904718 -0.079452 -0.98417
1578.421875 1.3378079999999999 0.908804 -0.429004
1579.23828125 1.301831 0.902046 -0.399785
1580.19921875 1.248629 0.92342 -0.325209
1580.91796875 1.4672619999999998 1.067262 -0.4
1581.65625 1.467748 1.092748 -0.375
1582.33984375 1.472536 1.122741 -0.349795
1582.9609375 1.465513 1.105556 -0.359957
1583.6875 1.465913 1.1 -0.365913
1584.40234375 1.5033629999999998 1.128696 -0.374667
1585.046875 1.526173 1.127025 -0.399148
1585.68359375 1.409791 1.0746 -0.335191
1586.53125 1.481251 1.127188 -0.354063
1587.2109375 1.4899589999999998 1.129978 -0.359981
1587.8203125 1.5255359999999998 1.13 -0.395536
1588.57421875 1.350072 0.990072 -0.36
1588.98046875 1.123391 0.684667 -0.438724
1589.69921875 1.3310199999999999 1.00602 -0.325
1590.22265625 1.5246650000000002 1.154859 -0.369806
1590.8671875 1.291201 0.988701 -0.3025
1591.4296875 1.349921 1.06446 -0.285461
1592.1484375 1.367403 1.058719 -0.308684
1592.8828125 1.4469509999999999 1.096951 -0.35
1593.61328125 1.335238 1.033669 -0.301569
1594.65625 1.295379 0.9825 -0.312879
1595.3671875 1.4356900000000001 1.053811 -0.381879
1596.171875 1.350573 1.039264 -0.311309
1596.9140625 1.490551 1.125551 -0.365
1597.48046875 1.429283 1.070283 -0.359
1598.15625 1.379914 0.982905 -0.397009
1599.41015625 1.303513 0.995753 -0.30776
1600.3125 1.390519 1.068654 -0.321865
1600.88671875 1.494831 1.215094 -0.279737
1601.46484375 1.457353 1.152353 -0.305
1602.13671875 1.433167 1.12473 -0.308437
1602.89453125 1.478417 1.069979 -0.408438
1603.45703125 1.4847009999999998 1.075829 -0.408872
1604.2890625 1.488685 1.219727 -0.268958
1605.12890625 1.531749 1.180874 -0.350875
1605.83984375 1.5143900000000001 1.032593 -0.481797
1606.47265625 1.425997 1.014837 -0.41116
1607.19921875 1.474348 1.14951 -0.324838
1607.91015625 1.481984 1.096984 -0.385
1608.52734375 1.5232480000000002 1.068305 -0.454943
1609.0625 1.458869 1.075682 -0.383187
1609.78125 1.505336 1.21125 -0.294086
1610.1015625 0.9297970000000001 -0.004809 -0.934606
1611.109375 1.3422239999999999 0.945703 -0.396521
1611.75390625 1.454458 1.117974 -0.336484
1612.4375 1.428513 1.187115 -0.241398
1613.12109375 1.397136 1.035 -0.362136
1613.68359375 1.524583 1.139612 -0.384971
1614.328125 1.437828 1.188922 -0.248906
1615.12890625 1.480097 1.069034 -0.411063
1615.7578125 1.354561 0.939561 -0.415
1616.44921875 1.46928 1.174471 -0.294809
1617.15234375 1.42615 1.123742 -0.302408
1617.93359375 1.457134 1.0796 -0.377534
1618.5625 1.279993 1.0 -0.279993
1619.11328125 1.51292 1.255392 -0.257528
1619.84765625 1.4413660000000001 1.064866 -0.3765
1620.19140625 0.9214760000000001 0.023869 -0.897607
1620.91015625 1.236667 0.987208 -0.249459
1621.55078125 1.414434 1.069019 -0.345415
1622.25390625 1.314035 0.889035 -0.425
1622.984375 1.128935 0.7079 -0.421035
1623.67578125 1.29949 0.937233 -0.362257
1624.19921875 0.8263929999999999 0.097718 -0.728675
1625.06640625 1.062081 0.794612 -0.267469
1625.7265625 1.3629440000000002 1.148303 -0.214641
1626.40625 1.443502 1.282422 -0.16108
1627.0546875 1.276485 0.771104 -0.505381
1627.72265625 1.318051 1.028732 -0.289319
1628.4375 1.381165 1.088571 -0.292594
1629.140625 1.170513 0.955513 -0.215
1629.8125 1.288964 1.158636 -0.130328
1630.51953125 1.382219 1.009994 -0.372225
1631.234375 1.142891 0.877891 -0.265
1631.85546875 1.333898 1.074609 -0.259289
1632.43359375 1.290826 0.860834 -0.429992
1633.078125 1.21886 0.819794 -0.399066
1633.64453125 1.254882 0.994954 -0.259928
1634.44921875 1.36857 0.95357 -0.415
1634.84765625 0.8005500000000001 0.23701 -0.56354
1635.75390625 1.089691 0.84639 -0.243301
1636.16796875 1.3318889999999999 0.167684 -1.164205
1636.9296875 1.367712 0.982502 -0.38521
1637.7265625 1.253993 0.884364 -0.369629
1638.43359375 1.3876650000000001 1.149593 -0.238072
1640.0546875 1.38407 0.934048 -0.450022
1640.73828125 1.286799 0.958362 -0.328437
1641.40625 1.327003 0.903173 -0.42383
1642.05078125 1.281602 0.903448 -0.378154
1642.6484375 1.338991 0.973991 -0.365
1643.3515625 1.402564 0.908245 -0.494319
1644.12109375 1.298046 0.978078 -0.319968
1644.69140625 1.432981 0.98988 -0.443101
1645.38671875 1.402268 0.957924 -0.444344
1645.8515625 0.6999679999999999 0.345 -0.354968
1646.60546875 1.326133 0.899973 -0.42616
1647.23046875 1.336405 0.949905 -0.3865
1648.01953125 1.38903 1.009987 -0.379043
1648.76171875 1.346207 0.982308 -0.363899
1649.53515625 1.3615249999999999 0.990126 -0.371399
1650.26171875 1.435 1.135 -0.3
1651.00390625 1.407104 1.112104 -0.295
1651.73046875 1.398903 1.134987 -0.263916
1652.43359375 1.44 1.165 -0.275
1653.0625 1.3928289999999999 1.121667 -0.271162
1653.83984375 1.3826500000000002 1.090259 -0.292391
1654.5234375 1.429642 1.096384 -0.333258
1655.18359375 1.424431 1.054476 -0.369955
1656.34375 1.3427280000000001 0.977852 -0.364876
1657.1796875 1.310266 1.020266 -0.29
1657.85546875 1.4056730000000002 1.084972 -0.320701
1659.0078125 1.35 0.995 -0.355
1659.44140625 0.9331010000000001 0.014726 -0.918375
1660.390625 1.383369 0.965234 -0.418135
1660.75 0.885 -0.02 -0.905
1661.671875 1.110198 0.698594 -0.411604
1662.28125 1.5138479999999999 1.047426 -0.466422
1662.86328125 1.399762 0.986606 -0.413156
1663.14453125 0.911985 -0.028848 -0.940833
1663.94140625 1.293523 0.910797 -0.382726
1664.3515625 1.434521 0.489521 -0.945
1665.11328125 1.315637 0.96 -0.355637
1665.765625 1.408002 1.068408 -0.339594
1666.27734375 1.281126 0.494182 -0.786944
1667.26953125 1.387898 1.034988 -0.35291
1667.98046875 1.43341 1.059973 -0.373437
1668.59375 1.4268930000000002 1.09041 -0.336483
1669.1953125 1.3995199999999999 1.039926 -0.359594
1669.8984375 1.428754 1.133632 -0.295122
1670.6328125 1.393065 1.098133 -0.294932
1671.3359375 1.4063940000000001 1.026011 -0.380383
1671.9375 1.418836 1.072222 -0.346614
1672.58984375 1.417432 1.049904 -0.367528
1672.91015625 0.960723 0.128597 -0.832126
1673.671875 1.408993 1.082684 -0.326309
1674.328125 1.391756 1.044531 -0.347225
1674.953125 1.395 0.975 -0.42
1675.57421875 1.371171 0.9562 -0.414971
1675.90234375 0.879864 -0.080136 -0.96
1676.8125 1.3396279999999998 1.049853 -0.289775
1677.625 1.4436339999999999 1.075 -0.368634
1678.25390625 1.39202 0.967999 -0.424021
1678.98046875 1.424432 1.094573 -0.329859
1679.7109375 1.464839 1.104839 -0.36
1680.58984375 1.406438 0.971077 -0.435361
1681.1875 1.465943 0.961 -0.504943
1681.796875 1.434479 1.054812 -0.379667
1682.4765625 1.4143590000000001 1.089423 -0.324936
1683.1640625 1.3723679999999998 1.050563 -0.321805
1683.8828125 1.408491 0.979321 -0.42917
1684.55859375 1.43954 0.977926 -0.461614
1685.34765625 1.48243 1.17893 -0.3035
1686.06640625 1.543804 1.134585 -0.409219
1686.703125 1.417865 0.957977 -0.459888
1687.296875 1.427523 0.987523 -0.44
1687.94921875 1.444968 1.215 -0.229968
1688.6484375 1.401935 1.145 -0.256935
1689.37890625 1.407187 1.039093 -0.368094
1690.02734375 1.444539 1.04 -0.404539
1690.33203125 0.8964479999999999 0.056448 -0.84
1691.32421875 1.4457339999999999 1.160766 -0.284968
1691.72265625 1.459899 0.032767 -1.427132
1692.68359375 1.421138 1.039848 -0.38129
1693.32421875 1.434631 1.239669 -0.194962
1694.2578125 1.344826 1.06 -0.284826
1694.99609375 1.465294 1.315785 -0.149509
1695.69140625 1.460419 1.16495 -0.295469
1696.3515625 1.3864670000000001 0.911467 -0.475
1696.921875 1.279071 0.854149 -0.424922
1697.6484375 1.424985 1.29 -0.134985
1698.25 1.46 1.2 -0.26
1698.890625 1.256543 0.6725 -0.584043
1699.5703125 1.319437 0.889437 -0.43
1700.453125 1.366742 0.849678 -0.517064
1701.2265625 1.18645 0.879783 -0.306667
1701.88671875 1.4170219999999998 1.039343 -0.377679
1702.515625 1.346355 0.891106 -0.455249
1703.1640625 1.164977 0.849977 -0.315
1703.75390625 1.290433 1.085902 -0.204531
1704.35546875 1.416436 1.059915 -0.356521
1705.046875 1.269484 0.95853 -0.310954
1705.74609375 1.115607 0.896973 -0.218634
1706.32421875 1.341497 0.987591 -0.353906
1707.09375 1.345686 0.815 -0.530686
1707.84375 1.1127660000000001 0.870658 -0.242108
1708.6328125 1.3433320000000002 1.078332 -0.265
1709.125 1.78 1.175 -0.605
1709.9765625 1.0785120000000001 0.935 -0.143512
1710.58203125 1.4507539999999999 1.137835 -0.312919
1711.24609375 1.311695 1.002034 -0.309661
1711.95703125 1.199363 1.018117 -0.181246
1712.68359375 1.319667 1.055 -0.264667
1713.40234375 1.384104 0.984104 -0.4
1714.171875 1.255163 1.046012 -0.209151
1714.7734375 1.3934229999999999 1.003169 -0.390254
1715.41015625 1.204345 0.869345 -0.335
1716.07421875 1.459019 1.064075 -0.394944
1716.890625 1.216512 0.925 -0.291512
1717.58984375 1.4612669999999999 1.130906 -0.330361
1718.32421875 1.382695 1.007695 -0.375
1719.0703125 1.244648 0.97728 -0.267368
1719.765625 1.4440089999999999 1.094234 -0.349775
1720.5078125 1.328887 1.024337 -0.30455
1721.171875 1.4499080000000002 1.099908 -0.35
1721.7265625 1.4152209999999998 1.095389 -0.319832
1722.44921875 1.3566230000000001 1.042404 -0.314219
1723.18359375 1.425 1.03 -0.395
1723.9375 1.351309 1.058594 -0.292715
1724.7578125 1.435346 1.121562 -0.313784
1725.3515625 1.391343 1.086968 -0.304375
1725.97265625 1.369465 1.039715 -0.32975
1726.70703125 1.298423 0.998442 -0.299981
1727.3515625 1.362487 1.038945 -0.323542
1728.01171875 1.400071 0.985177 -0.414894
1728.63671875 1.359859 1.026827 -0.333032
1729.22265625 1.3937789999999999 1.065 -0.328779
1729.9609375 1.379734 1.11981 -0.259924
1730.734375 1.290508 1.035508 -0.255
1731.51953125 1.331549 1.059967 -0.271582
1732.1640625 1.4141059999999999 1.089621 -0.324485
1732.73828125 1.462589 1.099415 -0.363174
1733.0625 0.865516 0.0215 -0.844016
1733.7890625 1.3349449999999998 0.974945 -0.36
1734.48828125 1.343277 1.024136 -0.319141
1735.09765625 1.3889449999999999 1.043945 -0.345
1736.14453125 1.254916 0.889976 -0.36494
1736.9375 1.383667 1.023667 -0.36
1737.69140625 1.43747 1.054033 -0.383437
1738.265625 1.43825 1.029234 -0.409016
1738.96484375 1.372293 0.985906 -0.386387
1739.6171875 1.416277 0.992412 -0.423865
1740.4765625 1.3674849999999998 0.912778 -0.454707
1741.1328125 1.397246 0.962257 -0.434989
1741.7578125 1.4641730000000002 1.024804 -0.439369
1742.53125 1.4475259999999999 1.008068 -0.439458
1743.20703125 1.317673 0.957727 -0.359946
1743.9375 1.411973 1.047045 -0.364928
1744.65625 1.430142 1.059205 -0.370937
1745.35546875 1.378827 0.989365 -0.389462
1745.6875 0.8453919999999999 -0.059139 -0.904531
1746.64453125 1.2826359999999999 0.97998 -0.302656
1747.56640625 1.2993460000000001 0.979346 -0.32
1748.33984375 1.4566469999999998 1.070126 -0.386521
1748.97265625 1.438782 1.024276 -0.414506
1749.65234375 1.268491 0.944104 -0.324387
1750.54296875 1.360522 1.108479 -0.252043
1751.36328125 1.406039 1.043515 -0.362524
1752.01171875 1.339372 0.894415 -0.444957
1752.6328125 1.3899979999999998 0.899998 -0.49
1753.3515625 0.9490770000000001 -0.09 -1.039077
1754.0546875 1.4252509999999998 1.005251 -0.42
1754.76171875 1.349372 0.919372 -0.43
1755.39453125 1.389033 0.960283 -0.42875
1756.12890625 1.3650829999999998 0.953058 -0.412025
1756.53125 0.9866190000000001 -0.070881 -1.0575
1757.484375 1.356976 0.958434 -0.398542
1757.89453125 1.389065 -0.010012 -1.399077
1758.69921875 1.48114 1.04616 -0.43498
1759.08203125 0.8389660000000001 0.384323 -0.454643
1760.16796875 1.0837780000000001 -0.055669 -1.139447
1761.88671875 1.354504 -0.029956 -1.38446
1762.8359375 0.6549740000000001 0.405 -0.249974
1763.5703125 1.403995 1.084456 -0.319539
1764.14453125 1.458132 1.064958 -0.393174
1764.9296875 1.236519 0.948729 -0.28779
1766.16796875 1.4848510000000001 1.039851 -0.445
1766.87890625 1.380042 0.933089 -0.446953
1767.4765625 1.4575 1.13 -0.3275
1768.19921875 1.41164 1.116808 -0.294832
1768.953125 1.365996 1.012798 -0.353198
1769.69140625 1.10223 0.218322 -0.883908
1770.41015625 1.211947 0.881947 -0.33
1771.7109375 1.4839390000000001 1.029595 -0.454344
1772.390625 1.167319 0.902396 -0.264923
1773.21484375 1.4100000000000001 1.07 -0.34
1773.8203125 1.380093 0.83228 -0.547813
1774.53125 1.190329 0.896719 -0.29361
1775.32421875 1.0868829999999998 -0.050793 -1.137676
1776.02734375 1.268865 0.919861 -0.349004
1776.609375 1.1731280000000002 0.935 -0.238128
1777.3203125 1.236085 1.037514 -0.198571
1778.015625 0.849647 0.485643 -0.364004
1778.61328125 1.223528 0.843669 -0.379859
1779.2109375 1.257317 0.991198 -0.266119
1779.96875 1.27823 0.928942 -0.349288
1780.68359375 1.224675 0.899675 -0.325
1781.33984375 1.174312 1.049312 -0.125
1782.0078125 1.127656 0.875 -0.252656
1782.6796875 1.352473 1.012473 -0.34
1783.453125 1.037308 0.145 -0.892308
1784.109375 1.282955 1.032955 -0.25
1784.74609375 1.287974 0.937974 -0.35
1785.4375 1.239004 0.97 -0.269004
1786.2890625 0.9874860000000001 0.055479 -0.932007
1786.99609375 1.357665 0.969738 -0.387927
1788.3203125 1.279072 0.9594 -0.319672
1788.93359375 1.244907 1.039943 -0.204964
1789.6171875 1.304707 1.05 -0.254707
1790.02734375 0.9343480000000001 0.606875 -0.327473
1790.5625 0.9916670000000001 -0.038333 -1.03
1791.19140625 1.28171 0.939949 -0.341761
1791.62109375 1.401889 0.066065 -1.335824
1792.44921875 1.442152 1.09532 -0.346832
1793.2109375 1.448789 1.099785 -0.349004
1793.91796875 1.375629 1.064549 -0.31108
1794.51171875 1.420273 1.075273 -0.345
1795.16796875 1.41266 1.068804 -0.343856
1795.796875 1.4270230000000002 1.048019 -0.379004
1796.59375 1.41276 1.076768 -0.335992
1797.1796875 1.455767 1.130459 -0.325308
1797.87890625 1.263925 0.946789 -0.317136
1798.58203125 1.4137849999999998 1.050066 -0.363719
1799.90234375 1.415199 1.017038 -0.398161
1800.67578125 1.2961960000000001 0.947407 -0.348789
1801.38671875 0.9266139999999999 -0.108386 -1.035
1802.0703125 1.379937 1.009937 -0.37
1802.62109375 1.5036230000000002 1.119077 -0.384546
1803.37890625 1.354308 1.046265 -0.308043
1804.2890625 1.031862 0.045897 -0.985965
