3.79296875 1.08102 0.48602 -0.595
4.5859375 1.079415 0.47464 -0.604775
5.375 1.000896 0.485 -0.515896
6.171875 0.9417329999999999 0.423885 -0.517848
6.94140625 1.019977 0.535 -0.484977
7.75390625 0.939542 0.389594 -0.549948
8.59375 1.0437699999999999 0.423871 -0.619899
9.44921875 1.087854 0.568617 -0.519237
10.26171875 0.938148 0.414722 -0.523426
11.07421875 0.955573 0.414948 -0.540625
11.875 1.012136 0.545 -0.467136
12.6171875 1.004048 0.524265 -0.479783
13.38671875 0.986353 0.486888 -0.499465
14.17578125 1.004401 0.385 -0.619401
15.11328125 0.898176 0.664739 -0.233437
15.57421875 0.9776340000000001 0.417634 -0.56
16.05859375 0.917173 0.519614 -0.397559
16.90625 0.945039 0.54413 -0.400909
17.49609375 2.933776 2.409241 -0.524535
18.4296875 0.958558 0.624341 -0.334217
18.953125 3.0397220000000003 2.289794 -0.749928
19.98828125 0.91573 0.565783 -0.349947
20.59765625 3.035466 2.314638 -0.720828
22.296875 3.0643140000000004 2.224775 -0.839539
23.83984375 3.2412549999999998 2.502329 -0.738926
25.36328125 3.171786 2.535 -0.636786
26.97265625 3.1933420000000003 2.464681 -0.728661
28.62890625 3.229206 2.48 -0.749206
30.125 3.154872 2.645 -0.509872
31.6484375 3.137462 2.537871 -0.599591
33.3125 3.132222 2.567222 -0.565
44.734375 1.0295990000000002 0.810845 -0.218754
51.8515625 1.582548 0.012548 -1.57
55.2890625 1.554715 0.334921 -1.219794
55.9921875 3.1178000000000003 2.573456 -0.544344
57.63671875 0.912077 0.627409 -0.284668
58.671875 0.7897959999999999 0.496797 -0.292999
59.546875 0.885038 0.434382 -0.450656
60.30078125 1.0352459999999999 0.651774 -0.383472
61.10546875 1.00465 0.604884 -0.399766
61.3828125 0.204303 0.112948 -0.091355
61.6796875 0.126802 -0.23 -0.356802
61.9609375 0.802003 0.399551 -0.402452
62.6015625 0.41320199999999996 -0.050721 -0.463923
62.8515625 0.976477 0.536741 -0.439736
63.4921875 1.573816 0.284545 -1.289271
64.67578125 0.99741 0.59741 -0.4
65.55859375 1.009674 0.56969 -0.439984
66.36328125 1.050978 0.64253 -0.408448
66.87890625 3.1490530000000003 2.365902 -0.783151
67.23046875 0.908953 -0.135266 -1.044219
67.9765625 0.9916099999999999 0.446694 -0.544916
68.53515625 1.593698 0.157729 -1.435969
69.75 0.9450000000000001 0.425 -0.52
70.61328125 0.97695 0.54945 -0.4275
71.484375 1.044881 0.509936 -0.534945
72.28125 0.953418 0.404674 -0.548744
73.0625 1.020537 0.460543 -0.559994
73.84375 0.9409609999999999 0.413488 -0.527473
74.68359375 0.977803 0.48 -0.497803
75.62109375 0.95767 0.421422 -0.536248
76.54296875 0.929521 0.435 -0.494521
77.46875 1.016722 0.412614 -0.604108
78.24609375 0.946662 0.412384 -0.534278
79.03125 0.963797 0.344462 -0.619335
79.8203125 0.947038 0.340211 -0.606827
80.65234375 1.008685 0.388685 -0.62
81.53515625 0.909443 0.295071 -0.614372
82.3828125 0.946642 0.356642 -0.59
82.96875 1.707713 0.29207 -1.415643
83.25 1.795643 0.38 -1.415643
84.015625 1.037501 0.751253 -0.286248
84.8125 0.9706250000000001 0.659062 -0.311563
85.6328125 1.030238 0.74747 -0.282768
86.46484375 1.091209 0.443365 -0.647844
87.3125 1.000148 0.578333 -0.421815
88.15234375 1.1102310000000002 0.559725 -0.550506
88.72265625 3.018538 2.43307 -0.585468
89.80078125 0.9906379999999999 0.468277 -0.522361
90.30078125 1.690331 0.224523 -1.465808
91.359375 0.9986550000000001 0.474238 -0.524417
92.16796875 1.062945 0.434952 -0.627993
93.0 1.056119 0.4 -0.656119
93.5546875 2.910876 2.225876 -0.685
94.765625 0.9625220000000001 0.295569 -0.666953
95.37109375 3.072338 2.259559 -0.812779
96.44921875 0.8806529999999999 0.341015 -0.539638
96.96875 2.9025689999999997 2.079205 -0.823364
98.609375 2.89318 2.069922 -0.823258
100.5078125 2.946181 2.048033 -0.898148
102.23828125 2.965456 2.102341 -0.863115
103.9296875 2.992986 2.167986 -0.825
107.78125 2.962507 2.282536 -0.679971
109.36328125 1.566365 1.154711 -0.411654
111.41015625 2.79631 2.203474 -0.592836
129.5625 2.023212 1.692143 -0.331069
130.74609375 0.9723269999999999 0.593946 -0.378381
131.3203125 3.123907 2.331581 -0.792326
132.35546875 0.904713 0.739995 -0.164718
132.9375 1.49722 0.2435 -1.25372
134.046875 0.995 0.72 -0.275
134.91015625 0.9852000000000001 0.4752 -0.51
135.83203125 0.9385870000000001 0.223812 -0.714775
136.72265625 0.915257 0.353897 -0.56136
137.5546875 0.977204 0.528588 -0.448616
138.3046875 1.084616 0.659641 -0.424975
139.09765625 0.97428 0.610549 -0.363731
139.92578125 0.960432 0.550432 -0.41
140.75390625 0.929248 0.716834 -0.212414
141.65234375 1.022883 0.812902 -0.209981
142.5390625 1.0227199999999999 1.204737 0.182017
143.375 1.003318 0.915 -0.088318
144.125 0.928431 0.62 -0.308431
144.6796875 2.777024 1.977024 -0.8
145.7734375 0.891371 0.4539 -0.437471
146.359375 2.936852 2.143127 -0.793725
147.5390625 0.9439529999999999 0.584737 -0.359216
148.109375 2.920658 2.451818 -0.46884
151.44140625 2.7215219999999998 2.03 -0.691522
152.6015625 0.881271 0.531355 -0.349916
153.5 0.919414 0.435 -0.484414
154.34375 0.878932 0.472094 -0.406838
155.2109375 0.925845 0.405 -0.520845
156.05859375 0.8397399999999999 0.33349 -0.50625
156.62890625 2.74 1.985 -0.755
157.62109375 0.857486 0.355072 -0.502414
158.40625 0.825156 0.379663 -0.445493
159.2109375 0.868647 0.464979 -0.403668
160.015625 0.847561 0.537561 -0.31
160.640625 2.7370400000000004 2.456211 -0.280829
161.63671875 0.88216 1.653254 0.771094
162.37890625 0.9881380000000001 1.316456 0.328318
163.12109375 0.793677 0.769034 -0.024643
163.6875 2.6550000000000002 1.34 -1.315
164.80078125 0.885 -0.01 -0.895
165.44140625 0.24828300000000003 -0.360124 -0.608407
165.72265625 0.98698 0.402584 -0.584396
166.63671875 0.915694 0.723284 -0.19241
167.4453125 0.9337880000000001 0.713817 -0.219971
168.2109375 0.9464 0.412373 -0.534027
168.7421875 2.495477 2.055936 -0.439541
169.765625 0.8277559999999999 0.403127 -0.424629
170.3828125 2.44952 1.649767 -0.799753
171.62890625 0.803279 0.025131 -0.778148
172.56640625 0.929194 0.289269 -0.639925
173.40625 0.8377699999999999 0.565 -0.27277
174.1796875 0.4770889999999999 1.507391 1.030302
174.9765625 0.41614400000000007 1.235 0.818856
175.828125 0.621893 -0.088888 -0.710781
176.87109375 0.7787389999999998 -0.48672 -1.265459
0.0 0.934355 -1.0 -1.934355
178.6875 0.8815989999999999 -0.106562 -0.988161
179.5390625 0.8849759999999999 -0.535024 -1.42
179.78125 0.31572700000000004 -0.444273 -0.76
180.34765625 1.1589450000000001 0.483945 -0.675
181.171875 0.8591850000000001 0.064185 -0.795
182.14453125 0.997573 0.53998 -0.457593
182.95703125 2.586699 2.013668 -0.573031
184.0703125 0.9131410000000001 0.685 -0.228141
185.0 0.855 0.58 -0.275
185.88671875 0.935558 0.697817 -0.237741
186.703125 0.904304 0.419203 -0.485101
187.58203125 0.9309109999999999 1.256657 0.325746
188.53125 0.90846 0.47846 -0.43
189.53125 0.913054 0.781953 -0.131101
190.40234375 0.924868 0.384868 -0.54
191.3671875 0.248726 0.353726 0.105
191.69921875 0.377039 0.124523 -0.252516
192.109375 0.9590609999999999 0.569121 -0.38994
192.90234375 0.956203 0.704536 -0.251667
193.46875 1.314699 0.159844 -1.154855
194.6171875 0.917497 0.517497 -0.4
195.5859375 0.984478 0.564869 -0.419609
196.52734375 0.754494 0.379501 -0.374993
197.38671875 0.883594 0.595 -0.288594
198.15234375 0.8900729999999999 0.379712 -0.510361
198.921875 1.003348 0.404372 -0.598976
199.76171875 0.837782 0.503085 -0.334697
200.58203125 0.7730710000000001 0.906196 0.133125
201.3203125 2.331059 1.902864 -0.428195
202.4296875 0.859429 0.249429 -0.61
203.2734375 0.894452 0.251797 -0.642655
204.046875 0.883194 0.189914 -0.69328
204.8046875 0.925354 0.241011 -0.684343
205.63671875 0.891567 0.171853 -0.719714
206.52734375 0.964326 0.499362 -0.464964
207.51171875 0.9025110000000001 0.592635 -0.309876
208.17578125 1.341944 0.333381 -1.008563
209.30078125 0.831928 0.372508 -0.45942
210.0859375 0.876919 0.249785 -0.627134
210.86328125 0.915835 0.188444 -0.727391
211.6796875 0.947299 0.374451 -0.572848
212.61328125 0.892324 0.501815 -0.390509
213.5703125 0.912681 0.73 -0.182681
214.47265625 0.947454 1.024664 0.07721
215.3203125 0.929469 0.754617 -0.174852
216.1484375 0.894738 0.404738 -0.49
216.6953125 2.635522 2.428576 -0.206946
217.74609375 0.797551 0.493107 -0.304444
218.3046875 2.635933 2.234429 -0.401504
219.4453125 0.78364 0.39864 -0.385
220.3046875 0.855 0.295 -0.56
221.1484375 0.89842 0.63842 -0.26
221.68359375 1.810608 1.415637 -0.394971
222.734375 1.0206879999999998 -0.117266 -1.137954
223.44140625 0.980402 0.403482 -0.57692
224.23046875 0.846727 0.424941 -0.421786
225.1171875 0.9176390000000001 0.502931 -0.414708
226.08203125 0.830762 0.314278 -0.516484
227.01953125 0.744793 0.494956 -0.249837
227.80078125 0.823029 0.358348 -0.464681
228.53125 0.809641 0.489641 -0.32
229.07421875 2.6960640000000002 1.903245 -0.792819
230.16015625 0.755289 0.230035 -0.525254
230.76953125 2.6094749999999998 1.91 -0.699475
232.01171875 0.759944 0.455 -0.304944
232.96484375 0.7136180000000001 0.192231 -0.521387
233.76953125 0.6954049999999999 0.229953 -0.465452
234.51953125 0.7148699999999999 0.64987 -0.065
235.3828125 0.7796879999999999 0.205 -0.574688
235.9609375 1.478729 0.244769 -1.23396
236.28125 1.516877 0.282917 -1.23396
237.23046875 0.958123 0.569989 -0.388134
238.09375 0.680226 0.606133 -0.074093
238.9921875 0.7898529999999999 0.214729 -0.575124
239.39453125 0.25 0.055 -0.195
239.765625 0.675727 0.316299 -0.359428
240.51953125 0.538303 0.31 -0.228303
241.3359375 0.7027929999999999 1.295 0.592207
242.1875 0.576679 0.509 -0.067679
243.13671875 0.6466350000000001 0.27 -0.376635
244.0625 0.634651 -0.246429 -0.88108
245.06640625 0.509809 -0.169235 -0.679044
246.0546875 0.445 -0.07 -0.515
246.8984375 0.459725 0.12 -0.339725
247.75 0.47500000000000003 0.08 -0.395
248.6796875 0.534117 0.156257 -0.37786
249.6640625 0.626542 0.299781 -0.326761
250.6171875 0.632693 0.347693 -0.285
251.33203125 1.20833 0.066296 -1.142034
252.5703125 0.7592559999999999 0.499473 -0.259783
253.42578125 0.785307 0.56558 -0.219727
254.2890625 0.758567 0.534117 -0.22445
255.2109375 0.844589 0.5998 -0.244789
256.203125 0.689141 0.44 -0.249141
257.13671875 0.838829 0.588136 -0.250693
258.046875 0.882164 0.509285 -0.372879
258.86328125 0.91762 0.52974 -0.38788
259.68359375 1.06446 0.619349 -0.445111
260.4921875 0.9812209999999999 0.573089 -0.408132
261.3515625 1.0211350000000001 0.683964 -0.337171
262.23828125 0.925451 0.550299 -0.375152
263.07421875 0.909173 0.632113 -0.27706
263.875 1.037733 0.615 -0.422733
264.66796875 1.055629 0.656064 -0.399565
265.48828125 1.0317479999999999 0.607316 -0.424432
266.08984375 1.7305629999999999 0.295661 -1.434902
266.3828125 1.9589459999999999 0.524044 -1.434902
267.25 0.9530320000000001 0.675 -0.278032
268.1015625 1.013509 0.638895 -0.374614
268.91015625 1.086142 0.624625 -0.461517
269.70703125 1.0268739999999998 0.591899 -0.434975
270.515625 0.987473 0.345486 -0.641987
271.3203125 0.9823500000000001 0.468229 -0.514121
272.15625 1.5671140000000001 0.792126 -0.774988
273.05078125 1.123031 0.70915 -0.413881
273.8828125 1.039873 0.675 -0.364873
274.71875 1.087147 0.627614 -0.459533
275.5546875 1.059288 0.658663 -0.400625
276.36328125 1.173055 0.73352 -0.439535
276.890625 1.928112 0.033323 -1.894789
277.16796875 2.165396 0.270607 -1.894789
277.953125 1.085463 0.235156 -0.850307
278.62890625 2.7235519999999998 1.782312 -0.94124
279.73046875 1.020294 0.580294 -0.44
280.6015625 0.9801279999999999 0.541708 -0.43842
280.890625 0.346139 0.146414 -0.199725
281.4609375 1.047674 0.594507 -0.453167
281.75390625 0.856451 0.208866 -0.647585
282.23828125 1.061356 0.396805 -0.664551
282.47265625 0.16664 0.07664 -0.09
283.01171875 0.93328 0.546998 -0.386282
283.78515625 1.046549 0.731549 -0.315
284.63671875 1.208844 0.929737 -0.279107
285.49609375 0.956408 0.82296 -0.133448
286.375 1.174916 0.835 -0.339916
287.18359375 1.024014 0.754115 -0.269899
287.953125 0.9854909999999999 0.698479 -0.287012
288.7109375 0.8638129999999999 0.668914 -0.194899
289.5078125 0.9664900000000001 0.671617 -0.294873
290.38671875 0.992677 0.618545 -0.374132
291.0078125 0.9474070000000001 0.342559 -0.604848
291.2734375 1.12096 0.41596 -0.705
292.1171875 0.995937 0.435156 -0.560781
292.91796875 1.0664470000000001 0.840373 -0.226074
293.484375 2.911323 2.343323 -0.568
294.57421875 1.042815 1.119815 0.077
295.42578125 0.884921 0.939921 0.055
296.25390625 0.899533 0.169559 -0.729974
297.16015625 0.881119 0.37856 -0.502559
298.0234375 0.883637 -0.01202 -0.895657
298.52734375 1.078699 0.319325 -0.759374
299.6875 0.909191 0.182708 -0.726483
300.49609375 0.948431 0.772312 -0.176119
301.3359375 1.024857 0.189857 -0.835
302.13671875 0.881857 0.138629 -0.743228
303.02734375 0.9022669999999999 0.387603 -0.514664
303.91796875 0.83779 0.505 -0.33279
304.5234375 2.652552 2.272576 -0.379976
305.5625 0.862703 0.583929 -0.278774
306.078125 2.6504190000000003 2.199905 -0.450514
307.1328125 0.851398 0.523984 -0.327414
307.9609375 0.969686 0.229779 -0.739907
308.84375 0.9657439999999999 0.963973 -0.001771
309.47265625 0.284115 0.069448 -0.214667
309.79296875 0.9907489999999999 0.565749 -0.425
310.66015625 0.903723 0.554507 -0.349216
311.48046875 0.9283009999999999 0.269968 -0.658333
312.203125 1.010398 0.695195 -0.315203
312.9921875 0.9119 0.509792 -0.402108
313.8984375 1.021497 0.781248 -0.240249
314.75390625 1.013526 0.981936 -0.03159
315.61328125 0.761558 1.453711 0.692153
316.4453125 0.837778 1.114052 0.276274
317.2578125 0.529002 1.209239 0.680237
317.984375 0.6589430000000001 0.805643 0.1467
318.74609375 0.815942 -0.083841 -0.899783
319.6171875 1.1260630000000003 -0.738404 -1.864467
320.51171875 1.116075 -0.598112 -1.714187
321.390625 1.185289 -0.051086 -1.236375
321.77734375 0.49110599999999993 -0.402297 -0.893403
322.22265625 0.904305 -0.158837 -1.063142
322.74609375 0.695227 0.250987 -0.44424
323.1328125 0.18804700000000002 -0.285637 -0.473684
323.87109375 1.1328019999999999 0.516973 -0.615829
324.64453125 1.10211 0.814892 -0.287218
325.41796875 1.001501 0.658804 -0.342697
326.26953125 0.741243 0.749988 0.008745
327.12109375 0.992812 0.51872 -0.474092
327.92578125 1.24047 0.837522 -0.402948
328.41015625 1.1152819999999999 0.053375 -1.061907
329.58984375 0.9742379999999999 0.634554 -0.339684
330.328125 0.984703 0.659902 -0.324801
331.0625 0.970561 0.760714 -0.209847
331.8359375 0.795503 0.784948 -0.010555
332.7421875 1.05304 0.90304 -0.15
333.3125 1.26619 0.637162 -0.629028
333.59375 0.903602 0.493973 -0.409629
334.44140625 0.848032 0.408223 -0.439809
335.21484375 1.0663770000000001 0.78208 -0.284297
335.94921875 1.035428 0.650506 -0.384922
336.69140625 0.995391 0.848391 -0.147
337.453125 0.886925 0.713451 -0.173474
338.2890625 0.883581 0.684937 -0.198644
339.23046875 0.879856 0.564856 -0.315
340.11328125 0.869585 0.564986 -0.304599
340.93359375 0.85853 0.57438 -0.28415
341.71484375 0.953738 0.540177 -0.413561
342.4921875 1.032592 0.748857 -0.283735
343.05859375 2.674893 1.979893 -0.695
344.109375 0.8988529999999999 0.613853 -0.285
344.72265625 2.839305 2.232436 -0.606869
345.8125 0.753579 0.603587 -0.149992
346.4140625 2.706944 2.049687 -0.657257
347.9765625 2.712679 1.937464 -0.775215
349.5234375 2.712762 1.757762 -0.955
351.1953125 2.835637 1.82745 -1.008187
352.953125 2.739807 2.269813 -0.469994
354.4921875 2.7674730000000003 2.555 -0.212473
356.15234375 2.7422649999999997 2.372476 -0.369789
358.32421875 2.694532 2.109815 -0.584717
360.03125 2.6963630000000003 2.002095 -0.694268
361.78125 2.637716 1.958068 -0.679648
364.21875 2.614909 1.96 -0.654909
365.9375 2.752713 2.004853 -0.74786
367.51953125 2.768718 2.020259 -0.748459
369.46875 2.591901 2.013812 -0.578089
371.44921875 2.672994 2.039553 -0.633441
373.1796875 2.717931 2.032931 -0.685
374.984375 2.663994 1.977942 -0.686052
377.03125 2.664258 1.95 -0.714258
378.71484375 2.714875 1.975 -0.739875
380.39453125 2.759256 1.974993 -0.784263
382.25390625 2.372331 1.918033 -0.454298
384.1484375 2.5634889999999997 1.957655 -0.605834
385.734375 2.386526 1.835 -0.551526
387.4375 2.64269 2.023667 -0.619023
389.29296875 2.562755 1.987431 -0.575324
390.87109375 2.412672 1.833979 -0.578693
392.57421875 2.7589560000000004 2.103956 -0.655
394.3515625 2.6023959999999997 1.939428 -0.662968
396.05859375 2.638961 2.059184 -0.579777
397.6875 2.628165 2.150385 -0.47778
399.4296875 2.651748 2.118132 -0.533616
401.203125 2.594689 1.969689 -0.625
402.859375 2.758105 2.025605 -0.7325
404.5234375 2.696744 2.03 -0.666744
406.2265625 2.558938 1.915095 -0.643843
407.9765625 2.6014720000000002 1.919364 -0.682108
409.54296875 2.509455 1.799757 -0.709698
411.3125 2.2555880000000004 1.556944 -0.698644
412.9921875 2.73691 2.006374 -0.730536
414.609375 2.697275 2.01915 -0.678125
416.24609375 2.613922 2.031422 -0.5825
417.93359375 2.699336 2.094336 -0.605
419.7265625 2.7115519999999997 2.118632 -0.59292
421.4140625 2.879252 2.219678 -0.659574
423.12890625 2.7257290000000003 2.168048 -0.557681
424.98828125 2.7507260000000002 2.133582 -0.617144
426.70703125 2.341514 1.898487 -0.443027
428.3203125 2.279533 1.779289 -0.500244
430.1953125 2.5842989999999997 2.092672 -0.491627
436.28125 1.262297 0.040781 -1.221516
440.09765625 0.9783550000000001 0.633738 -0.344617
440.9921875 1.031245 0.674312 -0.356933
441.58203125 2.637537 2.031307 -0.60623
442.7421875 0.7291289999999999 0.459783 -0.269346
443.265625 2.449812 1.911172 -0.53864
444.375 0.6705139999999999 0.575 -0.095514
445.23828125 0.9743390000000001 0.44474 -0.529599
446.08203125 0.995353 0.49558 -0.499773
446.94921875 0.869471 0.409471 -0.46
447.796875 0.9205490000000001 0.514027 -0.406522
448.40234375 2.954006 2.269292 -0.684714
449.5625 0.950739 0.720739 -0.23
450.4140625 1.075588 0.660588 -0.415
451.234375 0.748765 0.488765 -0.26
452.06640625 0.869494 0.819494 -0.05
452.90625 0.886247 0.581827 -0.30442
453.5 2.667534 2.04 -0.627534
454.68359375 0.858954 0.49438 -0.364574
455.515625 0.880244 0.547858 -0.332386
456.3046875 1.013249 0.725642 -0.287607
457.1171875 1.031063 0.681367 -0.349696
457.9765625 0.993981 0.644364 -0.349617
458.859375 0.740556 0.429209 -0.311347
459.39453125 1.129681 -0.025266 -1.154947
459.67578125 1.528953 0.374006 -1.154947
460.625 0.885496 0.7 -0.185496
461.44140625 0.998853 0.6942 -0.304653
462.22265625 1.0035560000000001 0.703914 -0.299642
463.046875 0.91576 0.5029 -0.41286
463.89453125 0.8649830000000001 0.534983 -0.33
464.46875 2.636627 2.018309 -0.618318
465.62109375 0.877344 0.597141 -0.280203
466.484375 0.8824609999999999 0.472974 -0.409487
467.37109375 0.729153 0.56 -0.169153
468.171875 0.943403 0.539609 -0.403794
468.98828125 0.988555 0.790651 -0.197904
469.8046875 1.026632 0.584874 -0.441758
470.3828125 2.7063379999999997 2.054258 -0.65208
471.484375 0.8406629999999999 0.619153 -0.22151
472.37109375 0.9760230000000001 0.744105 -0.231918
473.265625 0.8730370000000001 0.599043 -0.273994
474.05859375 0.8098879999999999 0.724888 -0.085
474.85546875 0.83187 0.754995 -0.076875
475.6875 0.930458 0.735543 -0.194915
476.6015625 0.831117 0.62649 -0.204627
477.49609375 0.7760750000000001 0.553285 -0.22279
478.37890625 0.919695 0.580397 -0.339298
479.23046875 0.9107339999999999 0.570734 -0.34
480.06640625 0.92381 0.603951 -0.319859
480.890625 0.9425049999999999 0.548323 -0.394182
481.78125 0.886231 0.554219 -0.332012
482.703125 1.005428 0.60113 -0.404298
483.63671875 0.911489 0.487817 -0.423672
484.53515625 0.730673 0.370906 -0.359767
485.4375 0.844959 0.305385 -0.539574
486.046875 2.484077 1.805 -0.679077
487.3046875 0.849343 0.436207 -0.413136
487.90234375 2.46279 1.878009 -0.584781
489.1484375 0.7453019999999999 0.429521 -0.315781
489.765625 2.533359 1.978359 -0.555
491.5859375 2.638492 2.109781 -0.528711
493.39453125 2.624151 2.125 -0.499151
495.48046875 2.62 2.025 -0.595
497.51953125 2.6384869999999996 2.049987 -0.5885
499.171875 2.623235 2.214242 -0.408993
501.20703125 2.65514 2.15514 -0.5
503.1015625 2.6307009999999997 2.239019 -0.391682
504.73828125 2.6223669999999997 2.183451 -0.438916
506.78125 2.650756 2.133437 -0.517319
508.703125 2.627512 2.148828 -0.478684
510.32421875 2.687922 1.769047 -0.918875
512.10546875 2.721183 1.985285 -0.735898
514.0390625 2.776969 2.249952 -0.527017
515.83203125 2.645087 1.966649 -0.678438
517.48046875 2.779978 1.994978 -0.785
519.36328125 2.7434830000000003 2.077017 -0.666466
521.1484375 2.8430549999999997 2.124618 -0.718437
522.78125 2.832447 2.267447 -0.565
534.23046875 2.555707 1.910546 -0.645161
535.80859375 1.439764 -0.005128 -1.444892
541.66796875 1.185492 0.010391 -1.175101
545.41796875 2.3964290000000004 2.089926 -0.306503
547.109375 2.937871 2.1679 -0.769971
551.90625 0.889132 0.775 -0.114132
552.71875 0.9486129999999999 0.694062 -0.254551
553.5625 1.045446 0.860446 -0.185
554.45703125 1.115471 0.918721 -0.19675
555.09765625 2.792119 2.32251 -0.469609
556.30078125 0.899074 0.652285 -0.246789
557.203125 1.0586790000000001 0.761128 -0.297551
558.0390625 0.926824 0.579978 -0.346846
558.84375 0.949942 0.599942 -0.35
559.46484375 2.69268 2.127707 -0.564973
560.5 0.8600000000000001 0.55 -0.31
561.3671875 0.916647 0.604521 -0.312126
562.36328125 0.996136 0.625909 -0.370227
563.34375 1.039396 0.645 -0.394396
563.9375 2.751213 2.107083 -0.64413
564.92578125 0.805434 0.518982 -0.286452
565.73828125 0.811843 0.619162 -0.192681
566.59765625 0.9724980000000001 0.672695 -0.299803
567.45703125 0.761618 0.436792 -0.324826
568.41015625 0.967699 0.602699 -0.365
569.359375 0.970658 0.651142 -0.319516
570.171875 0.93402 0.67402 -0.26
570.92578125 0.9996020000000001 0.674602 -0.325
571.48046875 2.713985 2.079994 -0.633991
572.60546875 0.984918 0.554918 -0.43
573.17578125 2.687932 2.059084 -0.628848
574.33203125 0.924242 0.554265 -0.369977
575.20703125 0.9305019999999999 0.621266 -0.309236
576.0078125 0.929138 0.522151 -0.406987
576.76171875 0.8419399999999999 0.502165 -0.339775
577.328125 2.649416 2.044671 -0.604745
578.3984375 0.9502029999999999 0.727548 -0.222655
579.29296875 0.9294009999999999 0.560607 -0.368794
580.14453125 1.109357 0.624988 -0.484369
581.0546875 1.16868 0.68868 -0.48
581.91796875 0.990977 0.601498 -0.389479
582.69140625 1.309294 0.769602 -0.539692
583.484375 1.102427 0.572608 -0.529819
584.31640625 1.022527 0.668671 -0.353856
585.1875 0.96558 0.520586 -0.444994
586.03125 0.9484490000000001 0.600357 -0.348092
586.59765625 2.635555 2.026301 -0.609254
587.8203125 1.0517750000000001 0.67757 -0.374205
588.3671875 2.752131 2.056605 -0.695526
589.40234375 0.891212 0.439531 -0.451681
590.2421875 0.9643600000000001 0.746832 -0.217528
591.15625 0.9509650000000001 0.51625 -0.434715
592.0390625 0.9062 0.810544 -0.095656
592.91015625 1.073884 0.699378 -0.374506
593.734375 0.936482 0.662031 -0.274451
594.5234375 1.058557 0.696545 -0.362012
595.29296875 0.952035 0.523843 -0.428192
596.11328125 0.901547 0.777439 -0.124108
597.00390625 0.991382 0.621676 -0.369706
597.8671875 0.859183 0.513303 -0.34588
598.6875 0.806681 0.551667 -0.255014
599.56640625 0.9546950000000001 0.524707 -0.429988
600.39453125 0.943892 0.649972 -0.29392
601.18359375 0.961673 0.776673 -0.185
601.98828125 1.030685 0.707181 -0.323504
602.84375 1.086952 0.699656 -0.387296
603.71875 1.103271 0.731667 -0.371604
604.57421875 1.05921 0.685436 -0.373774
605.48046875 0.8419019999999999 0.594958 -0.246944
606.328125 0.981017 0.591134 -0.389883
607.12890625 0.881426 0.577377 -0.304049
607.65234375 2.415 2.05 -0.365
608.796875 0.8905669999999999 0.753778 -0.136789
609.765625 1.00582 0.758284 -0.247536
610.70703125 0.9758830000000001 0.572592 -0.403291
611.30078125 2.600529 1.912963 -0.687566
612.3828125 0.90873 0.587413 -0.321317
612.92578125 2.6280140000000003 2.009106 -0.618908
614.0 0.9308960000000001 0.545 -0.385896
614.5859375 2.676267 2.141267 -0.535
615.81640625 1.015275 0.715 -0.300275
616.48046875 2.712079 2.049994 -0.662085
617.69140625 0.7824169999999999 0.419409 -0.363008
618.546875 0.960533 0.494478 -0.466055
619.453125 0.944118 0.434118 -0.51
620.37890625 0.987335 0.412335 -0.575
621.28515625 0.878555 0.389368 -0.489187
622.171875 0.826994 0.584214 -0.24278
622.75390625 1.0947390000000001 0.044739 -1.05
623.0390625 1.404944 0.354944 -1.05
623.97265625 0.9537829999999999 0.614292 -0.339491
624.78125 1.047745 0.637117 -0.410628
625.6171875 0.915466 0.519301 -0.396165
626.50390625 0.972588 0.558833 -0.413755
627.36328125 0.909848 0.511272 -0.398576
628.25390625 0.98568 0.521973 -0.463707
629.21875 1.066273 0.520108 -0.546165
630.1328125 0.9134310000000001 0.456562 -0.456869
630.9140625 0.9605090000000001 0.359612 -0.600897
631.7109375 1.109469 0.659583 -0.449886
632.23828125 1.169857 0.245 -0.924857
633.44140625 0.874147 0.694154 -0.179993
634.3203125 0.9042760000000001 0.645 -0.259276
635.203125 0.933995 0.578995 -0.355
636.04296875 1.009529 0.613474 -0.396055
636.8359375 0.958686 0.584956 -0.37373
637.66796875 0.9535290000000001 0.658529 -0.295
638.58203125 1.0300340000000001 0.670123 -0.359911
639.49609375 0.917126 0.553107 -0.364019
640.34765625 0.79529 0.393023 -0.402267
641.1953125 0.907395 0.453288 -0.454107
642.0390625 0.9346369999999999 0.474637 -0.46
642.8671875 1.043206 0.448701 -0.594505
643.71484375 0.9446809999999999 0.381947 -0.562734
644.60546875 0.928432 0.404995 -0.523437
645.5 0.9847809999999999 0.565 -0.419781
646.34765625 1.030405 0.563552 -0.466853
647.23046875 0.9956909999999999 0.509894 -0.485797
648.11328125 0.941316 0.464343 -0.476973
648.9765625 0.9467570000000001 0.491968 -0.454789
649.55078125 2.7216519999999997 2.051652 -0.67
650.6953125 0.812225 0.525 -0.287225
651.265625 2.389431 1.845 -0.544431
652.453125 0.774908 0.494908 -0.28
653.38671875 0.883561 0.516725 -0.366836
654.20703125 0.930872 0.550123 -0.380749
655.0390625 0.829754 0.464754 -0.365
655.87109375 1.009119 0.54203 -0.467089
656.80859375 1.0177589999999999 0.528813 -0.488946
657.71875 0.857237 0.427237 -0.43
658.6015625 1.063815 0.618007 -0.445808
659.44140625 0.978307 0.584125 -0.394182
660.28515625 0.9968400000000001 0.592624 -0.404216
661.125 0.9699139999999999 0.51 -0.459914
661.9609375 1.016286 0.609864 -0.406422
662.84375 0.985425 0.6415 -0.343925
663.76171875 1.088669 0.753669 -0.335
664.640625 0.9795640000000001 0.659564 -0.32
665.54296875 1.0145819999999999 0.572886 -0.441696
666.4140625 0.999769 0.459769 -0.54
667.01171875 2.544415 1.864415 -0.68
668.14453125 0.9799789999999999 0.514979 -0.465
669.078125 1.047647 0.558506 -0.489141
669.953125 1.02803 0.603889 -0.424141
670.86328125 1.045626 0.60115 -0.444476
671.78125 0.964837 0.659837 -0.305
672.60546875 1.089393 0.62451 -0.464883
673.1875 2.821831 2.113667 -0.708164
674.31640625 0.9509590000000001 0.642051 -0.308908
675.29296875 1.070274 0.6 -0.470274
676.20703125 1.018672 0.625 -0.393672
676.8046875 2.7623059999999997 2.252306 -0.51
677.94140625 1.0190730000000001 0.695853 -0.32322
678.5625 2.890176 2.161346 -0.72883
679.69140625 0.9443940000000001 0.654445 -0.289949
680.328125 2.687861 2.079895 -0.607966
682.23828125 2.824732 2.354732 -0.47
686.02734375 1.057822 0.772902 -0.28492
686.90625 1.128599 0.709597 -0.419002
687.80859375 0.982803 0.699889 -0.282914
688.6875 1.054831 0.65628 -0.398551
689.54296875 0.973989 0.598469 -0.37552
690.3984375 1.021812 0.735536 -0.286276
691.2578125 1.144675 0.667321 -0.477354
692.1484375 1.021396 0.576442 -0.444954
693.00390625 1.045932 0.574343 -0.471589
693.96484375 1.092601 0.566947 -0.525654
694.890625 0.9299330000000001 0.565675 -0.364258
695.484375 2.74 2.115 -0.625
696.5625 1.067672 0.682672 -0.385
697.10546875 2.949805 2.299929 -0.649876
698.23828125 1.0818919999999999 0.714807 -0.367085
698.8359375 2.864948 2.254948 -0.61
700.6171875 2.644925 2.104258 -0.540667
702.23046875 2.8390050000000002 2.309969 -0.529036
703.95703125 2.91516 2.298785 -0.616375
705.71484375 2.874039 2.278375 -0.595664
707.40234375 2.984862 2.304862 -0.68
709.03125 2.882695 2.283437 -0.599258
710.8828125 2.850921 2.126452 -0.724469
712.609375 2.8224329999999997 2.192531 -0.629902
714.3046875 2.8528290000000003 2.214526 -0.638303
715.91796875 2.809274 2.164576 -0.644698
723.0390625 1.098428 0.649639 -0.448789
723.9375 1.0590570000000001 0.660385 -0.398672
725.625 1.084975 0.665 -0.419975
726.3984375 1.031454 0.626483 -0.404971
726.97265625 2.8460379999999996 2.173516 -0.672522
728.12890625 1.035418 0.709086 -0.326332
729.08203125 0.978874 0.624027 -0.354847
730.0 1.042592 0.585 -0.457592
730.8671875 1.018836 0.574802 -0.444034
731.7734375 1.061686 0.572778 -0.488908
732.6015625 1.068224 0.556822 -0.511402
733.08203125 1.2626870000000001 -0.07639 -1.339077
734.2890625 0.9476689999999999 0.534889 -0.41278
735.234375 0.910659 0.482326 -0.428333
736.109375 1.064794 0.544794 -0.52
736.984375 1.0992570000000002 0.554307 -0.54495
737.83984375 1.0675569999999999 0.559312 -0.508245
738.625 0.9199740000000001 0.505 -0.414974
739.44921875 1.058802 0.631458 -0.427344
740.30859375 1.022694 0.574872 -0.447822
741.4375 0.9611160000000001 0.6125 -0.348616
742.02734375 1.318626 0.079279 -1.239347
743.3046875 1.06671 0.648907 -0.417803
744.1171875 1.004106 0.659312 -0.344794
744.921875 1.047586 0.588607 -0.458979
745.74609375 1.0096289999999999 0.635 -0.374629
746.62890625 0.955855 0.665 -0.290855
747.7109375 1.059685 0.65995 -0.399735
748.6640625 1.1011600000000001 0.689848 -0.411312
749.51171875 1.062453 0.727453 -0.335
750.32421875 1.037868 0.664118 -0.37375
751.2265625 1.029264 0.691968 -0.337296
752.15234375 0.9702810000000001 0.723516 -0.246765
753.09375 1.052426 0.670508 -0.381918
754.0703125 1.02692 0.60192 -0.425
754.99609375 1.090566 0.717124 -0.373442
755.44140625 1.3714009999999999 0.08299 -1.288411
756.65234375 0.8664219999999999 0.657418 -0.209004
757.52734375 1.078744 0.698487 -0.380257
758.38671875 1.0283660000000001 0.634406 -0.39396
759.296875 1.0284170000000001 0.694382 -0.334035
760.29296875 1.082545 0.688479 -0.394066
761.24609375 1.004643 0.62 -0.384643
762.1015625 1.06032 0.69032 -0.37
762.9140625 0.98994 0.52494 -0.465
763.3828125 1.368384 0.058572 -1.309812
763.66015625 1.673757 0.363945 -1.309812
764.6484375 1.012301 0.739694 -0.272607
765.22265625 2.742808 2.237386 -0.505422
766.640625 1.057425 0.792425 -0.265
767.234375 2.710097 2.177425 -0.532672
768.33203125 0.960267 0.665267 -0.295
768.8671875 2.641501 2.017243 -0.624258
770.6875 2.687353 2.110739 -0.576614
772.65625 2.669479 2.195412 -0.474067
774.36328125 2.7144 2.135 -0.5794
776.0859375 2.830806 2.14472 -0.686086
777.87109375 2.784966 2.126894 -0.658072
779.72265625 2.880481 2.148606 -0.731875
781.33203125 2.934087 2.174769 -0.759318
783.02734375 2.774692 2.164692 -0.61
784.953125 2.755162 2.239908 -0.515254
786.59375 2.852007 2.215379 -0.636628
788.3515625 2.758311 2.173311 -0.585
790.390625 2.812106 2.15 -0.662106
792.1640625 2.8608249999999997 2.209243 -0.651582
793.82421875 2.888209 2.202296 -0.685913
795.7265625 2.882617 2.302655 -0.579962
797.5390625 2.886452 2.26 -0.626452
803.74609375 1.357624 0.168629 -1.188995
809.796875 1.317156 0.073792 -1.243364
814.3984375 1.068346 0.703352 -0.364994
815.2890625 1.040583 0.599789 -0.440794
816.125 1.0089380000000001 0.635 -0.373938
816.94921875 1.058505 0.580109 -0.478396
817.7890625 1.06906 0.75906 -0.31
818.69140625 1.129837 0.669837 -0.46
819.5546875 0.986281 0.61452 -0.371761
820.41015625 1.05023 0.693708 -0.356522
821.2578125 1.0256919999999998 0.677132 -0.34856
822.12890625 1.033866 0.634097 -0.399769
822.94140625 1.109692 0.69483 -0.414862
823.73828125 1.025751 0.706401 -0.31935
824.57421875 1.049062 0.711062 -0.338
825.4375 0.99728 0.559208 -0.438072
826.35546875 1.0198420000000001 0.669906 -0.349936
827.23828125 1.04888 0.659084 -0.389796
828.09765625 1.089865 0.729553 -0.360312
828.875 1.0647010000000001 0.68 -0.384701
829.6875 1.090135 0.673646 -0.416489
830.515625 1.079855 0.64 -0.439855
831.390625 1.1219569999999999 0.753307 -0.36865
832.29296875 1.131926 0.676926 -0.455
833.16015625 1.2071239999999999 0.723495 -0.483629
833.6171875 1.537568 0.147836 -1.389732
834.8046875 1.07657 0.646937 -0.429633
835.6640625 1.0694949999999999 0.699495 -0.37
836.52734375 0.962688 0.722688 -0.24
837.39453125 0.950699 0.554954 -0.395745
838.25390625 1.0525039999999999 0.658172 -0.394332
839.12890625 1.115414 0.735987 -0.379427
839.97265625 1.094247 0.628552 -0.465695
840.78515625 1.03895 0.724763 -0.314187
841.59765625 1.049309 0.685 -0.364309
842.4765625 1.071609 0.666609 -0.405
843.3359375 1.045214 0.781507 -0.263707
844.23046875 1.125751 0.704967 -0.420784
845.15625 1.066776 0.827441 -0.239335
846.04296875 1.166581 0.746581 -0.42
846.8359375 1.035994 0.721095 -0.314899
847.66796875 1.011488 0.765066 -0.246422
848.5625 1.0593810000000001 0.629394 -0.429987
849.4921875 1.034168 0.777366 -0.256802
850.44921875 1.155078 0.74233 -0.412748
851.375 0.9950000000000001 0.66 -0.335
852.27734375 1.037915 0.718765 -0.31915
853.09765625 1.10727 0.65893 -0.44834
854.0234375 0.992172 0.788908 -0.203264
855.04296875 1.10563 0.677476 -0.428154
856.03125 0.982067 0.598159 -0.383908
856.9296875 1.077647 0.677647 -0.4
857.80078125 1.0437210000000001 0.630688 -0.413033
858.234375 1.507045 0.21892 -1.288125
858.48046875 1.778118 0.489993 -1.288125
859.48828125 0.943626 0.661508 -0.282118
860.4140625 0.994052 0.765 -0.229052
861.41796875 1.037886 0.597886 -0.44
862.3515625 1.059675 0.585 -0.474675
863.28125 1.019438 0.746196 -0.273242
864.2890625 1.128582 0.674742 -0.45384
865.1640625 1.097833 0.869785 -0.228048
866.00390625 1.096886 0.846937 -0.249949
866.54296875 1.2937610000000002 0.037179 -1.256582
866.81640625 1.496582 0.24 -1.256582
867.92578125 1.005996 0.85649 -0.149506
868.83984375 1.057526 0.627773 -0.429753
869.71484375 1.002537 0.784137 -0.2184
870.6015625 1.120981 0.675157 -0.445824
871.4609375 1.089292 0.67975 -0.409542
872.3125 1.08618 0.737548 -0.348632
873.26171875 1.142498 0.667603 -0.474895
874.2578125 1.0334699999999999 0.768578 -0.264892
875.21484375 1.192052 0.66781 -0.524242
876.046875 1.083521 0.703635 -0.379886
876.91796875 1.126086 0.641086 -0.485
877.765625 1.1437089999999999 0.575417 -0.568292
878.68359375 1.0699319999999999 0.714675 -0.355257
879.66015625 1.1422729999999999 0.68743 -0.454843
880.5859375 1.084488 0.734488 -0.35
881.43359375 1.0449190000000002 0.619951 -0.424968
882.2421875 0.9841960000000001 0.579567 -0.404629
883.1640625 1.048498 0.704778 -0.34372
884.05078125 1.081257 0.564735 -0.516522
884.94921875 1.028507 0.555825 -0.472682
885.828125 0.988027 0.693794 -0.294233
886.4140625 1.369039 0.024578 -1.344461
887.55859375 0.9976370000000001 0.493265 -0.504372
888.39453125 1.036776 0.550287 -0.486489
889.30859375 1.047609 0.569198 -0.478411
890.171875 1.050147 0.673756 -0.376391
891.01953125 1.086524 0.600821 -0.485703
891.92578125 1.0401820000000002 0.627075 -0.413107
892.875 1.034943 0.65 -0.384943
893.77734375 1.073654 0.608654 -0.465
894.5703125 1.005145 0.536504 -0.468641
895.4453125 0.8600000000000001 0.52 -0.34
896.33203125 0.993465 0.603465 -0.39
897.23828125 1.095032 0.655349 -0.439683
898.1796875 0.988561 0.662802 -0.325759
899.0859375 1.042372 0.561436 -0.480936
899.90234375 1.104384 0.604398 -0.499986
900.67578125 1.046556 0.566889 -0.479667
901.56640625 1.091623 0.5691 -0.522523
902.46875 1.044464 0.600508 -0.443956
903.38671875 1.105702 0.612529 -0.493173
904.28125 1.0879889999999999 0.684044 -0.403945
905.15625 1.073208 0.63096 -0.442248
905.96484375 1.138366 0.635066 -0.5033
906.796875 1.061112 0.541112 -0.52
907.734375 1.117673 0.582965 -0.534708
908.640625 1.110783 0.553127 -0.557656
909.5625 1.027167 0.622167 -0.405
910.53125 1.038062 0.618068 -0.419994
911.51171875 0.957953 0.643505 -0.314448
912.3828125 1.027023 0.734377 -0.292646
913.23046875 1.094966 0.644966 -0.45
914.22265625 1.087755 0.658143 -0.429612
915.17578125 1.064482 0.743448 -0.321034
916.18359375 1.05379 0.704515 -0.349275
917.234375 1.049639 0.660884 -0.388755
917.7265625 1.4791910000000001 0.120327 -1.358864
918.98828125 1.087185 0.682637 -0.404548
919.90234375 1.0220099999999999 0.654864 -0.367146
920.9765625 1.089008 0.774008 -0.315
921.99609375 1.08966 0.679809 -0.409851
923.03125 1.037361 0.762705 -0.274656
923.984375 1.125618 0.666733 -0.458885
924.8359375 1.154772 0.661592 -0.49318
925.71484375 1.0993 0.769357 -0.329943
926.921875 1.113061 0.564654 -0.548407
927.90234375 1.026062 0.581875 -0.444187
928.921875 1.089198 0.583544 -0.505654
929.87109375 1.15703 0.65203 -0.505
930.7421875 1.047507 0.763208 -0.284299
931.64453125 1.136184 0.614973 -0.521211
932.640625 1.12936 0.745605 -0.383755
933.7109375 1.250628 0.789799 -0.460829
934.6328125 1.1413739999999999 0.656374 -0.485
935.53515625 1.121835 0.892137 -0.229698
936.41015625 1.166056 0.68438 -0.481676
937.3046875 1.0785770000000001 0.869519 -0.209058
938.203125 1.171476 0.688747 -0.482729
939.1875 1.130781 0.870781 -0.26
940.1328125 1.176572 0.726596 -0.449976
941.08984375 1.143017 0.743112 -0.399905
942.01171875 1.065184 0.682493 -0.382691
942.828125 0.9342969999999999 0.854297 -0.08
943.671875 1.129474 0.757912 -0.371562
944.54296875 1.0472730000000001 0.917273 -0.13
945.53515625 1.172154 0.769131 -0.403023
946.5078125 1.1220080000000001 0.876174 -0.245834
947.40234375 1.184863 0.714355 -0.470508
948.25390625 1.0312329999999998 0.730941 -0.300292
948.6875 1.45637 0.142 -1.31437
949.93359375 1.019092 0.722334 -0.296758
950.83984375 1.057806 0.723536 -0.33427
951.91796875 1.092751 0.682422 -0.410329
952.80078125 1.068526 0.897773 -0.170753
953.66015625 1.202687 0.749713 -0.452974
954.4609375 1.055981 0.771082 -0.284899
955.29296875 1.045 0.745 -0.3
956.16796875 1.137076 0.698536 -0.43854
957.07421875 1.058598 0.843789 -0.214809
958.0078125 1.189882 0.629882 -0.56
958.921875 1.163802 0.819013 -0.344789
959.828125 1.194133 0.704572 -0.489561
960.67578125 1.119604 0.657075 -0.462529
961.4765625 1.105011 1.011545 -0.093466
962.30859375 1.095288 0.714663 -0.380625
963.19140625 1.151382 0.764899 -0.386483
963.87890625 1.603217 0.423685 -1.179532
964.1796875 1.687589 0.508057 -1.179532
965.015625 1.093099 0.698262 -0.394837
965.85546875 1.142115 1.005 -0.137115
966.6640625 1.149714 0.759714 -0.39
967.46484375 1.117075 0.9 -0.217075
968.3359375 1.149803 0.889803 -0.26
969.2421875 1.103067 0.746106 -0.356961
970.2265625 1.043983 0.848983 -0.195
971.0703125 0.983896 0.638896 -0.345
971.91015625 1.106628 0.692712 -0.413916
972.71484375 0.983072 0.74057 -0.242502
973.54296875 1.056407 0.706407 -0.35
974.4453125 1.107447 0.72728 -0.380167
975.359375 1.045795 0.82392 -0.221875
976.3515625 1.039156 0.639209 -0.399947
977.2265625 1.042111 0.587393 -0.454718
978.15625 1.076933 0.689607 -0.387326
979.0234375 1.143665 0.610854 -0.532811
979.90234375 1.144869 0.619869 -0.525
980.78515625 1.1112 0.698749 -0.412451
981.71875 1.102384 0.663942 -0.438442
982.67578125 1.135373 0.72562 -0.409753
983.5625 1.077031 0.662045 -0.414986
984.453125 0.9663740000000001 0.618712 -0.347662
985.32421875 1.1312470000000001 0.743591 -0.387656
986.19140625 1.124757 0.710834 -0.413923
987.12109375 1.089988 0.727124 -0.362864
988.33203125 1.098785 0.753785 -0.345
989.35546875 1.135446 0.81 -0.325446
990.171875 1.150263 0.851112 -0.299151
991.0 1.044714 0.79 -0.254714
991.8671875 1.125708 0.898659 -0.227049
992.7578125 1.17897 0.724106 -0.454864
993.66796875 1.100437 0.683795 -0.416642
994.71484375 1.073308 0.723508 -0.3498
995.62109375 1.116995 0.637079 -0.479916
996.42578125 1.07869 0.62149 -0.4572
996.98828125 1.304344 0.03 -1.274344
998.19140625 1.079973 0.700829 -0.379144
999.125 1.1600000000000001 0.635 -0.525
1000.0234375 1.1799819999999999 0.665283 -0.514699
1000.98828125 1.094245 0.729178 -0.365067
1001.83203125 1.156671 0.629961 -0.52671
1002.69921875 1.158773 0.668738 -0.490035
1003.6171875 1.089394 0.840105 -0.249289
1004.5234375 1.173865 0.673908 -0.499957
1005.421875 1.155359 0.6896 -0.465759
1006.3203125 1.076313 0.866865 -0.209448
1007.3515625 1.19861 0.708996 -0.489614
1008.20703125 1.165105 0.705105 -0.46
1008.640625 1.578397 0.217942 -1.360455
1009.92578125 1.070178 0.602186 -0.467992
1010.875 0.9898939999999999 0.705 -0.284894
1011.7734375 1.108816 0.815012 -0.293804
1012.7421875 1.082009 0.697366 -0.384643
1013.703125 1.129145 0.974222 -0.154923
1014.515625 1.132319 0.707955 -0.424364
1014.94140625 1.539803 0.074803 -1.465
1016.23828125 0.938813 0.688813 -0.25
1017.23828125 0.991957 0.525227 -0.46673
1018.203125 0.997062 0.843624 -0.153438
1019.125 1.171697 0.67 -0.501697
1020.046875 1.061085 0.761085 -0.3
1020.87109375 1.1388530000000001 0.633853 -0.505
1021.76953125 1.118883 0.629994 -0.488889
1022.73828125 1.111659 0.760299 -0.35136
1023.65234375 1.176186 0.636543 -0.539643
1024.53125 1.0525200000000001 0.808799 -0.243721
1025.46875 1.2310029999999998 0.65625 -0.574753
1026.359375 1.088996 0.892607 -0.196389
1027.23046875 1.059982 0.624982 -0.435
1028.1015625 1.054119 0.647607 -0.406512
1028.66796875 1.511336 0.252336 -1.259
1029.91796875 1.1478869999999999 0.672887 -0.475
1030.5078125 2.7841460000000002 2.389577 -0.394569
1031.80859375 1.1688640000000001 0.683864 -0.485
1032.3203125 2.897017 2.367017 -0.53
1033.4375 1.132248 0.732262 -0.399986
1034.2578125 1.094381 0.679381 -0.415
1035.3671875 1.099591 0.784591 -0.315
1036.30078125 1.119935 0.612075 -0.50786
1037.2109375 1.152021 0.969429 -0.182592
1038.12109375 1.207791 0.658996 -0.548795
1038.9453125 1.111948 0.95662 -0.155328
1039.8828125 1.225071 0.687408 -0.537663
1040.51171875 1.426032 0.029272 -1.39676
1041.94921875 1.111205 0.626379 -0.484826
1042.90234375 1.131307 0.65619 -0.475117
1043.7890625 1.071169 0.703566 -0.367603
1044.65625 1.247521 0.75929 -0.488231
1045.5859375 1.134862 0.756436 -0.378426
1046.671875 1.241886 0.703887 -0.537999
1047.7734375 0.9263840000000001 0.466384 -0.46
1048.73828125 1.09104 0.79854 -0.2925
1049.6328125 1.173978 0.689028 -0.48495
1050.59765625 1.117334 0.666536 -0.450798
1051.52734375 1.1560489999999999 0.855938 -0.300111
1052.5390625 1.134204 0.739283 -0.394921
1053.625 1.229775 0.845 -0.384775
1054.3828125 1.4510930000000002 0.056167 -1.394926
1055.5390625 1.134706 0.829706 -0.305
1056.4609375 1.165569 0.825991 -0.339578
1057.3203125 1.223154 0.859467 -0.363687
1058.21875 1.1863869999999999 0.823796 -0.362591
1059.2109375 1.141494 0.791064 -0.35043
1060.13671875 1.06681 0.687104 -0.379706
1061.1171875 1.1455549999999999 0.809043 -0.336512
1061.97265625 1.140616 0.737546 -0.40307
1062.859375 1.123707 0.904275 -0.219432
1063.68359375 1.156614 0.716647 -0.439967
1064.65625 1.189375 0.664381 -0.524994
1065.6796875 1.175345 0.652275 -0.52307
1066.640625 1.101824 0.650891 -0.450933
1067.48828125 1.224286 0.785984 -0.438302
1068.3203125 1.181643 0.719285 -0.462358
1069.15234375 1.1000640000000002 0.665842 -0.434222
1069.75 1.549826 0.19 -1.359826
1071.0 1.119203 0.66 -0.459203
1071.59765625 2.860539 2.332139 -0.5284
1072.8046875 1.202737 0.787034 -0.415703
1073.6640625 1.313318 0.894739 -0.418579
1074.52734375 1.072102 0.722102 -0.35
1075.38671875 1.101034 0.743735 -0.357299
1076.25 1.1994630000000002 0.81 -0.389463
1077.15625 1.168 0.708 -0.46
1077.671875 1.44473 0.019203 -1.425527
1077.94921875 1.761339 0.335812 -1.425527
1078.94140625 1.0091 0.6591 -0.35
1079.8046875 1.074363 0.546062 -0.528301
1080.640625 1.009579 0.616142 -0.393437
1081.515625 1.045609 0.715352 -0.330257
1082.37109375 1.080207 0.750305 -0.329902
1083.33984375 1.150874 0.840969 -0.309905
1084.33203125 1.147551 0.709293 -0.438258
1085.29296875 1.301234 0.811234 -0.49
1086.1015625 1.136231 0.810517 -0.325714
1086.91796875 1.2337609999999999 0.783804 -0.449957
1087.75390625 1.080171 0.61589 -0.464281
1088.64453125 1.127189 0.879994 -0.247195
1089.62890625 1.183473 0.764738 -0.418735
1090.546875 1.147717 0.753727 -0.39399
1091.39453125 1.146628 0.869954 -0.276674
1092.2265625 1.1781169999999999 0.691595 -0.486522
1093.12890625 1.109051 0.644051 -0.465
1094.046875 1.154696 0.783781 -0.370915
1094.97265625 1.225412 0.67826 -0.547152
1095.89453125 1.187817 0.769919 -0.417898
1096.85546875 1.294937 0.709989 -0.584948
1097.73828125 1.2566359999999999 0.736463 -0.520173
1098.5859375 1.179311 0.819867 -0.359444
1099.50390625 1.162826 0.590412 -0.572414
1100.4375 1.149692 0.822372 -0.32732
1101.37890625 1.207243 0.642303 -0.56494
1102.359375 1.151667 0.695 -0.456667
1103.3828125 1.1594799999999998 0.68948 -0.47
1104.265625 1.209825 0.646027 -0.563798
1105.08984375 1.137065 0.832065 -0.305
1106.0234375 1.202567 0.722573 -0.479994
1106.921875 1.174125 0.884125 -0.29
1107.87109375 1.252607 0.681117 -0.57149
1108.87890625 1.205576 0.863515 -0.342061
1109.77734375 1.2407110000000001 0.688611 -0.5521
1110.53125 1.114198 0.684923 -0.429275
1111.48046875 1.14187 0.764995 -0.376875
1112.65625 1.161867 0.706867 -0.455
1113.73828125 1.172877 0.914415 -0.258462
1114.6796875 1.188655 0.703655 -0.485
1115.59765625 1.182699 0.938305 -0.244394
1116.4375 1.215814 0.700814 -0.515
1117.27734375 1.169023 0.75 -0.419023
1117.7890625 1.6144990000000001 0.264499 -1.35
1119.34765625 1.160902 0.724479 -0.436423
1120.3515625 1.097811 0.71711 -0.380701
1121.27734375 1.124234 0.624234 -0.5
1122.1640625 1.118427 0.789627 -0.3288
1123.02734375 1.136879 0.628676 -0.508203
1123.92578125 1.16341 0.776784 -0.386626
1124.91796875 1.186062 0.795022 -0.39104
1125.87890625 1.215099 0.773692 -0.441407
1126.78125 1.1234959999999998 0.857821 -0.265675
1127.6953125 1.157044 0.664608 -0.492436
1128.54296875 1.142301 0.728501 -0.4138
1129.3671875 1.129153 0.675 -0.454153
1130.2265625 1.1966269999999999 0.742738 -0.453889
1131.1875 1.1569859999999998 0.909148 -0.247838
1132.19140625 1.188204 0.783181 -0.405023
1133.12890625 1.189861 0.866076 -0.323785
1133.95703125 1.150794 0.940772 -0.210022
1134.75 1.145 0.785 -0.36
1135.6015625 1.087546 0.836749 -0.250797
1136.50390625 1.218103 0.826994 -0.391109
1137.08203125 1.3519240000000001 0.092683 -1.259241
1137.359375 1.7032450000000001 0.444004 -1.259241
1138.44921875 1.0561120000000002 0.771425 -0.284687
1139.3359375 1.098063 0.794782 -0.303281
1140.140625 1.1946919999999999 0.899732 -0.29496
1140.9921875 1.13482 0.856106 -0.278714
1141.86328125 1.1867130000000001 0.84974 -0.336973
1142.859375 1.1791260000000001 0.765555 -0.413571
1143.84375 1.155843 0.69861 -0.457233
1144.47265625 2.696806 2.074329 -0.622477
1145.61328125 1.127158 0.722591 -0.404567
1146.1640625 2.729647 2.204515 -0.525132
1147.3046875 1.07772 0.6577 -0.42002
1148.171875 1.10265 0.68265 -0.42
1149.0859375 1.13222 0.62222 -0.51
1150.01171875 1.158258 0.69605 -0.462208
1150.9765625 1.152102 0.667369 -0.484733
1151.87890625 1.173119 0.633169 -0.53995
1152.671875 1.114637 0.806691 -0.307946
1153.09375 1.621984 0.185537 -1.436447
1153.375 1.8164470000000001 0.38 -1.436447
1154.37890625 1.0994760000000001 0.730987 -0.368489
1155.3828125 1.101985 0.694302 -0.407683
1156.40234375 1.076826 0.774687 -0.302139
1157.328125 1.1190259999999999 0.742216 -0.37681
1158.18359375 1.051809 0.716531 -0.335278
1158.9921875 1.035277 0.746563 -0.288714
1159.921875 1.088311 0.663311 -0.425
1160.9453125 1.163923 0.750015 -0.413908
1161.62109375 1.445578 0.159739 -1.285839
1161.828125 1.485839 0.2 -1.285839
1163.0078125 1.126062 0.74437 -0.381692
1163.9375 1.0895000000000001 0.8295 -0.26
1164.765625 1.14751 0.855 -0.29251
1165.47265625 1.211229 0.72229 -0.488939
1166.60546875 1.0517729999999998 0.774898 -0.276875
1167.55859375 1.120883 0.614803 -0.50608
1168.64453125 1.182766 0.664988 -0.517778
1169.59765625 1.1600540000000001 0.692798 -0.467256
1170.5078125 1.2524350000000002 0.674154 -0.578281
1171.40625 1.105139 0.645139 -0.46
1172.30859375 1.169497 0.634497 -0.535
1173.31640625 1.169022 0.614065 -0.554957
1174.45703125 1.124851 0.669851 -0.455
1175.58984375 1.194723 0.529748 -0.664975
1176.5390625 1.139955 0.664955 -0.475
1177.421875 1.238567 0.598174 -0.640393
1178.34765625 1.1800769999999998 0.615188 -0.564889
1179.34765625 1.147073 0.502843 -0.64423
1180.515625 1.191955 0.507326 -0.684629
1181.67578125 1.178965 0.653472 -0.525493
1182.58203125 1.143869 0.543958 -0.599911
1183.4453125 1.127973 0.859301 -0.268672
1184.33984375 1.205255 0.874571 -0.330684
1185.30859375 1.228353 1.179681 -0.048672
1186.36328125 1.164168 0.986827 -0.177341
1187.48828125 1.154286 0.951508 -0.202778
1188.41015625 1.175565 0.879378 -0.296187
1189.265625 1.119212 0.675 -0.444212
1190.21875 1.04705 0.86998 -0.17707
1191.2109375 1.159416 0.714794 -0.444622
1192.1796875 1.100363 0.75418 -0.346183
1193.13671875 1.1332200000000001 0.65822 -0.475
1194.06640625 1.136168 0.842583 -0.293585
1194.93359375 1.23483 0.909836 -0.324994
1195.828125 1.186821 0.82173 -0.365091
1196.7578125 1.099329 0.819594 -0.279735
1197.6875 0.98116 0.647262 -0.333898
1198.61328125 1.2043400000000002 0.684447 -0.519893
1199.609375 1.2150189999999998 0.87854 -0.336479
1200.50390625 1.256591 0.69893 -0.557661
1201.3515625 1.324949 0.786168 -0.538781
1202.22265625 1.293188 0.848877 -0.444311
1203.140625 1.119899 0.789365 -0.330534
1204.04296875 1.203416 0.738416 -0.465
1204.96875 1.102571 0.795496 -0.307075
1205.8984375 1.166677 0.716689 -0.449988
1206.74609375 1.141878 0.841878 -0.3
1207.58203125 1.120431 0.899027 -0.221404
1208.4921875 1.0737240000000001 0.858724 -0.215
1209.14453125 2.9625450000000004 2.304994 -0.657551
1210.40234375 1.0940759999999998 1.489553 0.395477
1211.25 0.932473 0.48 -0.452473
1212.13671875 0.750782 0.86617 0.115388
1212.921875 0.94867 -0.050875 -0.999545
1213.7734375 1.2102080000000002 1.555789 0.345581
1214.67578125 0.7759999999999999 1.319548 0.543548
1215.5625 0.60184 1.536875 0.935035
1216.4296875 0.562511 0.819683 0.257172
1216.91015625 0.43540599999999996 1.123198 0.687792
1219.07421875 0.643593 -0.88 -1.523593
0.0 1.373668 -1.0 -2.373668
0.0 1.183275 -1.0 -2.183275
1221.69140625 0.99989 -0.155049 -1.154939
1222.54296875 1.0258909999999999 0.10633 -0.919561
1223.09765625 1.4182460000000001 0.12955 -1.288696
1223.390625 1.66758 0.378884 -1.288696
1224.421875 0.9785490000000001 0.444483 -0.534066
1225.29296875 1.07232 0.51915 -0.55317
1226.140625 1.177226 1.952363 0.775137
1226.69921875 1.913863 2.611691 0.697828
1228.0625 0.660868 0.999286 0.338418
1229.109375 0.927258 -0.655812 -1.58307
1230.046875 1.018009 0.068009 -0.95
1230.9140625 1.128454 0.164601 -0.963853
1231.77734375 1.118111 0.596802 -0.521309
1232.6328125 1.009658 0.81 -0.199658
1233.52734375 1.081612 0.346348 -0.735264
1234.17578125 2.621471 2.184002 -0.437469
1235.4140625 1.031272 0.349697 -0.681575
1236.28125 1.053449 0.398672 -0.654777
1237.17578125 1.067272 0.397272 -0.67
1238.22265625 1.074899 0.907563 -0.167336
1239.265625 1.090234 0.620234 -0.47
1240.19140625 1.091305 0.933912 -0.157393
1241.09375 1.094263 0.439263 -0.655
1241.67578125 3.069106 2.044106 -1.025
1242.7265625 1.0085140000000001 0.078514 -0.93
1243.6328125 1.0855569999999999 0.010935 -1.074622
1244.60546875 1.154343 0.744906 -0.409437
1245.52734375 1.0401719999999999 0.466898 -0.573274
1246.41796875 1.164932 0.836974 -0.327958
1246.9921875 3.278318 2.658318 -0.62
1248.078125 1.086669 1.254007 0.167338
1248.94921875 1.0424250000000002 0.647564 -0.394861
1249.9453125 1.173062 0.403707 -0.769355
1250.9140625 1.107491 0.410544 -0.696947
1251.8046875 1.112789 0.523283 -0.589506
1252.12890625 0.737685 0.939114 0.201429
1252.65625 1.133053 0.339475 -0.793578
1252.89453125 0.643579 -0.179454 -0.823033
1253.46484375 1.10436 0.039461 -1.064899
1254.26953125 1.109955 0.66498 -0.444975
1255.12890625 1.178202 0.685412 -0.49279
1256.03515625 1.155508 1.175 0.019492
1256.94140625 1.07597 0.759533 -0.316437
1257.45703125 1.2213159999999998 0.273324 -0.947992
1258.59765625 0.968251 0.724212 -0.244039
1259.52734375 1.044087 0.779087 -0.265
1260.32421875 1.149531 0.74009 -0.409441
1261.07421875 1.1288529999999999 0.853134 -0.275719
1261.90625 1.1271170000000001 0.877117 -0.25
1262.52734375 3.05847 2.889653 -0.168817
1263.65625 1.1378460000000001 1.401 0.263154
1264.265625 3.098262 2.048262 -1.05
1265.3125 0.9722149999999999 0.181944 -0.790271
1266.09765625 1.005425 0.392578 -0.612847
1266.81640625 1.115893 0.959592 -0.156301
1267.60546875 1.055256 0.814871 -0.240385
1268.57421875 1.101056 1.177915 0.076859
1269.4765625 0.9665210000000001 0.760557 -0.205964
1270.39453125 1.23549 1.324954 0.089464
1271.21484375 1.119297 0.62791 -0.491387
1272.00390625 1.093956 0.784124 -0.309832
1272.73046875 1.161981 0.674936 -0.487045
1273.54296875 1.078191 0.552414 -0.525777
1274.4921875 1.1222370000000002 0.817288 -0.304949
1275.24609375 1.102568 0.18828 -0.914288
1276.296875 1.12526 0.967654 -0.157606
1277.08203125 1.090795 1.180659 0.089864
1277.87109375 1.156224 0.871224 -0.285
1278.66015625 1.246514 1.355202 0.108688
1279.45703125 1.202161 0.83373 -0.368431
1280.28125 1.187152 0.836591 -0.350561
1281.1796875 1.1916669999999998 0.682599 -0.509068
1282.07421875 1.1425589999999999 0.315559 -0.827
1282.875 1.2815159999999999 0.585 -0.696516
1283.6796875 1.137084 0.402084 -0.735
1284.46875 1.138323 0.688323 -0.45
1284.9765625 1.539414 0.325 -1.214414
1286.07421875 1.162635 0.45 -0.712635
1286.96875 1.149519 0.564519 -0.585
1287.9921875 1.146574 0.561638 -0.584936
1289.0 1.2133479999999999 0.815 -0.398348
1289.890625 1.172646 1.102942 -0.069704
1290.4375 3.048611 1.958611 -1.09
1291.4375 1.1467399999999999 0.691797 -0.454943
1292.1015625 3.068924 2.197441 -0.871483
1293.453125 1.010667 0.979612 -0.031055
1294.23828125 3.056954 2.365 -0.691954
1297.8671875 1.21991 0.559553 -0.660357
1298.97265625 1.2141000000000002 0.645 -0.5691
1299.8359375 1.5699450000000001 0.104945 -1.465
1301.5546875 1.179661 1.016707 -0.162954
1302.4140625 0.8566579999999999 2.139948 1.28329
1303.234375 0.958122 1.188242 0.23012
1304.21484375 0.875567 0.918301 0.042734
1305.375 1.032221 0.15 -0.882221
1306.45703125 0.891984 0.014576 -0.877408
1307.28125 2.8694840000000004 0.699609 -2.169875
0.0 0.866681 -1.0 -1.866681
1308.40234375 1.160355 -0.684434 -1.844789
1308.94140625 2.9797390000000004 1.904336 -1.075403
1310.05859375 1.385667 0.84938 -0.536287
1310.96875 2.943652 1.98998 -0.953672
1312.48828125 1.06605 1.06605 0.0
1313.60546875 1.206026 -0.038974 -1.245
1314.42578125 1.183734 0.276907 -0.906827
1315.23828125 1.141465 0.086827 -1.054638
1316.0625 0.968151 -0.209687 -1.177838
1316.99609375 0.926711 -0.013289 -0.94
1317.8359375 3.096479 2.259877 -0.836602
1319.20703125 1.022793 0.743848 -0.278945
1320.12890625 1.0058799999999999 0.753181 -0.252699
1320.875 1.003148 0.715 -0.288148
1321.390625 1.3693359999999999 0.355 -1.014336
1322.6171875 1.057106 0.872693 -0.184413
1323.5625 1.182814 0.982308 -0.200506
1324.4765625 1.131566 0.899093 -0.232473
1325.34375 1.110729 0.915824 -0.194905
1326.19921875 1.112212 0.878738 -0.233474
1326.9609375 1.285548 0.930571 -0.354977
1327.5546875 3.07574 2.476011 -0.599729
1328.68359375 1.157395 0.843897 -0.313498
1329.29296875 3.131451 2.386394 -0.745057
1330.4609375 1.149885 0.74 -0.409885
1331.05859375 3.097808 2.577808 -0.52
1339.55859375 3.1599500000000003 2.27495 -0.885
1340.59765625 1.38 0.585 -0.795
1341.49609375 1.4496229999999999 0.654967 -0.794656
1342.43359375 1.308646 0.444125 -0.864521
1343.328125 1.054038 0.32912 -0.724918
1344.13671875 1.059042 0.654042 -0.405
1344.92578125 1.151536 1.029124 -0.122412
1345.71875 1.232748 1.228462 -0.004286
1346.20703125 0.11866 0.125414 0.006754
1346.55078125 1.173377 1.022571 -0.150806
1347.40625 1.169902 0.894908 -0.274994
1348.26171875 1.1761620000000002 0.911714 -0.264448
1349.140625 1.242973 0.937617 -0.305356
1349.640625 1.464731 0.51415 -0.950581
1350.7421875 1.1864620000000001 1.072491 -0.113971
1351.6171875 1.1041450000000002 1.041643 -0.062502
1352.515625 1.2126970000000001 0.993164 -0.219533
1353.359375 1.238328 1.029484 -0.208844
1354.22265625 1.351167 0.969448 -0.381719
1355.13671875 1.116364 0.771726 -0.344638
1355.9453125 1.272402 0.750919 -0.521483
1356.80078125 1.201246 0.681246 -0.52
1357.7265625 1.262396 0.760268 -0.502128
1358.6796875 1.260928 0.647128 -0.6138
1359.5546875 1.243096 0.638398 -0.604698
1360.4375 1.2678180000000001 0.613667 -0.654151
1361.48828125 1.25216 0.782592 -0.469568
1362.39453125 1.284987 0.674987 -0.61
1363.32421875 1.189708 0.768981 -0.420727
1364.203125 1.289221 0.614334 -0.674887
1365.12109375 1.2724410000000002 0.536018 -0.736423
1365.9609375 1.071544 0.494669 -0.576875
1366.87890625 1.2665890000000002 0.663965 -0.602624
1367.37109375 0.434621 -0.135948 -0.570569
1367.796875 0.390117 -0.156812 -0.546929
1368.734375 1.573088 0.738634 -0.834454
1369.42578125 3.179009 2.294067 -0.884942
1370.63671875 1.158169 0.888691 -0.269478
1371.7890625 1.3448609999999999 0.789922 -0.554939
1372.85546875 1.226338 0.874338 -0.352
1373.8125 1.340372 0.790385 -0.549987
1374.66796875 1.289646 0.69052 -0.599126
1375.56640625 1.060273 0.711911 -0.348362
1376.578125 1.35842 0.809812 -0.548608
1377.57421875 1.244598 0.774815 -0.469783
1378.53515625 1.197974 0.596852 -0.601122
1379.453125 1.154912 0.844912 -0.31
1380.2890625 1.132171 0.672171 -0.46
1381.09375 1.167274 0.73 -0.437274
1382.046875 1.2826089999999999 0.617609 -0.665
1383.109375 1.152778 0.665 -0.487778
1384.08984375 1.261133 0.581165 -0.679968
1385.00390625 1.291503 0.594241 -0.697262
1385.8125 1.220758 0.664062 -0.556696
1386.59375 1.2280760000000002 0.502278 -0.725798
1387.4296875 1.328181 0.515 -0.813181
1388.359375 1.196084 0.581084 -0.615
1389.328125 1.212261 0.616112 -0.596149
1390.26953125 1.253887 0.639927 -0.61396
1391.08984375 1.153562 0.699315 -0.454247
1391.5859375 1.476484 0.029976 -1.446508
1392.78515625 1.094269 0.690824 -0.403445
1393.640625 1.278155 0.638468 -0.639687
1394.54296875 1.201145 0.601145 -0.6
1395.48828125 1.145095 0.67134 -0.473755
1396.38671875 1.280135 0.688674 -0.591461
1397.24609375 1.2183359999999999 0.676913 -0.541423
1397.73828125 1.426181 0.101815 -1.324366
1398.90625 1.231353 0.687137 -0.544216
1399.7421875 1.225201 0.721262 -0.503939
1400.3046875 1.434905 0.247341 -1.187564
1401.515625 1.192172 0.733434 -0.458738
1402.4921875 1.293103 0.898103 -0.395
1403.37890625 1.218484 0.876894 -0.34159
1404.1875 1.256375 0.785 -0.471375
1404.68359375 2.861246 2.379892 -0.481354
1405.68359375 1.089075 0.784817 -0.304258
1406.28125 1.227022 0.882358 -0.344664
1407.625 1.185749 0.76 -0.425749
1408.2890625 3.089775 2.469785 -0.61999
1409.40625 1.157903 0.713173 -0.44473
1409.92578125 3.1164579999999997 2.421458 -0.695
1410.9765625 1.088265 0.732441 -0.355824
1411.55078125 3.041041 2.354548 -0.686493
1413.4609375 3.109986 2.36 -0.749986
1415.1953125 2.958995 2.378233 -0.580762
1416.82421875 2.996752 2.4013 -0.595452
1418.578125 2.995504 2.396076 -0.599428
1420.52734375 3.118074 2.509863 -0.608211
1422.2890625 3.1233890000000004 2.48484 -0.638549
1423.96484375 3.093444 2.431165 -0.662279
1425.98046875 3.134942 2.504947 -0.629995
1427.85546875 3.165644 2.519344 -0.6463
1429.546875 2.903163 2.294519 -0.608644
1431.43359375 2.959035 2.28 -0.679035
1433.75 2.972563 2.295 -0.677563
1435.4453125 3.032057 2.366104 -0.665953
1437.42578125 2.926422 2.339567 -0.586855
1439.625 2.942901 2.26 -0.682901
1441.31640625 2.962583 2.203589 -0.758994
1442.57421875 1.105116 0.642108 -0.463008
1443.27734375 2.8895630000000003 2.409857 -0.479706
1444.6484375 1.141437 0.686437 -0.455
1445.33203125 2.9390219999999996 2.469851 -0.469171
1446.99609375 3.011392 2.516823 -0.494569
1448.875 2.791778 2.36 -0.431778
1450.13671875 1.089021 0.589723 -0.499298
1450.78125 2.90068 2.371664 -0.529016
1452.546875 3.117288 2.419914 -0.697374
1453.6875 1.117031 0.774167 -0.342864
1454.34375 2.92875 2.49 -0.43875
1456.08203125 2.949868 2.429507 -0.520361
1457.84765625 2.993946 2.380938 -0.613008
1459.4921875 3.01181 2.484302 -0.527508
1461.2734375 2.9536809999999996 2.47387 -0.479811
1465.76953125 1.2646950000000001 0.72992 -0.534775
1466.3984375 2.832234 2.097573 -0.734661
1468.453125 1.166005 0.649099 -0.516906
1469.35546875 1.3623910000000001 0.749891 -0.6125
1470.1875 1.612307 0.796236 -0.816071
1470.9453125 1.2782719999999999 0.709491 -0.568781
1471.8203125 1.044311 0.521704 -0.522607
1472.76953125 1.114166 0.529916 -0.58425
1473.48046875 3.145682 2.330813 -0.814869
1474.26953125 0.336632 -0.040065 -0.376697
1474.52734375 1.384002 0.77465 -0.609352
1474.94921875 1.755197 0.817006 -0.938191
1475.2578125 0.41326399999999996 -0.093044 -0.506308
1475.640625 0.892415 0.346201 -0.546214
1475.96484375 0.6667759999999999 0.091776 -0.575
1476.24609375 0.880311 0.372525 -0.507786
1476.984375 1.607158 0.929149 -0.678009
1477.20703125 1.110346 0.666213 -0.444133
1477.8359375 1.066157 0.66958 -0.396577
1478.48046875 3.0442530000000003 2.569945 -0.474308
1478.7890625 0.20474199999999998 -0.300258 -0.505
1479.55859375 1.483333 1.014953 -0.46838
1480.48828125 1.112793 0.846696 -0.266097
1481.390625 1.121203 0.770385 -0.350818
1481.9296875 2.925 2.42 -0.505
1482.98046875 1.1591390000000001 0.739967 -0.419172
1483.5 2.915766 2.435 -0.480766
1484.71875 1.1316350000000002 0.820212 -0.311423
1485.6328125 1.187694 0.879158 -0.308536
1486.19140625 1.512976 0.239813 -1.273163
1487.45703125 1.182511 0.757642 -0.424869
1488.30859375 1.1957749999999998 0.677483 -0.518292
1489.04296875 1.1569129999999999 0.681913 -0.475
1489.984375 1.1901760000000001 0.755328 -0.434848
1491.0625 1.1814339999999999 0.788661 -0.392773
1492.01953125 1.1749100000000001 0.81491 -0.36
1492.9140625 1.182862 0.849911 -0.332951
1493.765625 1.163166 0.674902 -0.488264
1494.6015625 1.2348919999999999 0.712258 -0.522634
1495.19140625 3.115062 2.384523 -0.730539
1496.38671875 1.083839 0.836635 -0.247204
1497.4765625 1.259945 0.845454 -0.414491
1498.421875 1.134826 0.764826 -0.37
1499.234375 1.104234 0.724234 -0.38
1499.63671875 0.713963 0.249393 -0.46457
1500.2578125 1.310517 0.675632 -0.634885
1501.125 1.224655 0.755 -0.469655
1502.05078125 1.2381950000000002 0.763893 -0.474302
1502.9921875 1.129783 0.684783 -0.445
1503.95703125 1.352388 0.819864 -0.532524
1504.8203125 1.1263239999999999 0.779781 -0.346543
1505.4609375 3.209734 2.679828 -0.529906
1505.9375 0.582991 0.245814 -0.337177
1506.55078125 1.463959 0.924376 -0.539583
1507.1171875 3.1273989999999996 2.504367 -0.623032
1508.20703125 1.150769 0.8852 -0.265569
1509.1015625 1.17724 0.830311 -0.346929
1510.109375 1.122811 0.832811 -0.29
1511.046875 1.119822 0.644822 -0.475
1511.8828125 1.141953 0.83788 -0.304073
1512.62890625 1.174247 0.439809 -0.734438
1513.51171875 1.1232630000000001 0.760982 -0.362281
1514.3515625 1.393935 0.619521 -0.774414
1515.26953125 1.150232 0.594935 -0.555297
1516.20703125 1.127126 0.607208 -0.519918
1517.0703125 1.349364 0.605 -0.744364
1517.875 1.149978 0.765 -0.384978
1518.6953125 1.064692 0.46474 -0.599952
1519.546875 1.1637870000000001 0.773787 -0.39
1520.390625 1.2493859999999999 0.575 -0.674386
1521.265625 1.044107 0.804147 -0.23996
1522.15625 1.48621 0.869604 -0.616606
1522.53515625 0.59046 0.195795 -0.394665
1523.0078125 1.0208620000000002 0.688362 -0.3325
1523.26953125 0.536958 0.439958 -0.097
1523.80078125 1.265307 0.736361 -0.528946
1524.6015625 1.125756 0.986048 -0.139708
1525.47265625 1.3978 0.848223 -0.549577
1526.296875 1.128359 1.006797 -0.121562
1527.09375 1.3058589999999999 0.780859 -0.525
1528.0234375 1.199287 0.784883 -0.414404
1528.92578125 1.087257 0.85415 -0.233107
1529.7734375 1.179044 0.704093 -0.474951
1530.25 1.387421 0.155 -1.232421
1531.37109375 1.180062 0.630062 -0.55
1532.19140625 1.087665 0.937984 -0.149681
1532.67578125 1.509778 0.09451 -1.415268
1533.9453125 0.98 0.795 -0.185
1534.87109375 1.168869 0.687279 -0.48159
1535.6796875 1.082763 0.765532 -0.317231
1536.45703125 1.135875 0.68685 -0.449025
1537.27734375 1.149499 0.674574 -0.474925
1538.0234375 1.172755 0.702755 -0.47
1538.53515625 1.53561 0.120661 -1.414949
1539.890625 1.048395 0.779158 -0.269237
1540.7734375 1.198914 0.713998 -0.484916
1541.609375 1.125938 0.873835 -0.252103
1542.390625 1.272546 0.712699 -0.559847
1543.23046875 1.162816 0.684969 -0.477847
1544.0859375 1.203029 0.78897 -0.414059
1545.0 1.169783 0.705 -0.464783
1545.8671875 1.145428 0.743726 -0.401702
1546.79296875 1.219507 0.809507 -0.41
1547.328125 1.2939479999999999 0.154707 -1.139241
1548.51171875 1.114636 0.752493 -0.362143
1549.25390625 1.161317 0.812042 -0.349275
1550.2265625 1.125654 0.731222 -0.394432
1551.17578125 1.112472 0.82342 -0.289052
1552.11328125 1.166827 0.811827 -0.355
1552.68359375 2.749084 2.364084 -0.385
1553.90234375 1.093068 0.706387 -0.386681
1554.42578125 2.858376 2.378376 -0.48
1555.5234375 1.089386 0.805215 -0.284171
1556.41796875 1.122336 0.677336 -0.445
1557.4140625 1.213127 0.68472 -0.528407
1558.4453125 1.141369 0.629519 -0.51185
1559.3359375 1.199081 0.689492 -0.509589
1560.17578125 1.172744 0.654652 -0.518092
1561.0 1.1802700000000002 0.68 -0.50027
1561.890625 1.1580659999999998 0.593066 -0.565
1562.8359375 1.2207949999999999 0.609977 -0.610818
1563.859375 1.170001 0.641563 -0.528438
1564.86328125 1.214459 0.644789 -0.56967
1565.68359375 1.21087 0.66245 -0.54842
1566.26171875 2.932755 2.314355 -0.6184
1567.33203125 1.082331 0.811395 -0.270936
1568.30078125 1.119831 0.712134 -0.407697
1569.2421875 1.1741869999999999 0.728154 -0.446033
1570.14453125 1.149228 0.699932 -0.449296
1570.84375 3.123682 2.385072 -0.73861
1571.921875 1.123447 0.706112 -0.417335
1572.7578125 1.130329 0.750755 -0.379574
1573.58984375 1.202113 0.778259 -0.423854
1574.5234375 1.150023 0.775023 -0.375
1575.13671875 3.1461249999999996 2.531681 -0.614444
1576.31640625 1.13925 0.714622 -0.424628
1577.2578125 1.184695 0.920153 -0.264542
1578.0859375 1.168412 0.734274 -0.434138
1578.859375 1.199583 0.768721 -0.430862
1579.66015625 1.1499929999999998 0.669993 -0.48
1580.57421875 1.166236 0.63447 -0.531766
1581.4765625 1.046816 0.791816 -0.255
1582.37109375 1.107552 0.582769 -0.524783
1583.26171875 1.079291 0.580058 -0.499233
1584.0546875 1.100393 0.90488 -0.195513
1584.8359375 1.152869 0.674482 -0.478387
1585.6953125 1.110798 0.645798 -0.465
1586.63671875 1.025705 0.855044 -0.170661
1587.54296875 1.153083 0.63365 -0.519433
1588.39453125 1.16367 0.789953 -0.373717
1589.25390625 1.102951 0.727974 -0.374977
1590.01171875 1.1866910000000002 0.647046 -0.539645
1590.8671875 1.0376589999999999 0.889581 -0.148078
1591.71484375 1.1996790000000002 0.700126 -0.499553
1592.6640625 1.0723070000000001 0.744778 -0.327529
1593.5234375 1.095523 0.762324 -0.333199
1594.41015625 1.169402 0.696507 -0.472895
1595.34375 1.103018 0.878984 -0.224034
1596.1875 1.165875 0.6614 -0.504475
1596.94921875 1.116779 0.939228 -0.177551
1597.75 1.1899760000000001 0.81 -0.379976
1598.63671875 1.177663 0.709915 -0.467748
1599.1484375 1.4900680000000002 0.360918 -1.12915
1599.44140625 1.958792 0.829642 -1.12915
1600.421875 1.01451 1.179701 0.165191
1601.33203125 1.257802 0.398013 -0.859789
1602.14453125 1.175722 0.365845 -0.809877
1602.9296875 1.195903 0.555903 -0.64
1603.77734375 1.024709 0.649715 -0.374994
1604.546875 1.1394950000000001 0.594495 -0.545
1605.15234375 1.492008 0.306255 -1.185753
1606.546875 1.091826 0.653868 -0.437958
1607.1171875 2.916001 2.622592 -0.293409
1608.2578125 1.101813 0.694114 -0.407699
1608.8046875 2.9947869999999996 2.528755 -0.466032
1609.95703125 1.024535 0.644672 -0.379863
1610.87109375 1.007449 0.848033 -0.159416
1611.8515625 1.166684 0.566793 -0.599891
1612.74609375 1.045932 0.661315 -0.384617
1613.6640625 1.134979 0.699979 -0.435
1614.21875 2.9570000000000003 2.267358 -0.689642
1615.29296875 1.0307979999999999 0.712812 -0.317986
1615.84375 2.859219 2.229219 -0.63
1617.05859375 0.980329 0.878742 -0.101587
1617.6640625 2.891541 2.239742 -0.651799
1619.53125 3.074224 2.522905 -0.551319
1621.15234375 2.995622 2.456162 -0.53946
1623.01953125 3.079898 2.529898 -0.55
1628.28515625 3.06 2.37 -0.69
1630.15234375 2.992756 2.571831 -0.420925
1634.23828125 1.4733420000000002 0.049727 -1.423615
1642.3046875 1.164234 0.684234 -0.48
1643.17578125 1.1253920000000002 0.711443 -0.413949
1643.96875 0.9946649999999999 0.709665 -0.285
1644.47265625 2.8177190000000003 2.272543 -0.545176
1645.5390625 0.994813 0.769813 -0.225
1646.0859375 2.9416130000000003 2.429894 -0.511719
1647.25 1.039469 0.835 -0.204469
1648.1484375 1.192855 0.852899 -0.339956
1648.4453125 0.38318399999999997 0.286937 -0.096247
1649.0 1.090569 0.71 -0.380569
1649.77734375 0.953839 0.949538 -0.004301
1650.59375 1.105581 0.802703 -0.302878
1651.42578125 1.004209 0.984656 -0.019553
1651.90234375 1.455274 0.22119 -1.234084
1652.18359375 1.624721 0.390637 -1.234084
1653.09765625 0.941581 0.655 -0.286581
1653.98046875 1.044299 0.644581 -0.399718
1654.84375 1.025079 0.700673 -0.324406
1655.62890625 1.072934 0.60303 -0.469904
1656.4765625 1.017598 0.727955 -0.289643
1657.26953125 1.17997 0.7 -0.47997
1658.09765625 1.092174 0.607794 -0.48438
1658.9296875 1.055409 0.656367 -0.399042
1659.48828125 2.683593 2.165044 -0.518549
1660.7734375 0.939763 0.489792 -0.449971
1661.328125 2.76274 2.172804 -0.589936
1662.37109375 1.050367 0.688231 -0.362136
1663.171875 1.08659 0.618064 -0.468526
1663.98828125 1.068127 0.806865 -0.261262
1664.85546875 1.049408 0.510747 -0.538661
1665.484375 2.883393 2.007884 -0.875509
1666.69921875 0.906665 0.660383 -0.246282
1667.20703125 1.440603 -0.079251 -1.519854
1668.3359375 0.9922150000000001 0.710566 -0.281649
1669.18359375 1.071484 0.648966 -0.422518
1670.08984375 1.019256 0.455513 -0.563743
1671.0078125 1.057879 0.838824 -0.219055
1671.65234375 1.074935 0.575 -0.499935
1672.734375 1.018975 0.7521 -0.266875
1673.34375 1.384607 0.412656 -0.971951
1674.4765625 1.06004 0.615577 -0.444463
1675.31640625 1.014888 1.024951 0.010063
1676.171875 1.155639 0.825639 -0.33
1677.0625 1.104034 0.574056 -0.529978
1677.64453125 2.853437 2.42 -0.433437
1678.88671875 1.043581 0.541765 -0.501816
1679.51171875 1.151308 0.821827 -0.329481
1680.6328125 1.00831 0.738857 -0.269453
1681.15625 2.7341450000000003 2.113424 -0.620721
1682.3359375 0.9046540000000001 0.869866 -0.034788
1683.2578125 1.163794 0.609511 -0.554283
1684.1484375 0.980899 0.719847 -0.261052
1685.140625 1.150035 0.654253 -0.495782
1685.99609375 1.120768 0.626973 -0.493795
1686.765625 0.9928440000000001 0.812559 -0.180285
1687.578125 1.134675 0.609701 -0.524974
1688.48828125 1.066341 0.656458 -0.409883
1689.3984375 1.006224 0.721248 -0.284976
1690.17578125 1.158858 0.574557 -0.584301
1691.1796875 0.999441 0.84988 -0.149561
1692.0234375 1.16192 0.717045 -0.444875
1692.828125 1.05836 0.77836 -0.28
1693.6640625 1.066594 0.939805 -0.126789
1694.6015625 1.167205 0.71328 -0.453925
1695.1875 2.931949 2.397105 -0.534844
1696.33984375 1.040456 0.801422 -0.239034
1696.91015625 2.857087 2.294594 -0.562493
1698.11328125 0.9909570000000001 0.884789 -0.106168
1698.65234375 2.82376 2.349653 -0.474107
1700.35546875 2.94331 2.504958 -0.438352
1702.11328125 2.855077 2.289397 -0.56568
1703.9296875 2.96447 2.25447 -0.71
1709.87109375 1.557874 0.058078 -1.499796
1715.8828125 1.2902969999999998 -0.091889 -1.382186
1724.27734375 1.316861 0.184536 -1.132325
1725.54296875 0.898117 0.733117 -0.165
1726.43359375 1.004182 0.709463 -0.294719
1727.31640625 1.018621 0.674848 -0.343773
1728.1640625 0.979805 0.874805 -0.105
1728.95703125 0.940763 0.691369 -0.249394
1729.47265625 2.859032 2.309707 -0.549325
1730.68359375 0.835292 0.844796 0.009504
1731.6640625 0.95177 0.649551 -0.302219
1732.5703125 0.948393 0.593479 -0.354914
1733.44140625 1.079391 0.674544 -0.404847
1734.32421875 0.880953 0.522141 -0.358812
1735.171875 0.9989600000000001 0.81 -0.18896
1735.74609375 2.831946 2.294809 -0.537137
1736.9921875 0.9815480000000001 0.643564 -0.337984
1737.890625 0.9884029999999999 0.658403 -0.33
1738.77734375 0.869723 0.734723 -0.135
1739.59765625 0.94753 0.542749 -0.404781
1740.5078125 0.9235789999999999 0.647825 -0.275754
1741.33984375 0.859876 0.735 -0.124876
1742.2578125 0.959687 0.654807 -0.30488
1743.2109375 0.994594 0.674845 -0.319749
1744.171875 0.9833109999999999 0.873311 -0.11
1745.09375 0.965012 0.6715 -0.293512
1745.95703125 0.9095650000000001 0.685 -0.224565
1746.77734375 1.020081 0.847139 -0.172942
1747.59375 1.164922 0.779668 -0.385254
1748.44140625 0.9747990000000001 0.854832 -0.119967
1749.34765625 1.109884 0.759022 -0.350862
1750.2890625 1.084608 0.934819 -0.149789
1751.15234375 1.038585 0.878155 -0.16043
1751.9609375 1.158221 0.918416 -0.239805
1752.796875 1.07226 0.874172 -0.198088
1753.671875 1.082654 0.657654 -0.425
1754.16015625 1.475267 0.195 -1.280267
1754.44140625 1.690267 0.41 -1.280267
1755.5 1.031422 0.55 -0.481422
1756.140625 3.02625 2.35125 -0.675
1757.2421875 1.087526 0.642984 -0.444542
1757.94921875 1.078364 0.692985 -0.385379
1758.85546875 1.149925 0.644925 -0.505
1759.703125 1.094054 0.664285 -0.429769
1760.28515625 2.879432 2.20856 -0.670872
1761.4140625 0.9868129999999999 0.434919 -0.551894
1762.28125 0.9509209999999999 0.540921 -0.41
1763.203125 1.111881 0.464429 -0.647452
1764.01171875 0.950784 0.713885 -0.236899
1764.83203125 1.119445 0.503549 -0.615896
1765.60546875 1.058507 0.744868 -0.313639
1766.46875 1.047094 0.537094 -0.51
1767.33203125 1.061619 0.772158 -0.289461
1768.21484375 1.067138 0.717509 -0.349629
1769.09765625 1.048353 0.69951 -0.348843
1769.8671875 0.960894 0.849585 -0.111309
1770.6796875 1.032479 0.709279 -0.3232
1771.16796875 1.450242 0.332336 -1.117906
1772.41015625 0.9978389999999999 0.702839 -0.295
1773.328125 1.098991 0.784382 -0.314609
1774.21484375 1.09496 0.735177 -0.359783
1775.02734375 1.091643 0.79384 -0.297803
1775.61328125 3.038796 2.362129 -0.676667
1776.62109375 1.018168 0.797083 -0.221085
1777.17578125 1.7721900000000002 0.59743 -1.17476
1778.26171875 0.960324 0.839719 -0.120605
1779.09765625 1.135357 0.663396 -0.471961
1779.984375 1.080123 0.845234 -0.234889
1780.859375 1.21056 0.769651 -0.440909
1781.69921875 1.140158 0.665853 -0.474305
1782.2421875 2.900976 2.308303 -0.592673
1783.27734375 1.062708 0.597529 -0.465179
1783.8125 2.856632 2.243191 -0.613441
1784.9609375 1.107583 0.5649 -0.542683
1785.55859375 2.9953190000000003 2.317753 -0.677566
1791.4921875 1.458729 0.144458 -1.314271
1792.7265625 1.051123 0.608971 -0.442152
1793.55859375 1.04693 0.801673 -0.245257
1794.3671875 1.1692420000000001 0.794444 -0.374798
1795.1953125 1.164558 0.753303 -0.411255
1796.046875 1.073615 0.828615 -0.245
1796.97265625 1.1185640000000001 0.779292 -0.339272
1797.484375 1.4761710000000001 0.212207 -1.263964
1797.77734375 1.631998 0.368034 -1.263964
1798.6484375 0.990325 0.756417 -0.233908
1799.5703125 1.150759 0.827207 -0.323552
1800.13671875 1.357985 0.149667 -1.208318
1801.2890625 1.052074 0.709894 -0.34218
1802.15625 1.077603 0.717917 -0.359686
1803.07421875 1.07277 0.668512 -0.404258
1803.703125 2.762537 2.184317 -0.57822
