4.46484375 2.29631 2.030465 -0.265845
5.296875 2.336102 2.074712 -0.26139
5.93359375 2.7201500000000003 1.004545 -1.715605
6.88671875 2.4135180000000003 2.075044 -0.338474
7.6640625 2.2064369999999998 1.934562 -0.271875
8.5390625 2.049946 1.874946 -0.175
8.98828125 3.255 1.295 -1.96
10.265625 2.245901 2.023541 -0.22236
11.03515625 2.1870890000000003 1.875447 -0.311642
11.75390625 2.334654 1.962068 -0.372586
12.484375 2.391784 1.94673 -0.445054
13.24609375 2.374894 1.944894 -0.43
14.0078125 2.380402 1.944356 -0.436046
14.78515625 2.230751 1.867509 -0.363242
15.6640625 2.299287 2.004918 -0.294369
16.55859375 2.414606 1.999606 -0.415
17.3046875 2.351766 1.831783 -0.519983
18.02734375 2.272973 1.81 -0.462973
18.75390625 2.3647240000000003 1.902006 -0.462718
19.5390625 2.311413 1.874785 -0.436628
20.35546875 2.242517 1.770295 -0.472222
21.171875 2.429246 1.856092 -0.573154
21.97265625 2.3119069999999997 1.839338 -0.472569
22.80859375 2.239669 1.794186 -0.445483
23.57421875 2.209394 1.72911 -0.480284
24.2890625 2.274625 1.874625 -0.4
25.03515625 2.326946 2.012073 -0.314873
25.81640625 2.293484 2.014585 -0.278899
26.640625 2.1933819999999997 1.873422 -0.31996
27.50390625 2.195744 1.812852 -0.382892
28.328125 2.269641 1.869145 -0.400496
29.09375 2.305435 1.868583 -0.436852
29.8671875 2.349878 1.928107 -0.421771
30.609375 2.303085 1.834245 -0.46884
31.36328125 2.236263 1.750299 -0.485964
32.14453125 2.319949 1.859988 -0.459961
32.9609375 2.179921 1.789805 -0.390116
33.80078125 2.1260760000000003 1.799047 -0.327029
34.625 2.287951 1.875 -0.412951
35.140625 2.357024 0.332493 -2.024531
36.125 2.4092919999999998 1.93 -0.479292
36.875 2.209443 1.805 -0.404443
37.65625 2.2592849999999998 1.928375 -0.33091
38.44140625 2.3055250000000003 1.913572 -0.391953
39.25390625 2.239679 1.920822 -0.318857
40.07421875 2.239814 1.837624 -0.40219
40.875 2.333939 1.885 -0.448939
41.6484375 2.440527 1.988945 -0.451582
42.3984375 2.34706 1.984941 -0.362119
43.13671875 2.275706 1.929653 -0.346053
43.953125 2.253035 2.008727 -0.244308
44.80859375 2.229303 1.989415 -0.239888
45.65234375 2.396748 2.08832 -0.308428
46.4765625 2.336387 1.986793 -0.349594
47.25 2.394385 1.995 -0.399385
48.0 2.344932 1.955 -0.389932
48.7265625 2.381347 1.959809 -0.421538
49.4765625 2.5074259999999997 2.130759 -0.376667
50.23828125 2.3653560000000002 2.024985 -0.340371
51.0859375 2.3199289999999997 2.019948 -0.299981
51.9296875 2.3001970000000003 1.946719 -0.353478
52.74609375 2.384731 1.93976 -0.444971
53.53125 2.2296810000000002 1.8 -0.429681
54.28515625 2.321998 1.874137 -0.447861
55.078125 2.239839 1.808237 -0.431602
55.8828125 2.236006 1.78735 -0.448656
56.6953125 2.303874 1.814246 -0.489628
57.5234375 2.216592 1.800598 -0.415994
58.37109375 2.285501 1.857445 -0.428056
59.13671875 2.220087 1.758837 -0.46125
59.859375 2.146262 1.66263 -0.483632
60.58203125 2.319551 1.877814 -0.441737
61.328125 2.295563 1.866119 -0.429444
62.15234375 2.158174 1.875 -0.283174
63.0 2.237607 1.93 -0.307607
63.828125 2.149855 1.838157 -0.311698
64.61328125 2.226066 1.9404 -0.285666
65.375 2.367691 2.1 -0.267691
66.09375 2.410495 2.00611 -0.404385
66.79296875 2.4651549999999998 2.081657 -0.383498
67.5390625 2.430369 2.094489 -0.33588
68.30859375 2.583015 2.206673 -0.376342
69.16015625 2.452517 2.157517 -0.295
70.171875 2.507755 2.107142 -0.400613
70.95703125 2.509467 1.866733 -0.642734
71.69140625 2.225326 1.84 -0.385326
72.44921875 2.135382 1.821748 -0.313634
73.1875 2.029183 1.744062 -0.285121
73.94140625 1.9486899999999998 1.746595 -0.202095
74.7265625 1.848904 1.695843 -0.153061
75.53515625 2.019585 1.632439 -0.387146
76.37890625 1.9298259999999998 1.561076 -0.36875
77.1640625 1.819813 1.324813 -0.495
77.875 2.135386 1.52 -0.615386
78.30859375 1.6586880000000002 0.739784 -0.918904
79.375 2.5138860000000003 1.735 -0.778886
80.16015625 2.368939 1.566811 -0.802128
80.765625 1.5774180000000002 0.493162 -1.084256
81.765625 2.308019 1.793945 -0.514074
82.54296875 2.115984 1.640464 -0.47552
82.9609375 3.294782 0.979782 -2.315
83.984375 2.1345169999999998 1.595877 -0.53864
84.6640625 2.21471 1.75971 -0.455
85.12109375 1.9331429999999998 0.943143 -0.99
86.12109375 2.270119 1.82 -0.450119
86.921875 1.8730600000000002 1.528407 -0.344653
87.45703125 1.930231 0.958442 -0.971789
88.45703125 2.306696 1.846847 -0.459849
89.1484375 2.351306 1.929289 -0.422017
89.81640625 1.946634 1.474892 -0.471742
90.46875 2.19303 1.76596 -0.42707
91.1484375 2.302795 1.919659 -0.383136
91.859375 2.357263 1.972396 -0.384867
92.578125 2.436908 1.958991 -0.477917
93.15234375 2.129146 0.364146 -1.765
94.328125 2.464342 2.129342 -0.335
95.05078125 2.1644919999999996 2.009492 -0.155
95.77734375 2.261168 2.059859 -0.201309
96.50390625 2.1905799999999997 1.891065 -0.299515
97.28125 2.2024790000000003 1.94785 -0.254629
98.0703125 2.263627 2.026596 -0.237031
98.875 2.2929370000000002 2.08 -0.212937
99.66015625 2.178232 1.987817 -0.190415
100.4765625 1.990351 1.853945 -0.136406
101.25390625 1.936223 1.786278 -0.149945
101.98828125 2.145843 1.901837 -0.244006
102.70703125 1.939987 1.691852 -0.248135
103.4375 2.104435 1.785781 -0.318654
104.23046875 2.104189 1.814906 -0.289283
105.03515625 2.209571 1.872515 -0.337056
105.8203125 2.222363 1.829079 -0.393284
106.5546875 2.167241 1.801662 -0.365579
107.30078125 2.295442 1.917186 -0.378256
107.98828125 2.339066 1.994178 -0.344888
108.68359375 2.434459 2.07443 -0.360029
109.3984375 2.235169 1.865169 -0.37
110.14453125 2.292588 1.919981 -0.372607
110.9375 2.172169 2.020857 -0.151312
111.796875 2.147352 2.003645 -0.143707
112.21875 3.1988380000000003 1.269044 -1.929794
113.375 2.2906619999999998 1.89 -0.400662
114.12109375 2.223053 1.893153 -0.3299
114.8984375 2.2114570000000002 1.984631 -0.226826
115.6796875 2.25167 1.981455 -0.270215
116.46875 2.114613 1.934987 -0.179626
117.3203125 2.221128 1.910716 -0.310412
117.74609375 3.070848 1.253919 -1.816929
119.07421875 2.282202 1.934511 -0.347691
119.83203125 2.173418 1.843824 -0.329594
120.58203125 2.24401 1.966735 -0.277275
121.41796875 2.1680479999999998 1.928048 -0.24
122.2421875 2.140933 1.923374 -0.217559
123.08984375 2.077445 1.882764 -0.194681
123.95703125 2.0913749999999998 1.828469 -0.262906
124.38671875 3.1601420000000005 1.074162 -2.08598
125.59765625 2.330309 1.844864 -0.485445
126.34765625 2.269586 1.79971 -0.469876
127.11328125 2.3367679999999997 1.899714 -0.437054
127.4921875 3.196429 1.146493 -2.049936
128.8125 2.321402 1.960446 -0.360956
129.671875 2.1902340000000002 1.874222 -0.316012
130.51953125 2.2749099999999998 1.83991 -0.435
130.92578125 3.343769 1.134186 -2.209583
132.046875 2.423926 1.890034 -0.533892
132.80078125 2.232671 1.769011 -0.46366
133.5703125 2.4062989999999997 1.942645 -0.463654
134.3515625 2.352748 1.933373 -0.419375
135.16015625 2.378438 1.964213 -0.414225
136.0390625 2.359785 1.909785 -0.45
136.8203125 2.292981 1.869423 -0.423558
137.5234375 2.184708 1.815 -0.369708
138.20703125 2.205139 1.827717 -0.377422
138.9375 2.3627469999999997 2.0216 -0.341147
139.6875 2.027873 1.798045 -0.229828
140.5078125 2.2231430000000003 2.043578 -0.179565
141.33984375 2.231583 1.963992 -0.267591
142.16015625 2.225 1.97 -0.255
142.98046875 2.196545 1.979983 -0.216562
143.375 3.397931 1.345 -2.052931
144.4765625 2.4333660000000004 2.118815 -0.314551
145.20703125 2.311289 2.11 -0.201289
145.9375 2.2197430000000002 2.045941 -0.173802
146.73828125 2.245193 2.099148 -0.146045
147.54296875 2.3388899999999997 2.14389 -0.195
148.1875 1.747415 0.44793 -1.299485
149.078125 2.2377409999999998 2.079531 -0.15821
149.79296875 2.256329 2.146942 -0.109387
150.51953125 2.3590459999999998 2.144516 -0.21453
151.21875 2.14115 2.025 -0.11615
151.96875 2.211962 2.0175 -0.194462
152.75 2.099873 1.94 -0.159873
153.5625 2.047909 1.955125 -0.092784
154.39453125 2.3665130000000003 2.124931 -0.241582
155.1953125 2.328767 2.111892 -0.216875
155.5546875 3.051498 1.253725 -1.797773
156.76171875 2.118184 2.098664 -0.01952
157.5625 2.036536 2.013676 -0.02286
158.140625 2.161585 0.169085 -1.9925
159.2890625 2.326018 2.049732 -0.276286
160.11328125 2.211573 1.904095 -0.307478
160.9375 2.3691009999999997 2.05413 -0.314971
161.3359375 3.428496 1.36988 -2.058616
161.79296875 2.898864 1.59 -1.308864
163.05078125 2.281076 2.086482 -0.194594
163.86328125 2.1936 2.043654 -0.149946
164.6796875 2.132153 1.974785 -0.157368
165.46875 2.156339 2.017537 -0.138802
166.26953125 2.257907 2.029919 -0.227988
167.01953125 2.379986 2.039994 -0.339992
167.7578125 2.248735 2.025477 -0.223258
168.49609375 2.4342249999999996 2.078327 -0.355898
168.97265625 2.9184620000000003 2.370328 -0.548134
170.10546875 2.396641 2.079974 -0.316667
170.95703125 2.148117 1.930945 -0.217172
171.83984375 2.132369 1.904509 -0.22786
172.49609375 2.8620609999999997 1.646676 -1.215385
173.48046875 2.18494 1.80994 -0.375
174.2265625 2.237053 1.884348 -0.352705
174.7421875 2.4857310000000004 0.394798 -2.090933
175.82421875 2.358154 1.874154 -0.484
176.61328125 2.37907 1.931536 -0.447534
177.4765625 2.1672979999999997 1.904003 -0.263295
178.34375 2.116863 1.841604 -0.275259
179.1328125 2.173361 1.818456 -0.354905
179.90234375 2.343702 1.943702 -0.4
180.66015625 2.346083 1.897888 -0.448195
181.47265625 2.401614 1.999347 -0.402267
182.328125 2.274635 1.908011 -0.366624
183.1953125 2.150474 1.911626 -0.238848
184.10546875 2.209984 1.879984 -0.33
184.98046875 2.154449 1.831104 -0.323345
185.7734375 2.054202 1.65925 -0.394952
186.53515625 1.933844 1.537756 -0.396088
187.3203125 1.715006 1.36447 -0.350536
187.7265625 2.606528 0.911674 -1.694854
189.05859375 1.992805 1.584773 -0.408032
189.90625 2.084276 1.744276 -0.34
190.70703125 2.063129 1.808207 -0.254922
191.4921875 2.192065 1.883183 -0.308882
192.22265625 2.325483 1.871348 -0.454135
192.609375 3.225539 1.250885 -1.974654
193.69921875 2.325179 2.029019 -0.29616
194.47265625 2.3194239999999997 2.089368 -0.230056
195.265625 2.167705 1.859609 -0.308096
196.06640625 2.2138039999999997 1.799265 -0.414539
196.8125 2.345109 1.961371 -0.383738
197.51171875 2.592515 2.014603 -0.577912
198.203125 2.4758609999999996 2.174914 -0.300947
198.65234375 1.600055 0.876251 -0.723804
199.6171875 2.141479 1.884604 -0.256875
200.33203125 2.442508 2.286266 -0.156242
201.08203125 2.1669910000000003 2.10347 -0.063521
201.8359375 2.4345969999999997 2.224954 -0.209643
202.5703125 2.3013570000000003 2.137306 -0.164051
203.046875 1.9475850000000001 1.721559 -0.226026
203.921875 2.310328 2.089242 -0.221086
204.5703125 2.203112 2.007211 -0.195901
205.2734375 2.2333119999999997 1.983976 -0.249336
205.96484375 2.039583 1.845 -0.194583
206.69140625 2.351432 2.097424 -0.254008
207.39453125 2.2979410000000002 2.129929 -0.168012
208.125 2.2248859999999997 1.94 -0.284886
208.81640625 1.547831 1.369593 -0.178238
209.5078125 1.476955 1.189681 -0.287274
212.05078125 1.9301709999999999 1.569138 -0.361033
213.21484375 1.6181780000000001 1.404948 -0.21323
214.0234375 1.445331 1.207655 -0.237676
214.83984375 1.521077 1.226077 -0.295
215.60546875 1.553711 1.185542 -0.368169
216.3515625 1.798861 1.515483 -0.283378
217.1015625 1.539771 1.226272 -0.313499
217.66796875 1.133834 -0.040047 -1.173881
218.6640625 1.030599 0.699916 -0.330683
219.51953125 1.644043 1.309941 -0.334102
220.35546875 1.9978850000000001 1.709975 -0.28791
220.83984375 3.128301 2.412267 -0.716034
221.8515625 2.4000280000000003 2.01236 -0.387668
222.55859375 2.36679 2.015857 -0.350933
223.33203125 2.474173 2.119926 -0.354247
224.11328125 2.238629 1.878629 -0.36
224.51953125 3.422446 1.404946 -2.0175
225.72265625 2.3346810000000002 1.944681 -0.39
226.5546875 2.3278570000000003 2.019451 -0.308406
227.31640625 2.2689880000000002 1.934295 -0.334693
228.03125 2.344063 1.971806 -0.372257
228.74609375 2.321173 2.041173 -0.28
229.1484375 3.4264659999999996 1.421155 -2.005311
230.296875 2.265768 2.058427 -0.207341
231.13671875 2.161287 1.939114 -0.222173
231.953125 2.328347 2.024798 -0.303549
232.7265625 2.274607 1.921482 -0.353125
233.5 2.24 1.85 -0.39
234.23828125 2.276858 1.836982 -0.439876
234.98828125 2.425202 1.9919 -0.433302
235.7578125 2.327772 1.978151 -0.349621
236.58203125 2.335294 2.0002 -0.335094
237.453125 2.2251719999999997 1.963229 -0.261943
238.35546875 2.2927720000000003 2.024988 -0.267784
239.171875 2.340861 1.964915 -0.375946
239.5546875 3.1566199999999998 1.12662 -2.03
240.02734375 2.598852 0.364672 -2.23418
241.453125 2.330035 1.87693 -0.453105
242.26953125 2.480083 1.994966 -0.485117
243.08984375 2.0406969999999998 1.51 -0.530697
243.90234375 2.0619359999999998 1.70345 -0.358486
244.71875 1.822367 1.573142 -0.249225
245.4921875 1.752302 1.413318 -0.338984
246.23046875 1.7394910000000001 1.404994 -0.334497
246.95703125 1.556852 1.261852 -0.295
247.76171875 1.582932 1.289734 -0.293198
248.5703125 1.601522 1.263874 -0.337648
249.37890625 1.6788370000000001 1.334302 -0.344535
250.171875 1.594811 1.359693 -0.235118
250.94140625 1.618144 1.325 -0.293144
251.66015625 1.621057 1.337959 -0.283098
252.37890625 1.704638 1.374894 -0.329744
253.07421875 1.814928 1.494083 -0.320845
253.46875 3.0014459999999996 1.122121 -1.879325
254.5234375 1.654666 1.328971 -0.325695
255.31640625 1.808292 1.484181 -0.324111
255.73046875 2.934687 1.059921 -1.874766
256.8125 1.881748 1.523571 -0.358177
257.50390625 1.8732360000000001 1.531236 -0.342
257.87109375 2.938634 1.174326 -1.764308
258.88671875 1.782007 1.48474 -0.297267
259.62109375 1.753363 1.477992 -0.275371
260.02734375 2.999092 1.129664 -1.869428
261.19140625 1.905463 1.544622 -0.360841
262.046875 1.7357850000000001 1.466066 -0.269719
262.875 1.839902 1.575 -0.264902
263.60546875 1.875718 1.54634 -0.329378
264.34765625 1.842361 1.522608 -0.319753
265.09765625 1.8149359999999999 1.567794 -0.247142
265.9140625 1.852694 1.665551 -0.187143
266.78125 1.8001880000000001 1.59007 -0.210118
267.640625 1.871272 1.670237 -0.201035
268.0703125 3.184692 1.512531 -1.672161
269.37109375 1.921161 1.711498 -0.209663
270.15625 1.836109 1.653917 -0.182192
270.9453125 1.8702839999999998 1.638272 -0.232012
271.4140625 1.579837 1.329837 -0.25
272.6875 1.911861 1.741875 -0.169986
273.58203125 2.0638520000000002 1.867053 -0.196799
274.453125 1.952501 1.799495 -0.153006
275.2578125 1.977798 1.789806 -0.187992
275.65625 3.01006 1.412094 -1.597966
276.85546875 2.362977 2.124968 -0.238009
277.640625 2.11354 1.912768 -0.200772
278.4609375 2.315696 2.129732 -0.185964
279.296875 2.279081 2.196012 -0.083069
280.1875 2.245619 2.19 -0.055619
281.01171875 2.4890250000000003 2.22277 -0.266255
281.78515625 2.4201059999999996 2.205106 -0.215
282.57421875 2.3071770000000003 2.053951 -0.253226
283.39453125 2.439842 2.214878 -0.224964
284.2265625 2.3123940000000003 2.146485 -0.165909
285.0703125 2.148097 2.019483 -0.128614
285.921875 2.088947 1.94423 -0.144717
286.78515625 2.05358 1.898855 -0.154725
287.5703125 2.254125 2.008044 -0.246081
288.28515625 2.3007310000000003 2.064808 -0.235923
289.02734375 2.216598 1.94 -0.276598
289.83984375 2.144758 1.879375 -0.265383
290.65234375 2.2414620000000003 2.007137 -0.234325
291.5 2.208008 1.905 -0.303008
292.34765625 2.117039 1.819192 -0.297847
293.13671875 2.178566 1.891822 -0.286744
293.93359375 2.309552 1.994566 -0.314986
294.71875 2.203631 1.879903 -0.323728
295.5078125 2.388022 2.066804 -0.321218
295.99609375 1.888481 1.244319 -0.644162
296.5234375 1.973337 0.438337 -1.535
298.07421875 2.359147 2.056387 -0.30276
298.91796875 2.206339 1.759938 -0.446401
300.453125 2.214416 1.809628 -0.404788
301.2421875 2.165768 1.818764 -0.347004
301.99609375 2.007856 1.68052 -0.327336
302.765625 2.002577 1.704187 -0.29839
303.578125 2.012387 1.758305 -0.254082
304.40234375 2.209556 1.90833 -0.301226
305.16015625 2.321565 1.927754 -0.393811
305.8515625 2.269677 1.935378 -0.334299
306.578125 2.24657 1.909916 -0.336654
307.328125 2.156046 1.824566 -0.33148
308.14453125 2.17868 1.929986 -0.248694
309.00390625 2.158474 1.898162 -0.260312
309.84765625 2.221525 1.88971 -0.331815
310.7265625 2.239173 1.918135 -0.321038
311.55078125 2.276116 1.916929 -0.359187
312.31640625 2.265122 1.938904 -0.326218
312.7109375 3.1586410000000003 1.25 -1.908641
314.02734375 2.289489 2.02971 -0.259779
315.51171875 1.9133259999999999 1.894272 -0.019054
316.87890625 2.232948 1.886096 -0.346852
317.66796875 2.264701 1.974701 -0.29
318.46484375 2.280657 1.965657 -0.315
319.31640625 2.273358 1.939701 -0.333657
320.2109375 2.196257 1.934911 -0.261346
320.609375 3.1598110000000004 1.199985 -1.959826
321.9296875 2.325532 1.96 -0.365532
322.76953125 2.164939 1.844939 -0.32
323.56640625 2.300638 1.904568 -0.39607
323.94921875 3.32029 1.324567 -1.995723
325.078125 2.226233 1.854813 -0.37142
325.86328125 2.121972 1.908444 -0.213528
326.70703125 2.225006 2.053795 -0.171211
327.52734375 2.386817 1.973732 -0.413085
328.31640625 2.246781 1.934542 -0.312239
329.10546875 2.297318 1.904916 -0.392402
329.875 2.225 1.8 -0.425
330.625 2.3037579999999998 1.88 -0.423758
331.3984375 2.225642 1.890585 -0.335057
331.87890625 3.029591 2.381544 -0.648047
333.0546875 2.304059 2.075 -0.229059
333.91015625 2.3279330000000003 2.094361 -0.233572
334.74609375 2.454943 2.074967 -0.379976
335.4921875 2.4602910000000002 2.119381 -0.34091
336.24609375 2.578509 2.208118 -0.370391
337.01171875 2.415152 2.000138 -0.415014
337.81640625 2.296737 1.944581 -0.352156
338.640625 2.245336 1.932531 -0.312805
339.46484375 2.23839 1.92435 -0.31404
340.33984375 2.2121370000000002 1.982137 -0.23
341.1796875 2.232815 1.842473 -0.390342
341.94140625 2.2542869999999997 1.894893 -0.359394
342.3203125 3.016709 0.950071 -2.066638
342.90234375 0.910151 -0.939107 -1.849258
343.12890625 3.7295730000000002 1.377566 -2.352007
344.64453125 2.124071 1.769994 -0.354077
345.49609375 2.04702 1.721517 -0.325503
346.31640625 2.253733 1.869836 -0.383897
347.1015625 2.240936 1.805936 -0.435
347.84375 2.327102 1.905 -0.422102
348.29296875 1.9435289999999998 1.438529 -0.505
349.30078125 2.117518 1.711015 -0.406503
350.0703125 1.959736 1.608403 -0.351333
350.63671875 1.722353 1.315 -0.407353
351.703125 1.866828 1.489689 -0.377139
352.5 1.8440919999999998 1.47 -0.374092
352.984375 1.701551 1.118301 -0.58325
353.9609375 2.3220490000000003 1.79984 -0.522209
354.6796875 2.1400829999999997 1.657538 -0.482545
355.41015625 2.065172 1.642978 -0.422194
356.12890625 2.146994 1.835672 -0.311322
356.89453125 2.163924 1.86 -0.303924
357.66015625 2.096195 1.811328 -0.284867
358.18359375 1.614757 0.864757 -0.75
359.26171875 2.223141 1.795 -0.428141
359.9609375 2.088078 1.679768 -0.40831
360.3203125 3.1383590000000003 1.153901 -1.984458
361.47265625 2.202168 1.905 -0.297168
362.26953125 1.943961 1.679897 -0.264064
363.0859375 2.168885 1.889801 -0.279084
363.890625 2.081938 1.94983 -0.132108
364.69921875 2.186324 1.929564 -0.25676
365.48828125 1.9878209999999998 1.82974 -0.158081
366.26953125 2.259916 1.964943 -0.294973
367.04296875 2.144758 1.906884 -0.237874
367.8359375 2.067862 1.889659 -0.178203
368.7578125 2.1067009999999997 2.021104 -0.085597
369.6875 2.182115 2.072115 -0.11
370.56640625 2.151953 2.024886 -0.127067
371.3984375 2.390793 2.171652 -0.219141
372.18359375 2.765156 2.289899 -0.475257
372.57421875 3.6782570000000003 1.733257 -1.945
373.91015625 2.159092 2.015513 -0.143579
374.77734375 1.6083839999999998 1.491785 -0.116599
375.74609375 1.913745 1.594482 -0.319263
376.640625 2.091806 1.944255 -0.147551
377.421875 2.064585 1.895 -0.169585
378.16796875 2.324138 2.078215 -0.245923
378.90625 2.183127 1.984353 -0.198774
379.671875 2.20904 2.008958 -0.200082
380.453125 2.384272 2.184272 -0.2
381.25 2.289499 2.015 -0.274499
382.04296875 2.399559 2.125476 -0.274083
382.8671875 2.289094 1.982848 -0.306246
383.6015625 2.340905 1.992311 -0.348594
384.29296875 2.2650309999999996 2.017533 -0.247498
385.01953125 2.200347 1.90986 -0.290487
385.76953125 2.11555 1.86055 -0.255
386.609375 2.10857 1.86357 -0.245
387.4765625 2.114059 1.841559 -0.2725
388.33203125 2.204947 1.824265 -0.380682
389.1640625 2.198566 1.803566 -0.395
389.9765625 2.293624 1.849734 -0.44389
390.3671875 3.212751 1.227948 -1.984803
391.59375 2.263153 1.870455 -0.392698
392.4453125 2.108387 1.824703 -0.283684
393.35546875 2.2161709999999997 2.014906 -0.201265
393.9296875 2.817872 1.317672 -1.5002
395.14453125 2.604365 2.289958 -0.314407
395.96875 2.413928 2.095608 -0.31832
396.7734375 2.6224819999999998 2.343908 -0.278574
397.59765625 2.588264 2.305613 -0.282651
398.44140625 2.504018 2.244951 -0.259067
399.3125 2.657972 2.357049 -0.300923
400.22265625 2.458733 2.248857 -0.209876
401.109375 2.622159 2.310885 -0.311274
401.8984375 2.59088 2.266749 -0.324131
402.27734375 4.157446 1.952446 -2.205
403.57421875 2.6409190000000002 2.234553 -0.406366
404.4453125 2.439475 2.081759 -0.357716
405.32421875 2.476893 2.088858 -0.388035
406.19140625 2.483298 2.079614 -0.403684
407.0234375 2.405505 2.013264 -0.392241
407.828125 2.585103 2.168737 -0.416366
408.58203125 2.385456 2.000906 -0.38455
409.3671875 2.357902 1.9682 -0.389702
409.91796875 2.787819 0.449169 -2.33865
411.15234375 2.4223190000000003 2.055 -0.367319
412.02734375 2.546905 2.16 -0.386905
412.84765625 2.480064 2.132634 -0.34743
413.28125 3.775371 1.695918 -2.079453
414.3984375 2.695351 2.336266 -0.359085
415.1953125 2.484641 2.119172 -0.365469
415.9765625 2.698209 2.325389 -0.37282
416.78515625 2.500827 2.228136 -0.272691
417.6796875 2.468235 2.240364 -0.227871
418.55078125 2.493024 2.218004 -0.27502
419.3515625 2.397736 2.097899 -0.299837
420.14453125 2.5595540000000003 2.23992 -0.319634
420.9453125 2.3799580000000002 2.125776 -0.254182
421.80078125 2.424293 2.162007 -0.262286
422.68359375 2.518219 2.163844 -0.354375
423.5234375 2.432204 2.214449 -0.217755
424.4140625 2.163318 1.774897 -0.388421
425.2421875 2.11683 1.777169 -0.339661
425.6484375 3.788457 1.668457 -2.12
426.78125 2.059724 1.609194 -0.45053
427.578125 1.93707 1.58207 -0.355
428.39453125 1.964928 1.629953 -0.334975
429.25 1.792656 1.49 -0.302656
430.0703125 1.9348770000000002 1.618832 -0.316045
430.8359375 2.079969 1.650578 -0.429391
431.56640625 2.113585 1.759714 -0.353871
432.2734375 2.074924 1.677102 -0.397822
432.96875 2.341498 1.934672 -0.406826
433.43359375 3.248214 2.469718 -0.778496
434.3671875 2.2169600000000003 1.903151 -0.313809
435.08984375 2.13162 1.785241 -0.346379
435.85546875 2.084617 1.764864 -0.319753
436.63671875 2.185963 1.824745 -0.361218
437.35546875 2.1493729999999998 1.774857 -0.374516
438.046875 2.2111039999999997 1.901104 -0.31
438.78515625 2.057531 1.863081 -0.19445
439.5703125 2.106514 1.87 -0.236514
440.3828125 1.985918 1.741052 -0.244866
441.234375 2.004347 1.707586 -0.296761
442.1015625 1.969383 1.686623 -0.28276
442.9609375 2.0634639999999997 1.749977 -0.313487
443.37109375 3.547974 1.627974 -1.92
444.578125 2.13143 1.734075 -0.397355
445.3984375 2.004444 1.745517 -0.258927
446.28515625 2.094809 1.799809 -0.295
446.7890625 1.8098130000000001 1.424813 -0.385
448.03515625 2.052733 1.75 -0.302733
448.87109375 1.996221 1.713252 -0.282969
449.6484375 2.130677 1.865693 -0.264984
450.38671875 2.664656 2.349142 -0.315514
451.1171875 2.551465 2.269603 -0.281862
451.8671875 2.455012 2.147051 -0.307961
452.421875 3.141052 2.516052 -0.625
453.62109375 2.246373 1.998088 -0.248285
454.5078125 2.0446940000000002 1.72235 -0.322344
455.34765625 2.023845 1.703845 -0.32
456.14453125 2.0698429999999997 1.714843 -0.355
456.9375 2.172253 1.907634 -0.264619
457.78125 2.141158 1.861786 -0.279372
458.2109375 3.545434 1.634778 -1.910656
459.4765625 2.228705 1.956542 -0.272163
460.390625 2.188941 1.903066 -0.285875
461.203125 2.278651 1.909075 -0.369576
461.9296875 2.22315 1.846207 -0.376943
462.66015625 2.350789 1.92291 -0.427879
463.109375 1.980956 1.375801 -0.605155
464.25 2.309964 1.98 -0.329964
465.1171875 2.139414 1.828898 -0.310516
465.9375 2.409752 2.082882 -0.32687
466.765625 1.922861 1.49 -0.432861
467.52734375 2.095171 1.766329 -0.328842
468.265625 1.982306 1.640386 -0.34192
468.8046875 2.0510080000000004 -0.373982 -2.42499
469.7890625 1.8898249999999999 1.469825 -0.42
470.59375 1.843003 1.520455 -0.322548
471.42578125 1.911457 1.626896 -0.284561
472.2265625 2.080789 1.755789 -0.325
472.96875 2.125776 1.757476 -0.3683
473.6875 2.244732 1.853725 -0.391007
474.3828125 2.360664 2.053397 -0.307267
475.09765625 2.299076 2.01109 -0.287986
475.81640625 2.289519 2.064562 -0.224957
476.3359375 3.180207 2.574851 -0.605356
477.35546875 2.316467 2.064942 -0.251525
478.16796875 2.121359 1.876359 -0.245
478.9609375 2.274468 1.894825 -0.379643
479.68359375 2.376474 1.988793 -0.387681
480.0546875 3.6187259999999997 1.488882 -2.129844
481.1953125 2.384474 1.924474 -0.46
481.96875 2.18849 1.787121 -0.401369
482.7734375 2.23759 1.8239 -0.41369
483.609375 2.275444 1.873422 -0.402022
484.4453125 2.214717 1.853217 -0.3615
485.25390625 2.226979 1.866846 -0.360133
486.015625 2.255886 1.81714 -0.438746
486.75 2.293668 1.93 -0.363668
487.56640625 2.246608 1.929171 -0.317437
488.44921875 2.272428 1.920581 -0.351847
489.33984375 2.367157 1.939108 -0.428049
490.19921875 2.247344 1.917344 -0.33
491.07421875 2.533639 2.112963 -0.420676
491.88671875 2.6116159999999997 2.184443 -0.427173
492.70703125 2.46208 2.002996 -0.459084
493.55078125 2.456324 2.036324 -0.42
494.4140625 2.3133049999999997 2.039805 -0.2735
494.875 3.652672 1.465 -2.187672
496.265625 2.5401689999999997 2.096055 -0.444114
496.82421875 3.35963 1.624652 -1.734978
497.86328125 2.502596 2.008813 -0.493783
498.61328125 2.555554 1.9918 -0.563754
499.38671875 2.490315 1.956497 -0.533818
500.1640625 2.343865 1.824813 -0.519052
500.953125 2.386895 1.999162 -0.387733
501.77734375 2.431025 2.083496 -0.347529
502.59375 2.039567 1.648003 -0.391564
503.359375 2.145556 1.805305 -0.340251
503.74609375 3.1172380000000004 1.329398 -1.78784
504.80859375 2.3227919999999997 1.769108 -0.553684
505.5703125 2.213587 1.770071 -0.443516
506.36328125 2.215853 1.687892 -0.527961
507.14453125 2.05481 1.614931 -0.439879
507.90234375 2.0632960000000002 1.658856 -0.40444
508.6796875 1.974051 1.524422 -0.449629
509.40625 2.257936 1.712936 -0.545
510.09765625 2.282681 1.734553 -0.548128
510.76171875 2.1643310000000002 1.614003 -0.550328
511.2421875 3.032367 2.224151 -0.808216
512.1953125 2.168879 1.746973 -0.421906
512.96875 1.968349 1.629664 -0.338685
513.73046875 2.062127 1.669957 -0.39217
514.47265625 2.397864 1.964428 -0.433436
515.1796875 2.233626 1.788143 -0.445483
515.890625 2.302204 1.812363 -0.489841
516.57421875 2.165111 1.696279 -0.468832
517.30078125 2.242851 1.741425 -0.501426
518.0703125 2.012269 1.567675 -0.444594
518.87890625 1.9705979999999998 1.56486 -0.405738
519.7421875 1.932754 1.564553 -0.368201
520.6171875 1.964689 1.533725 -0.430964
521.390625 2.087557 1.663729 -0.423828
522.12890625 1.88912 1.54412 -0.345
522.90625 1.829449 1.521012 -0.308437
523.671875 1.9044780000000001 1.624478 -0.28
524.453125 1.907133 1.616092 -0.291041
525.24609375 1.835868 1.541096 -0.294772
526.03515625 1.860118 1.567046 -0.293072
526.80859375 1.964745 1.654777 -0.309968
527.5546875 2.248815 1.901865 -0.34695
528.234375 2.097058 1.814761 -0.282297
528.671875 1.7757159999999999 1.338064 -0.437652
529.65234375 2.3769460000000002 2.174347 -0.202599
530.4375 2.196057 1.998687 -0.19737
531.22265625 2.180355 1.97726 -0.203095
531.98828125 2.317239 2.086865 -0.230374
532.7421875 2.3680689999999998 2.206206 -0.161863
533.19140625 1.962641 1.629096 -0.333545
534.171875 2.566628 2.254194 -0.312434
534.8828125 2.420123 2.106295 -0.313828
535.62109375 2.405522 2.091199 -0.314323
536.37109375 2.4295129999999996 2.185535 -0.243978
537.20703125 2.463825 2.346296 -0.117529
537.7109375 2.163015 1.699812 -0.463203
538.85546875 2.441653 2.189986 -0.251667
539.6015625 2.457667 2.187731 -0.269936
540.34375 2.518735 2.279716 -0.239019
541.11328125 2.439378 2.186076 -0.253302
541.91796875 2.549399 2.246204 -0.303195
542.40234375 1.8872719999999998 1.223569 -0.663703
543.53515625 2.2916640000000004 2.064859 -0.226805
544.4140625 2.3312999999999997 2.07556 -0.25574
544.92578125 1.9498199999999999 1.251679 -0.698141
545.9296875 2.3344 2.029429 -0.304971
546.65625 2.2774229999999998 2.004062 -0.273361
547.13671875 2.025616 1.558616 -0.467
548.17578125 2.4697630000000004 2.17451 -0.295253
548.96484375 2.21635 1.79212 -0.42423
549.4921875 2.252879 1.803068 -0.449811
550.5 2.109976 1.82 -0.289976
551.2578125 2.091842 1.801295 -0.290547
551.953125 2.114686 1.77911 -0.335576
552.625 2.044035 1.655 -0.389035
553.3203125 2.017824 1.657824 -0.36
553.8046875 1.845337 1.345343 -0.499994
554.79296875 2.305316 1.863519 -0.441797
555.57421875 2.245849 1.829002 -0.416847
556.3203125 2.419481 1.893199 -0.526282
557.01171875 2.467834 1.936649 -0.531185
557.6796875 2.35112 1.889243 -0.461877
558.1484375 1.8927770000000002 1.293431 -0.599346
559.07421875 2.557941 2.135662 -0.422279
559.7578125 2.293627 1.936114 -0.357513
560.4921875 2.385492 2.058675 -0.326817
561.23046875 2.720531 2.304836 -0.415695
562.015625 2.562214 2.147793 -0.414421
562.546875 2.218772 1.633789 -0.584983
563.51171875 2.625623 2.108458 -0.517165
564.19140625 2.36916 1.88916 -0.48
564.57421875 3.906 1.519438 -2.386562
565.703125 2.325 1.825 -0.5
566.4921875 2.165311 1.739456 -0.425855
567.29296875 2.223855 1.881065 -0.34279
568.109375 2.139427 1.940722 -0.198705
568.91796875 2.127378 1.977378 -0.15
569.6640625 2.074562 1.984562 -0.09
570.375 2.145738 2.145 -7.38E-4
571.0859375 1.987746 2.049674 0.061928
571.86328125 1.9348360000000002 2.009863 0.075027
572.69140625 1.8468799999999999 1.914154 0.067274
573.53125 1.921204 1.906768 -0.014436
574.3125 1.8435620000000001 1.834259 -0.009303
575.0625 1.9002729999999999 1.873711 -0.026562
575.765625 1.991701 1.926491 -0.06521
576.46484375 1.87904 1.828424 -0.050616
577.15234375 1.9504759999999999 1.877711 -0.072765
577.84765625 1.975746 1.868951 -0.106795
578.59375 1.886225 1.862801 -0.023424
579.390625 1.886427 1.862292 -0.024135
580.16015625 1.8809820000000002 1.847854 -0.033128
580.86328125 1.961849 1.901878 -0.059971
581.53125 2.106129 1.904167 -0.201962
582.171875 1.980347 1.764267 -0.21608
582.84375 2.0233499999999998 1.842039 -0.181311
583.57421875 2.112146 1.911092 -0.201054
584.29296875 2.078562 1.948855 -0.129707
585.0234375 2.184183 2.022899 -0.161284
585.81640625 2.2563519999999997 2.16483 -0.091522
586.625 2.229578 2.09 -0.139578
587.36328125 2.4265619999999997 2.20821 -0.218352
588.046875 2.590936 2.337707 -0.253229
588.77734375 2.662812 2.380253 -0.282559
589.51953125 2.859839 2.584902 -0.274937
589.98828125 2.411028 1.78277 -0.628258
591.18359375 2.970789 2.654888 -0.315901
591.96875 2.9042689999999998 2.585771 -0.318498
592.8125 2.709234 2.447778 -0.261456
593.5859375 2.9084619999999997 2.489956 -0.418506
594.3125 2.6805339999999998 2.336048 -0.344486
595.0625 2.6730140000000002 2.287167 -0.385847
595.83984375 2.701434 2.352762 -0.348672
596.6796875 2.421453 2.172572 -0.248881
597.546875 2.5390219999999997 2.194663 -0.344359
598.3671875 2.53439 2.236951 -0.297439
599.140625 2.4241729999999997 2.070868 -0.353305
599.9140625 2.524894 2.239894 -0.285
600.67578125 2.387886 2.104725 -0.283161
601.43359375 2.6101639999999997 2.219292 -0.390872
602.21875 2.541404 2.2271 -0.314304
603.03515625 2.556649 2.208663 -0.347986
603.86328125 2.622009 2.356635 -0.265374
604.703125 2.579921 2.183828 -0.396093
605.46484375 2.66824 2.204859 -0.463381
606.1875 2.492627 2.08617 -0.406457
606.97265625 2.435931 2.03402 -0.401911
607.53125 3.102535 1.311133 -1.791402
608.578125 2.4739459999999998 2.149317 -0.324629
609.3984375 2.323906 1.9661 -0.357806
610.2109375 2.4447829999999997 2.09 -0.354783
611.0234375 2.3963479999999997 2.002369 -0.393979
611.7734375 2.532817 2.052817 -0.48
612.50390625 2.419203 1.956 -0.463203
613.26953125 2.398964 1.979911 -0.419053
614.10546875 2.40908 2.049988 -0.359092
614.96875 2.307549 1.967928 -0.339621
615.796875 2.347659 1.998953 -0.348706
616.65625 2.273372 1.896145 -0.377227
617.46484375 2.334769 1.9672 -0.367569
618.25390625 2.355422 2.036831 -0.318591
619.046875 2.324317 1.999317 -0.325
619.85546875 2.322925 1.93992 -0.383005
620.734375 2.244129 1.930264 -0.313865
621.1875 3.195315 1.114 -2.081315
622.55078125 2.472993 2.044083 -0.42891
623.375 2.374781 1.905 -0.469781
624.140625 2.527603 2.132617 -0.394986
624.94921875 2.326366 2.015 -0.311366
625.77734375 2.5260819999999997 2.139697 -0.386385
626.19140625 3.588405 1.369789 -2.218616
627.5234375 2.494122 2.098341 -0.395781
628.4296875 2.473612 2.093319 -0.380293
629.25390625 2.531419 2.182684 -0.348735
629.62890625 3.7654940000000003 1.483214 -2.28228
630.8203125 2.793559 2.306528 -0.487031
631.6015625 2.515854 2.177354 -0.3385
632.48046875 2.5102339999999996 2.254901 -0.255333
633.328125 2.6041860000000003 2.274242 -0.329944
634.1953125 2.498145 2.129708 -0.368437
635.05078125 2.552825 2.1736 -0.379225
635.8359375 2.59 2.205 -0.385
636.61328125 2.572238 2.098408 -0.47383
637.3984375 2.536174 2.136503 -0.399671
638.23828125 2.514283 2.153813 -0.36047
639.11328125 2.412194 2.073397 -0.338797
640.0078125 2.510725 2.125725 -0.385
640.859375 2.4836169999999997 2.049126 -0.434491
641.640625 2.557845 2.20377 -0.354075
642.44921875 2.500284 2.103918 -0.396366
642.83203125 3.431347 1.220246 -2.211101
644.0625 2.476496 1.880714 -0.595782
644.91015625 2.352455 1.761165 -0.59129
645.72265625 2.401212 1.872584 -0.528628
646.2265625 2.179941 1.362871 -0.81707
647.375 2.588392 1.93 -0.658392
648.08984375 2.46005 1.874383 -0.585667
648.6171875 1.968073 1.203133 -0.76494
649.63671875 2.615822 1.959743 -0.656079
650.4296875 2.486227 1.869487 -0.61674
650.94140625 2.102823 1.119722 -0.983101
652.0625 2.619693 1.919549 -0.700144
652.83984375 2.5074739999999998 1.86804 -0.639434
653.30859375 2.083951 1.128951 -0.955
654.33203125 2.772987 2.097557 -0.67543
655.0390625 3.029648 1.724648 -1.305
655.49609375 2.070615 1.474099 -0.596516
656.60546875 2.535145 2.024978 -0.510167
657.42578125 2.395426 1.775632 -0.619794
658.22265625 2.259305 1.707352 -0.551953
659.0 2.33 1.77 -0.56
659.71875 2.311115 1.809844 -0.501271
660.44140625 2.249297 1.717516 -0.531781
661.1796875 2.402717 1.808901 -0.593816
661.9140625 2.3395989999999998 1.847138 -0.492461
662.72265625 2.2690669999999997 1.894067 -0.375
663.2734375 3.157405 2.347762 -0.809643
664.4921875 2.516439 2.138345 -0.378094
665.25390625 2.402813 1.979117 -0.423696
666.02734375 2.444751 1.988685 -0.456066
666.78125 2.314058 1.951818 -0.36224
667.60546875 2.378714 1.989981 -0.388733
668.4375 2.219794 1.844857 -0.374937
669.296875 2.244462 1.843311 -0.401151
670.20703125 2.315228 1.969906 -0.345322
671.0859375 2.386539 1.919978 -0.466561
671.88671875 2.276728 1.807056 -0.469672
672.26171875 3.5570250000000003 1.257534 -2.299491
673.5625 2.471679 1.950761 -0.520918
674.4765625 2.255764 1.828243 -0.427521
675.4140625 2.284003 1.889179 -0.394824
676.328125 2.212537 1.848698 -0.363839
677.234375 2.2373760000000003 1.854108 -0.383268
678.05859375 2.225777 1.889954 -0.335823
678.859375 2.541028 2.156484 -0.384544
679.69140625 2.424949 2.049949 -0.375
680.08984375 3.61451 1.590323 -2.024187
681.51953125 2.463731 2.159943 -0.303788
682.3984375 2.271753 2.02292 -0.248833
683.203125 2.3450699999999998 2.048009 -0.297061
683.96875 2.483203 2.158203 -0.325
684.73046875 2.496629 2.159927 -0.336702
685.52734375 2.418995 2.044008 -0.374987
686.33203125 2.452387 2.175 -0.277387
686.78125 3.859467 1.749667 -2.1098
688.08203125 2.464066 2.06 -0.404066
688.92578125 2.453458 2.075688 -0.37777
689.703125 2.37865 2.038141 -0.340509
690.453125 2.469372 2.109372 -0.36
691.265625 2.4729929999999998 2.237993 -0.235
691.7265625 2.077804 1.557804 -0.52
692.890625 2.586489 2.237231 -0.349258
693.703125 2.3716939999999997 2.203998 -0.167696
694.52734375 2.36639 2.12639 -0.24
695.30859375 2.4804269999999997 2.2049 -0.275527
696.0390625 2.494875 2.184875 -0.31
696.7578125 2.508912 2.139805 -0.369107
697.51953125 2.594112 2.274648 -0.319464
698.3671875 2.497389 2.201617 -0.295772
699.21484375 2.5281830000000003 2.211536 -0.316647
700.0234375 2.490808 2.220808 -0.27
700.8671875 2.542316 2.224603 -0.317713
701.640625 2.60999 2.355 -0.25499
702.43359375 2.569025 2.313869 -0.255156
702.81640625 3.788814 1.763814 -2.025
704.03125 2.600795 2.2825 -0.318295
704.91015625 2.361612 2.098288 -0.263324
705.78515625 2.540782 2.335101 -0.205681
706.23828125 3.8558190000000003 1.681881 -2.173938
707.40234375 2.5961909999999997 2.235 -0.361191
708.1484375 2.330649 1.954898 -0.375751
708.89453125 2.269237 1.959865 -0.309372
709.671875 2.4603089999999996 2.088605 -0.371704
710.4296875 2.433741 2.127676 -0.306065
710.83203125 3.773601 1.551394 -2.222207
712.0234375 2.409941 2.08649 -0.323451
712.82421875 2.455961 2.066896 -0.389065
713.546875 2.544739 2.125 -0.419739
714.24609375 2.3684 1.9984 -0.37
714.96875 2.575243 2.140243 -0.435
715.72265625 2.48843 2.116396 -0.372034
716.5390625 2.366552 2.064583 -0.301969
717.3515625 2.467126 2.14533 -0.321796
718.15234375 2.4198969999999997 2.15 -0.269897
718.5859375 3.69669 1.629139 -2.067551
719.79296875 2.769737 2.375 -0.394737
720.5390625 2.629934 2.249934 -0.38
721.3046875 2.6249059999999997 2.224932 -0.399974
722.09765625 2.635637 2.270077 -0.36556
722.9375 2.565073 2.279259 -0.285814
723.80078125 2.58339 2.21566 -0.36773
724.640625 2.6734400000000003 2.338426 -0.335014
725.42578125 2.590199 2.266425 -0.323774
726.22265625 2.518797 2.20583 -0.312967
726.98828125 2.510421 2.296726 -0.213695
727.77734375 2.3896830000000002 2.172711 -0.216972
728.6015625 2.513023 2.330023 -0.183
729.44140625 2.43864 2.199135 -0.239505
730.30859375 2.401513 2.125861 -0.275652
731.125 2.5518319999999997 2.195 -0.356832
731.8671875 2.547505 2.208675 -0.33883
732.59765625 2.48185 2.14109 -0.34076
733.0078125 3.7469 1.592492 -2.154408
734.203125 2.503172 2.157131 -0.346041
735.0 2.4844090000000003 2.18 -0.304409
735.8046875 2.479495 2.231297 -0.248198
736.61328125 2.439212 2.126178 -0.313034
737.3984375 2.4996479999999996 2.115423 -0.384225
738.1328125 2.4197539999999997 2.09 -0.329754
738.87109375 2.429374 2.079011 -0.350363
739.63671875 2.457869 2.136536 -0.321333
740.484375 2.326042 1.991253 -0.334789
741.36328125 2.376456 1.988669 -0.387787
742.20703125 2.362801 2.04334 -0.319461
743.05859375 2.430603 2.064647 -0.365956
743.83984375 2.399952 2.082969 -0.316983
744.62890625 2.370795 2.111834 -0.258961
745.44140625 2.320666 2.034739 -0.285927
746.25 2.279292 2.06 -0.219292
747.15625 2.222219 2.055 -0.167219
748.07421875 2.3053879999999998 2.122296 -0.183092
748.9453125 2.412124 2.13826 -0.273864
749.77734375 2.323568 2.085962 -0.237606
750.55859375 2.39301 2.132414 -0.260596
751.421875 2.3566130000000003 2.198961 -0.157652
752.30859375 2.2406949999999997 2.145863 -0.094832
753.203125 2.339619 2.159909 -0.17971
754.1171875 2.261107 2.169798 -0.091309
755.04296875 2.444918 2.190105 -0.254813
755.859375 2.443073 2.15263 -0.290443
756.66796875 2.3653269999999997 2.084568 -0.280759
757.51171875 2.363385 2.042603 -0.320782
758.15234375 2.038899 0.163899 -1.875
759.38671875 2.347301 1.994739 -0.352562
760.265625 2.4298040000000003 2.018457 -0.411347
761.14453125 2.382023 2.099989 -0.282034
761.96484375 2.425357 2.015357 -0.41
762.359375 3.426401 1.319766 -2.106635
763.54296875 2.614826 2.248843 -0.365983
764.36328125 2.512873 2.138444 -0.374429
765.19921875 2.515018 2.278885 -0.236133
766.0546875 2.527633 2.251207 -0.276426
766.8515625 2.616912 2.224968 -0.391944
767.58984375 2.685985 2.34212 -0.343865
768.3515625 2.6620150000000002 2.342506 -0.319509
769.1171875 2.7167220000000003 2.319068 -0.397654
769.85546875 2.639418 2.344987 -0.294431
770.6640625 2.4760820000000003 2.211082 -0.265
771.48046875 2.549728 2.299975 -0.249753
771.9296875 3.973734 1.707481 -2.266253
773.12890625 2.656636 2.174809 -0.481827
773.859375 2.56291 2.210935 -0.351975
774.58203125 2.596835 2.262721 -0.334114
775.3671875 2.4620360000000003 2.091562 -0.370474
776.15625 2.435824 2.105824 -0.33
776.94921875 2.3988959999999997 2.13961 -0.259286
777.7734375 2.485343 2.125648 -0.359695
778.58984375 2.484201 2.117093 -0.367108
779.40234375 2.6035259999999996 2.098797 -0.504729
779.78515625 3.780368 1.398013 -2.382355
780.9296875 2.750743 2.221796 -0.528947
781.73046875 2.501736 2.0549 -0.446836
782.23828125 2.083262 1.22343 -0.859832
783.4609375 2.7371779999999997 2.259851 -0.477327
784.27734375 2.6501029999999997 2.225103 -0.425
785.08203125 2.720518 2.313048 -0.40747
785.86328125 2.68294 2.287245 -0.395695
786.625 2.74353 2.32 -0.42353
787.4140625 2.76429 2.359523 -0.404767
787.80078125 3.6193500000000003 1.37935 -2.24
789.15625 2.791741 2.277656 -0.514085
790.03125 2.589657 2.1839 -0.405757
790.8828125 2.741078 2.314594 -0.426484
791.671875 2.6993910000000003 2.329391 -0.37
792.4453125 2.586136 2.269105 -0.317031
792.90234375 2.047222 1.382306 -0.664916
794.109375 2.592965 2.277965 -0.315
794.9375 2.463069 2.2525 -0.210569
795.8515625 2.4597800000000003 2.330509 -0.129271
796.7265625 2.637032 2.433889 -0.203143
797.53125 2.672492 2.414548 -0.257944
798.30859375 2.727219 2.482248 -0.244971
799.1015625 2.6713530000000003 2.479347 -0.192006
799.58984375 2.177987 1.292987 -0.885
800.88671875 2.669084 2.474084 -0.195
801.75390625 2.597224 2.328078 -0.269146
802.63671875 2.581554 2.35777 -0.223784
803.46875 2.681937 2.35093 -0.331007
804.24609375 2.5636460000000003 2.185795 -0.377851
805.01171875 2.579583 2.253699 -0.325884
805.8203125 2.584667 2.210448 -0.374219
806.25390625 3.438051 1.366384 -2.071667
807.5703125 2.529061 2.127491 -0.40157
808.4140625 2.341633 1.881633 -0.46
809.1875 2.501285 2.10617 -0.395115
809.96875 2.494618 2.124286 -0.370332
810.70703125 2.5210369999999998 2.077469 -0.443568
811.1015625 3.611473 1.405215 -2.206258
812.203125 2.591278 2.169689 -0.421589
812.98046875 2.339925 1.964925 -0.375
813.77734375 2.387596 1.934864 -0.452732
814.56640625 2.6061690000000004 2.1596 -0.446569
815.3046875 2.5299359999999997 2.047065 -0.482871
816.01171875 2.633553 2.029072 -0.604481
816.7421875 2.4550590000000003 1.99842 -0.456639
817.5078125 2.470243 1.946786 -0.523457
818.27734375 2.547776 1.978237 -0.569539
819.07421875 2.493853 1.992124 -0.501729
819.89453125 2.5299199999999997 2.03 -0.49992
820.72265625 2.4509930000000004 2.049866 -0.401127
821.54296875 2.422291 1.975839 -0.446452
821.9296875 3.227575 1.162575 -2.065
823.13671875 2.521463 2.079747 -0.441716
823.97265625 2.344735 2.067262 -0.277473
824.83984375 2.4322529999999998 2.135357 -0.296896
825.671875 2.353314 2.133817 -0.219497
826.52734375 2.322156 2.149028 -0.173128
826.9921875 1.78852 0.959908 -0.828612
828.1796875 2.561181 2.319422 -0.241759
828.96484375 2.382178 2.14 -0.242178
829.7578125 2.446321 2.221267 -0.225054
830.609375 2.353842 2.170506 -0.183336
831.07421875 3.487183 1.409548 -2.077635
832.3984375 2.59038 2.221619 -0.368761
833.1875 2.4823739999999996 2.152115 -0.330259
833.96875 2.51041 2.21425 -0.29616
834.75390625 2.4427689999999997 2.12179 -0.320979
835.55859375 2.564346 2.289013 -0.275333
836.37890625 2.524168 2.273162 -0.251006
837.21875 2.31817 2.068355 -0.249815
837.66015625 3.3868979999999995 1.367748 -2.01915
838.24609375 1.934327 1.156559 -0.777768
838.64453125 3.2649220000000003 1.184922 -2.08
840.0078125 2.505668 2.18747 -0.318198
840.75390625 2.4406559999999997 2.148179 -0.292477
841.52734375 2.4515350000000002 2.16 -0.291535
842.33203125 2.367203 2.098501 -0.268702
843.125 2.357266 2.115 -0.242266
843.64453125 1.821478 1.254879 -0.566599
844.70703125 2.244678 1.936476 -0.308202
845.453125 2.274129 1.914205 -0.359924
846.1875 2.219798 1.825909 -0.393889
846.87890625 2.330982 2.018193 -0.312789
847.61328125 2.44639 2.125 -0.32139
848.36328125 2.360757 2.074397 -0.28636
849.17578125 2.339681 2.132963 -0.206718
849.98046875 2.397871 2.119923 -0.277948
850.78125 2.508192 2.14169 -0.366502
851.5546875 2.4910099999999997 2.109428 -0.381582
851.95703125 3.5748249999999997 1.339832 -2.234993
852.3984375 3.0959760000000003 0.611559 -2.484417
853.73046875 2.6517739999999996 2.169958 -0.481816
854.55078125 2.48514 2.112376 -0.372764
855.390625 2.3607110000000002 2.045643 -0.315068
856.265625 2.363295 2.076696 -0.286599
857.07421875 2.499389 2.106225 -0.393164
857.8359375 2.486788 2.062635 -0.424153
858.328125 2.500085 0.395 -2.105085
859.51171875 2.572927 2.172927 -0.4
860.3359375 2.312772 1.989932 -0.32284
861.21484375 2.39116 2.125242 -0.265918
862.0859375 2.309444 2.084763 -0.224681
862.53515625 3.283096 1.183096 -2.1
863.828125 2.4296189999999998 2.069619 -0.36
864.60546875 2.232332 1.894804 -0.337528
865.4453125 2.1415669999999998 1.899462 -0.242105
866.32421875 2.1023300000000003 1.89233 -0.21
867.21484375 2.2361329999999997 1.942937 -0.293196
868.0859375 2.236204 2.009929 -0.226275
868.9609375 2.2227930000000002 1.92433 -0.298463
869.78515625 2.254407 1.929407 -0.325
870.59375 2.2681270000000002 1.949648 -0.318479
871.40625 2.3971750000000003 2.047391 -0.349784
871.8046875 3.4012969999999996 1.349451 -2.051846
873.1796875 2.459572 2.106888 -0.352684
874.03515625 2.304938 1.906032 -0.398906
874.83203125 2.440051 2.074323 -0.365728
875.578125 2.468444 2.103444 -0.365
876.328125 2.418921 1.984033 -0.434888
877.1015625 2.5364639999999996 2.193964 -0.3425
877.8828125 2.3953569999999997 2.123404 -0.271953
878.3671875 1.892108 1.39164 -0.500468
879.5703125 2.4356809999999998 2.280614 -0.155067
880.421875 2.2998130000000003 2.119813 -0.18
880.9140625 1.839633 1.219722 -0.619911
881.94140625 2.5399779999999996 2.269846 -0.270132
882.66796875 2.360878 2.098096 -0.262782
883.421875 2.40987 2.132953 -0.276917
884.1796875 2.4074229999999996 2.195521 -0.211902
884.96875 2.364315 2.189942 -0.174373
885.76171875 2.4274760000000004 2.244397 -0.183079
886.58984375 2.362138 2.227934 -0.134204
887.35546875 2.487131 2.209928 -0.277203
888.0703125 2.449395 2.100158 -0.349237
888.4453125 3.5115439999999998 1.406544 -2.105
889.546875 2.398199 2.004588 -0.393611
890.34375 2.248836 1.985273 -0.263563
891.171875 2.434836 2.145 -0.289836
891.9921875 2.391292 2.058137 -0.333155
892.8125 2.519893 2.148571 -0.371322
893.6171875 2.539899 2.12 -0.419899
894.40234375 2.406508 2.053624 -0.352884
895.2109375 2.446842 2.099717 -0.347125
896.05859375 2.530007 2.195 -0.335007
896.9453125 2.415712 2.152824 -0.262888
897.8828125 2.472777 2.19 -0.282777
898.78515625 2.5043450000000003 2.194345 -0.31
899.625 2.386523 2.14 -0.246523
900.08203125 1.767945 0.940249 -0.827696
901.3984375 2.50374 2.254042 -0.249698
902.265625 2.3461309999999997 2.124053 -0.222078
903.1875 2.359544 2.075135 -0.284409
903.73046875 2.914968 1.104968 -1.81
905.0703125 2.488455 2.179157 -0.309298
905.87890625 2.399942 2.046 -0.353942
906.67578125 2.392674 2.129533 -0.263141
907.55859375 2.410111 2.135808 -0.274303
908.4296875 2.235611 1.982523 -0.253088
909.28515625 2.301338 1.983723 -0.317615
910.16796875 2.5193849999999998 2.148738 -0.370647
910.57421875 3.261245 1.166245 -2.095
911.8359375 2.515797 2.06984 -0.445957
912.58984375 2.5152989999999997 2.115299 -0.4
913.359375 2.4354430000000002 2.1 -0.335443
913.78125 3.62304 1.609321 -2.013719
915.0625 2.4490480000000003 2.084048 -0.365
915.875 2.353939 1.97 -0.383939
916.69140625 2.321811 1.899171 -0.42264
917.4765625 2.5487569999999997 2.045215 -0.503542
918.23828125 2.4789000000000003 2.036881 -0.442019
919.01171875 2.433831 1.976696 -0.457135
919.7734375 2.314946 1.926665 -0.388281
920.53125 2.4924120000000003 2.084258 -0.408154
921.33984375 2.3625089999999997 2.029368 -0.333141
922.1484375 2.400438 2.000121 -0.400317
922.91015625 2.613317 2.176773 -0.436544
923.625 2.509706 2.045 -0.464706
924.34375 2.551887 2.021543 -0.530344
925.0625 2.412716 1.989028 -0.423688
925.84375 2.383794 2.003738 -0.380056
926.65625 2.3094710000000003 1.973424 -0.336047
927.0859375 3.559204 1.361132 -2.198072
928.3359375 2.393516 1.999805 -0.393711
929.15625 2.388753 1.86345 -0.525303
929.92578125 2.5181899999999997 2.049705 -0.468485
930.6796875 2.333205 1.913199 -0.420006
931.48046875 2.444083 1.999548 -0.444535
932.0390625 1.9296729999999997 1.024868 -0.904805
933.203125 2.41873 2.038635 -0.380095
934.0703125 2.279453 1.93 -0.349453
934.91015625 2.207994 1.905492 -0.302502
935.75 2.354208 1.945 -0.409208
936.55078125 2.354636 1.94 -0.414636
937.35546875 2.26815 1.90926 -0.35889
938.21484375 2.35148 1.987792 -0.363688
939.125 2.253963 1.98 -0.273963
940.078125 2.320851 2.024141 -0.29671
940.578125 3.097513 2.46 -0.637513
941.87109375 2.550567 2.199035 -0.351532
942.73046875 2.3669979999999997 2.029988 -0.33701
943.61328125 2.438911 2.067166 -0.371745
944.47265625 2.386227 2.004536 -0.381691
944.9765625 1.881334 0.887506 -0.993828
946.35546875 2.301054 2.009974 -0.29108
947.23828125 2.499536 2.077028 -0.422508
948.0390625 2.415569 2.020569 -0.395
948.828125 2.337857 2.016918 -0.320939
949.6640625 2.4632479999999997 2.041101 -0.422147
950.5078125 2.391215 2.074796 -0.316419
951.3515625 2.429735 2.018971 -0.410764
952.20703125 2.49287 2.0368 -0.45607
953.04296875 2.438883 2.029532 -0.409351
953.8515625 2.259831 1.863791 -0.39604
954.60546875 2.434084 2.014982 -0.419102
955.37109375 2.248624 1.966994 -0.28163
955.87890625 1.892973 1.293629 -0.599344
957.1171875 2.2641590000000003 1.958614 -0.305545
957.9609375 2.063702 1.79 -0.273702
958.7890625 2.1447 1.7447 -0.4
959.53515625 2.399639 1.964639 -0.435
960.2734375 2.221981 1.780438 -0.441543
961.0234375 2.192975 1.709575 -0.4834
961.78125 2.305116 1.853814 -0.451302
962.56640625 2.305056 1.914665 -0.390391
963.44140625 2.016606 1.671606 -0.345
964.27734375 2.123688 1.765 -0.358688
965.0625 2.182604 1.791667 -0.390937
965.81640625 2.264428 1.794775 -0.469653
966.5390625 2.299956 1.919956 -0.38
966.94921875 3.273127 1.229511 -2.043616
968.1640625 2.315488 1.944893 -0.370595
968.98046875 2.326815 1.95996 -0.366855
969.828125 2.309659 2.039819 -0.26984
970.71484375 2.216001 1.876811 -0.33919
971.50390625 2.401319 2.004052 -0.397267
972.2421875 2.388712 2.031574 -0.357138
973.015625 2.3475479999999997 1.981447 -0.366101
973.82421875 2.4378569999999997 2.126737 -0.31112
974.7109375 2.195188 2.074849 -0.120339
975.13671875 3.0447319999999998 1.144732 -1.9
976.52734375 2.2676 1.994653 -0.272947
977.39453125 2.139484 1.894853 -0.244631
978.203125 2.279962 2.0 -0.279962
978.97265625 2.2242230000000003 2.004347 -0.219876
979.8046875 2.283327 2.077331 -0.205996
980.68359375 2.196695 2.039876 -0.156819
981.6015625 2.249894 2.061644 -0.18825
982.515625 2.276379 2.035827 -0.240552
983.34765625 2.4142479999999997 2.183191 -0.231057
983.75390625 3.3292010000000003 1.441119 -1.888082
985.015625 2.496053 2.185 -0.311053
985.80078125 2.4306200000000002 2.149057 -0.281563
986.65234375 2.293106 2.081387 -0.211719
987.0625 2.9235420000000003 0.998542 -1.925
987.58203125 2.826847 0.468755 -2.358092
989.05078125 2.638811 2.219624 -0.419187
989.81640625 2.427897 2.009888 -0.418009
990.5546875 2.4399029999999997 2.021425 -0.418478
991.3046875 2.41626 2.129638 -0.286622
992.05859375 2.3590899999999997 2.069511 -0.289579
992.8203125 2.4301570000000003 2.126383 -0.303774
993.59375 2.635027 2.337358 -0.297669
994.375 2.441271 2.195 -0.246271
995.16796875 2.529343 2.144343 -0.385
995.88671875 2.625344 2.240344 -0.385
996.59765625 2.384649 2.003531 -0.381118
997.33203125 2.5303970000000002 2.129983 -0.400414
998.13671875 2.534149 2.188256 -0.345893
998.94921875 2.275687 1.968302 -0.307385
999.7421875 2.424308 2.179485 -0.244823
1000.56640625 2.289314 2.004952 -0.284362
1001.34765625 2.340348 1.977484 -0.362864
1002.1171875 2.4955499999999997 2.166267 -0.329283
1002.875 2.368253 2.06 -0.308253
1003.65625 2.348134 1.991541 -0.356593
1004.4921875 2.300648 2.07164 -0.229008
1004.9765625 3.6190819999999997 1.48641 -2.132672
1006.328125 2.644512 2.169643 -0.474869
1007.1484375 2.480347 2.046545 -0.433802
1007.94140625 2.379212 1.899212 -0.48
1008.7109375 2.564809 2.109809 -0.455
1009.546875 2.441973 2.014823 -0.42715
1010.37890625 2.289636 1.94 -0.349636
1011.21875 2.238534 1.968906 -0.269628
1012.13671875 2.2742829999999996 2.016726 -0.257557
1013.0078125 2.286761 1.947528 -0.339233
1013.7890625 2.267056 1.887056 -0.38
1014.58203125 2.369954 1.93 -0.439954
1015.37109375 2.297483 1.978118 -0.319365
1016.21484375 2.388337 2.180241 -0.208096
1016.73046875 1.8090410000000001 0.979041 -0.83
1017.984375 2.6130720000000003 2.200839 -0.412233
1018.82421875 2.373274 2.072336 -0.300938
1019.31640625 1.8509630000000001 1.142262 -0.708701
1020.4140625 2.629978 2.249978 -0.38
1021.15234375 2.627488 2.248411 -0.379077
1021.9375 2.480655 2.107593 -0.373062
1022.72265625 2.433023 2.174481 -0.258542
1023.58203125 2.276037 2.085 -0.191037
1024.02734375 3.348141 1.303141 -2.045
1025.26953125 2.554281 2.149981 -0.4043
1026.0390625 2.4190300000000002 2.09403 -0.325
1026.80859375 2.370728 1.999722 -0.371006
1027.5859375 2.599835 2.169978 -0.429857
1028.3515625 2.365489 2.074824 -0.290665
1028.8515625 1.8888989999999999 1.300265 -0.588634
1030.00390625 2.512109 2.207109 -0.305
1030.8203125 2.347836 2.044742 -0.303094
1031.578125 2.544367 2.164367 -0.38
1032.28125 2.481005 2.151466 -0.329539
1033.02734375 2.358729 2.044867 -0.313862
1033.80078125 2.4690250000000002 2.129557 -0.339468
1034.58203125 2.418596 2.115771 -0.302825
1035.375 2.5823340000000004 2.24 -0.342334
1036.19921875 2.495306 2.095436 -0.39987
1037.0078125 2.434698 2.134599 -0.300099
1037.78125 2.462427 2.086283 -0.376144
1038.5234375 2.579864 2.192731 -0.387133
1039.30078125 2.503472 2.175839 -0.327633
1039.6953125 3.2015219999999998 1.121581 -2.079941
1041.05078125 2.3411910000000002 2.052235 -0.288956
1041.9140625 2.350936 1.990936 -0.36
1042.79296875 2.434755 2.0568 -0.377955
1043.609375 2.340402 1.95651 -0.383892
1044.4453125 2.436269 2.069216 -0.367053
1044.95703125 1.7785259999999998 0.838526 -0.94
1046.1875 2.5479659999999997 2.26 -0.287966
1047.1015625 2.134404 1.928643 -0.205761
1048.0625 2.159986 1.945739 -0.214247
1048.95703125 2.27007 1.951004 -0.319066
1049.7890625 2.354908 2.019908 -0.335
1050.609375 2.20348 1.869607 -0.333873
1051.5 2.15944 1.91 -0.24944
1052.39453125 2.1744120000000002 1.859664 -0.314748
1053.296875 2.158544 1.854823 -0.303721
1054.28125 2.269053 2.014205 -0.254848
1054.93359375 2.675396 0.654766 -2.02063
1056.06640625 2.576632 2.144015 -0.432617
1056.90625 2.307024 1.897949 -0.409075
1057.734375 2.420817 1.980885 -0.439932
1058.609375 2.431451 2.154187 -0.277264
1059.48828125 2.335569 1.969772 -0.365797
1059.91015625 3.015556 0.87428 -2.141276
1061.265625 2.563924 2.125913 -0.438011
1062.04296875 2.391995 1.969438 -0.422557
1062.7734375 2.5203339999999996 2.074756 -0.445578
1063.55078125 2.470464 2.152731 -0.317733
1064.35546875 2.403036 2.12055 -0.282486
1065.20703125 2.246912 1.983031 -0.263881
1066.0703125 2.362711 2.105 -0.257711
1066.90625 2.465815 2.079682 -0.386133
1067.69140625 2.381416 2.028265 -0.353151
1068.453125 2.231579 1.768381 -0.463198
1069.1875 2.363035 1.97617 -0.386865
1069.9375 2.187826 1.763636 -0.42419
1070.7265625 2.032928 1.599436 -0.433492
1071.5234375 2.013415 1.566559 -0.446856
1072.3515625 2.192131 1.759631 -0.4325
1073.12109375 2.163981 1.734105 -0.429876
1073.80859375 2.2433389999999997 1.728105 -0.515234
1074.49609375 2.3587629999999997 1.89627 -0.462493
1075.23046875 2.29191 1.804975 -0.486935
1075.96484375 2.3119330000000002 1.835474 -0.476459
1076.671875 2.110213 1.654693 -0.45552
1077.41015625 2.41778 1.975 -0.44278
1078.14453125 2.174576 1.774904 -0.399672
1078.87890625 2.34451 1.872568 -0.471942
1079.57421875 2.4444369999999997 1.90393 -0.540507
1080.23828125 2.342231 1.797231 -0.545
1080.87890625 2.1607279999999998 1.647545 -0.513183
1081.59765625 2.026047 1.576329 -0.449718
1082.34765625 2.021554 1.608064 -0.41349
1083.1328125 2.1327570000000002 1.722757 -0.41
1083.89453125 2.143592 1.765542 -0.37805
1084.6875 2.102884 1.695875 -0.407009
1085.4296875 2.0636270000000003 1.687256 -0.376371
1086.1640625 2.05987 1.60987 -0.45
1086.8515625 2.306347 1.854659 -0.451688
1087.5546875 2.224967 1.74078 -0.484187
1088.30859375 2.222549 1.814045 -0.408504
1089.1171875 2.220072 1.781642 -0.43843
1089.92578125 2.25341 1.808738 -0.444672
1090.70703125 2.186165 1.70529 -0.480875
1091.46484375 2.326575 1.823683 -0.502892
1092.1953125 2.229087 1.802544 -0.426543
1092.82421875 2.6001469999999998 1.738472 -0.861675
1093.734375 2.1886669999999997 1.823667 -0.365
1094.50390625 2.332661 1.835241 -0.49742
1095.33203125 2.175243 1.802528 -0.372715
1096.19140625 2.305326 1.884685 -0.420641
1097.02734375 2.312603 1.79 -0.522603
1097.79296875 2.234378 1.68354 -0.550838
1098.17578125 3.321766 1.19449 -2.127276
1099.38671875 2.419578 1.841864 -0.577714
1100.22265625 2.387147 1.863345 -0.523802
1101.0703125 2.301733 1.807514 -0.494219
1101.91015625 2.249898 1.817756 -0.432142
1102.8046875 2.280752 1.952739 -0.328013
1103.234375 2.76983 1.384902 -1.384928
1104.4140625 2.674902 2.174902 -0.5
1105.16796875 2.5865400000000003 2.158824 -0.427716
1105.9765625 2.6416199999999996 2.313989 -0.327631
1106.859375 2.7234909999999997 2.41483 -0.308661
1107.71875 2.814635 2.439635 -0.375
1108.21484375 2.350407 1.276035 -1.074372
1109.4453125 2.996356 2.517544 -0.478812
1110.23046875 2.919229 2.459229 -0.46
1110.69140625 2.345389 1.413552 -0.931837
1111.81640625 2.750794 2.349694 -0.4011
1112.6171875 2.574049 2.249479 -0.32457
1113.16796875 2.033417 1.339198 -0.694219
1114.33203125 2.324938 1.969938 -0.355
1115.1171875 2.292798 1.94 -0.352798
1115.84765625 2.320778 1.978237 -0.342541
1116.58984375 2.27566 1.902588 -0.373072
1117.35546875 2.379801 2.019924 -0.359877
1117.76953125 3.787292 1.640285 -2.147007
1118.94921875 2.617422 2.235874 -0.381548
1119.74609375 2.582937 2.315368 -0.267569
1120.578125 2.575482 2.289517 -0.285965
1121.3828125 2.6094670000000004 2.290538 -0.318929
1122.1171875 2.558815 2.206359 -0.352456
1122.82421875 2.444959 2.044852 -0.400107
1123.6171875 2.4867660000000003 2.169321 -0.317445
1124.453125 2.3558909999999997 2.014039 -0.341852
1124.96875 2.020611 1.367391 -0.65322
1126.1484375 2.36572 1.991295 -0.374425
1126.98046875 2.2771310000000002 1.884988 -0.392143
1127.78125 2.341822 1.907108 -0.434714
1128.55078125 2.392047 1.947047 -0.445
1129.3515625 2.335797 1.885797 -0.45
1130.15625 2.320075 2.014594 -0.305481
1130.67578125 2.047276 1.30232 -0.744956
1131.9921875 2.3785930000000004 2.073186 -0.305407
1132.83203125 2.319537 1.978241 -0.341296
1133.671875 2.281367 1.903528 -0.377839
1134.4609375 2.408715 2.019708 -0.389007
1135.29296875 2.298438 2.00884 -0.289598
1136.14453125 2.348849 2.044941 -0.303908
1137.0078125 2.384735 2.129808 -0.254927
1137.9453125 2.316331 2.13864 -0.177691
1138.8671875 2.191229 1.992225 -0.199004
1139.71484375 2.3920239999999997 2.037733 -0.354291
1140.5546875 2.2462429999999998 1.934661 -0.311582
1141.421875 2.215372 1.919911 -0.295461
1142.3359375 2.134622 1.844979 -0.289643
1143.26953125 2.188815 1.924368 -0.264447
1144.18359375 2.096213 1.844952 -0.251261
1145.1328125 2.511639 2.146452 -0.365187
1145.71484375 2.9478400000000002 1.04284 -1.905
1146.02734375 3.3774539999999997 0.852915 -2.524539
1147.4765625 2.6224999999999996 2.11 -0.5125
1148.328125 2.25549 1.881562 -0.373928
1149.21484375 2.396836 2.072785 -0.324051
1150.04296875 2.377815 2.156179 -0.221636
1150.86328125 2.269336 2.016593 -0.252743
1151.66015625 2.433245 2.130525 -0.30272
1152.4140625 2.449367 2.089978 -0.359389
1153.15625 2.426038 2.08929 -0.336748
1153.8984375 2.3993840000000004 2.11954 -0.279844
1154.67578125 2.233379 1.989852 -0.243527
1155.484375 2.2529570000000003 2.115305 -0.137652
1156.29296875 2.331474 2.123762 -0.207712
1157.046875 2.382933 2.104317 -0.278616
1157.74609375 2.294308 1.967233 -0.327075
1158.4765625 2.340214 1.988363 -0.351851
1158.9375 3.044721 2.357143 -0.687578
1159.96484375 2.495695 2.152137 -0.343558
1160.75 2.347322 2.005 -0.342322
1161.5546875 2.452884 2.044095 -0.408789
1162.3671875 2.55474 2.124577 -0.430163
1163.1875 2.6897640000000003 2.224231 -0.465533
1163.640625 1.960802 1.270857 -0.689945
1164.63671875 2.39134 1.95209 -0.43925
1165.4296875 2.138688 1.728688 -0.41
1166.234375 2.195836 1.743434 -0.452402
1167.046875 2.016849 1.571849 -0.445
1167.8671875 2.29816 1.913233 -0.384927
1168.65625 2.127839 1.731317 -0.396522
1169.4140625 2.256377 1.919955 -0.336422
1170.140625 2.200839 1.780931 -0.419908
1170.84375 2.151499 1.711187 -0.440312
1171.55078125 2.365114 1.986434 -0.37868
1172.32421875 2.150677 1.811706 -0.338971
1173.10546875 2.121468 1.789906 -0.331562
1173.86328125 2.191119 1.69 -0.501119
1174.6015625 2.179325 1.619325 -0.56
1175.32421875 2.202155 1.511987 -0.690168
1176.00390625 1.9321920000000001 1.442298 -0.489894
1176.671875 1.9811159999999999 1.568336 -0.41278
1177.34765625 2.054595 1.728647 -0.325948
1177.9921875 2.44755 1.782775 -0.664775
1178.7109375 2.2744289999999996 2.139429 -0.135
1179.48046875 2.258139 2.064299 -0.19384
1180.21875 2.178872 1.961317 -0.217555
1180.90625 2.236169 1.990993 -0.245176
1181.56640625 2.324828 2.074828 -0.25
1182.2109375 2.384435 2.119792 -0.264643
1182.859375 2.402698 2.182074 -0.220624
1183.35546875 3.2699999999999996 2.8 -0.47
1184.23828125 2.3037929999999998 2.186597 -0.117196
1184.94921875 2.236393 2.086361 -0.150032
1185.69140625 2.119926 1.98994 -0.129986
1186.4765625 1.9847830000000002 1.832966 -0.151817
1187.2109375 2.042036 1.86927 -0.172766
1187.89453125 2.205196 1.939939 -0.265257
1188.375 3.192266 2.59 -0.602266
1189.30078125 2.289298 2.140905 -0.148393
1190.04296875 2.268958 2.146621 -0.122337
1190.83203125 2.3657690000000002 2.193321 -0.172448
1191.60546875 2.454974 2.234974 -0.22
1192.3828125 2.4125419999999997 2.180935 -0.231607
1193.18359375 2.439815 2.289507 -0.150308
1193.65234375 2.0690720000000002 1.569072 -0.5
1194.75 2.604824 2.385 -0.219824
1195.5078125 2.45776 2.269401 -0.188359
1196.32421875 2.3805520000000002 2.183657 -0.196895
1196.77734375 3.623379 1.656392 -1.966987
1198.11328125 2.523753 2.289136 -0.234617
1198.9765625 2.354433 2.066371 -0.288062
1199.79296875 2.430944 2.121359 -0.309585
1200.59765625 2.4947299999999997 2.19473 -0.3
1201.43359375 2.428608 2.088201 -0.340407
1201.97265625 1.744541 1.039541 -0.705
1203.15234375 2.3858360000000003 2.077262 -0.308574
1204.05859375 2.239028 2.008501 -0.230527
1204.9453125 2.323403 2.113403 -0.21
1205.76171875 2.455777 2.141815 -0.313962
1206.53515625 2.442525 2.215557 -0.226968
1207.3828125 2.357005 2.137984 -0.219021
1207.83984375 1.752464 1.105364 -0.6471
1209.109375 2.452949 2.152949 -0.3
1209.9921875 2.3692759999999997 2.084106 -0.28517
1210.85546875 2.376363 2.164957 -0.211406
1211.69921875 2.3803159999999997 2.087963 -0.292353
1212.4765625 2.402609 2.102669 -0.29994
1213.26953125 2.302159 2.024934 -0.277225
1214.15625 2.258554 2.018393 -0.240161
1215.0625 2.3765050000000003 2.028929 -0.347576
1215.97265625 2.288821 1.973821 -0.315
1216.47265625 1.956023 1.031064 -0.924959
1217.78515625 2.450557 2.045557 -0.405
1218.6328125 2.4284990000000004 2.064808 -0.363691
1219.484375 2.3855589999999998 2.046719 -0.33884
1220.328125 2.255599 1.973958 -0.281641
1221.27734375 2.290772 2.055993 -0.234779
1222.2265625 2.2883269999999998 2.034792 -0.253535
1222.7109375 1.938018 1.13993 -0.798088
1223.98828125 2.476497 2.0836 -0.392897
1224.796875 2.412104 2.074916 -0.337188
1225.66796875 2.4126459999999996 2.061247 -0.351399
1226.54296875 2.4710919999999996 2.113393 -0.357699
1227.40234375 2.469325 2.13 -0.339325
1228.359375 2.390179 2.130179 -0.26
1229.234375 2.512425 2.179077 -0.333348
1230.04296875 2.367063 2.015 -0.352063
1230.8671875 2.3230630000000003 1.93521 -0.387853
1231.69140625 2.349653 2.005 -0.344653
1232.59375 2.279877 1.939079 -0.340798
1233.1640625 2.91832 1.23452 -1.6838
1234.3828125 2.375277 1.911777 -0.4635
1234.8984375 1.925599 0.126759 -1.79884
1236.06640625 2.463111 1.965145 -0.497966
1236.8125 2.26985 1.8065 -0.46335
1237.58203125 2.307951 1.952951 -0.355
1238.36328125 2.293551 1.904122 -0.389429
1239.1953125 2.220609 1.867172 -0.353437
1239.65625 3.554602 1.474629 -2.079973
1240.875 2.4748729999999997 2.005 -0.469873
1241.6171875 2.269572 1.828444 -0.441128
1242.3515625 2.407665 2.025557 -0.382108
1243.0859375 2.4626479999999997 2.099894 -0.362754
1243.81640625 2.481374 2.073046 -0.408328
1244.58203125 2.426075 2.092273 -0.333802
1245.375 2.287942 2.02 -0.267942
1246.19921875 2.3704400000000003 2.09655 -0.27389
1247.0078125 2.4807609999999998 2.124812 -0.355949
1247.7265625 2.39799 2.004084 -0.393906
1248.41015625 2.363562 2.068562 -0.295
1249.15625 2.233374 2.029044 -0.20433
1249.65234375 3.052277 2.503136 -0.549141
1250.71484375 2.2722350000000002 2.075 -0.197235
1251.515625 2.109539 1.945752 -0.163787
1252.34765625 2.1961239999999997 1.998535 -0.197589
1253.17578125 2.251463 2.071677 -0.179786
1253.66796875 1.760105 1.415782 -0.344323
1254.69140625 2.231135 1.973088 -0.258047
1255.4609375 2.1939680000000004 2.019979 -0.173989
1255.953125 1.7529180000000002 1.399118 -0.3538
1257.15234375 2.104698 1.94 -0.164698
1257.96484375 2.1600639999999998 1.958597 -0.201467
1258.453125 1.678415 1.313415 -0.365
1259.53515625 2.171126 1.885142 -0.285984
1260.265625 2.185783 1.922292 -0.263491
1260.96875 2.2148309999999998 1.947679 -0.267152
1261.69140625 2.269808 2.024339 -0.245469
1262.43359375 2.095053 1.9291 -0.165953
1262.953125 1.6765830000000002 1.374907 -0.301676
1264.046875 2.098045 1.925726 -0.172319
1264.80078125 2.064933 1.857115 -0.207818
1265.51953125 2.20422 2.059906 -0.144314
1266.1953125 2.178313 1.975 -0.203313
1266.88671875 2.240087 2.074739 -0.165348
1267.37109375 1.8150019999999998 1.275305 -0.539697
1267.78515625 2.991922 2.495 -0.496922
1269.046875 2.343075 2.186092 -0.156983
1269.86328125 2.308213 2.166606 -0.141607
1270.3125 3.890291 1.841214 -2.049077
1271.4453125 2.5748490000000004 2.16 -0.414849
1272.1328125 2.4365550000000002 2.144814 -0.291741
1272.5234375 3.9097169999999997 1.780352 -2.129365
1273.57421875 2.463249 2.13277 -0.330479
1274.3359375 2.436563 2.139792 -0.296771
1274.74609375 3.687665 1.622665 -2.065
1275.859375 2.35798 2.07298 -0.285
1276.65625 2.19685 2.003409 -0.193441
1277.40234375 2.455627 2.178149 -0.277478
1278.08984375 2.379541 2.066986 -0.312555
1278.76953125 2.514287 2.149931 -0.364356
1279.4921875 2.490062 2.182562 -0.3075
1280.2421875 2.485729 2.183811 -0.301918
1281.05859375 2.3779529999999998 2.129225 -0.248728
1281.8828125 2.4205550000000002 2.152693 -0.267862
1282.70703125 2.47477 2.227176 -0.247594
1283.53515625 2.5084310000000003 2.203431 -0.305
1284.3125 2.468581 2.214375 -0.254206
1285.09765625 2.554613 2.264697 -0.289916
1285.8984375 2.398877 2.184775 -0.214102
1286.7265625 2.404385 2.237906 -0.166479
1287.640625 2.269217 2.118387 -0.15083
1288.546875 2.307445 2.104022 -0.203423
1289.39453125 2.4827879999999998 2.139966 -0.342822
1290.21484375 2.319958 1.964779 -0.355179
1291.05078125 2.29594 1.946458 -0.349482
1291.91015625 2.3753640000000003 2.037589 -0.337775
1292.76953125 2.275243 1.920287 -0.354956
1293.671875 2.250923 1.92 -0.330923
1294.6015625 2.220812 1.950483 -0.270329
1295.5 2.318841 1.925 -0.393841
1296.30859375 2.371189 1.949287 -0.421902
1297.109375 2.254614 1.991618 -0.262996
1297.98046875 2.381861 2.024975 -0.356886
1298.3984375 3.546005 1.372205 -2.1738
1299.71875 2.572791 2.094663 -0.478128
1300.5546875 2.420508 2.011444 -0.409064
1301.3515625 2.429502 1.988966 -0.440536
1302.11328125 2.372699 1.972694 -0.400005
1302.83984375 2.459288 2.055 -0.404288
1303.23828125 3.57536 1.401881 -2.173479
1304.390625 2.425466 2.017207 -0.408259
1305.21484375 2.3218989999999997 1.947863 -0.374036
1306.02734375 2.457982 2.011317 -0.446665
1306.8125 2.520255 2.085446 -0.434809
1307.5859375 2.457815 1.97 -0.487815
1308.31640625 2.513754 2.089817 -0.423937
1309.07421875 2.456327 2.094419 -0.361908
1309.8359375 2.531425 2.094452 -0.436973
1310.61328125 2.463868 2.054732 -0.409136
1311.4296875 2.425566 2.095722 -0.329844
1311.984375 3.0433570000000003 2.418857 -0.6245
1313.08984375 2.579283 2.241165 -0.338118
1313.80078125 2.45653 2.099122 -0.357408
1314.1953125 3.935992 1.774448 -2.161544
1315.1875 2.451226 2.073667 -0.377559
1315.8984375 2.306044 1.956044 -0.35
1316.65625 2.3466180000000003 1.998906 -0.347712
1317.40234375 2.451049 2.092663 -0.358386
1318.13671875 2.3497369999999997 2.074737 -0.275
1318.9375 2.344064 2.098824 -0.24524
1319.6640625 2.499511 2.144946 -0.354565
1320.359375 2.404236 2.075785 -0.328451
1321.0859375 2.315207 2.044739 -0.270468
1321.85546875 2.309217 2.069893 -0.239324
1322.6953125 2.2419719999999996 2.036399 -0.205573
1323.59375 2.206886 1.922143 -0.284743
1324.48046875 2.288699 1.994859 -0.29384
1325.3359375 2.3585089999999997 2.00995 -0.348559
1326.19140625 2.356429 1.953773 -0.402656
1327.00390625 2.338234 1.983234 -0.355
1327.85546875 2.397039 2.039994 -0.357045
1328.76171875 2.431584 2.137953 -0.293631
1329.35546875 2.584824 0.254936 -2.329888
1330.6953125 2.4954669999999997 2.109428 -0.386039
1331.5625 2.372109 1.995 -0.377109
1332.421875 2.4533180000000003 2.024478 -0.42884
1333.3046875 2.37229 1.973851 -0.398439
1334.19140625 2.3872679999999997 2.004606 -0.382662
1335.08984375 2.347086 2.085364 -0.261722
1336.04296875 2.29483 2.059914 -0.234916
1337.01953125 2.242663 2.039609 -0.203054
1337.88671875 2.375016 2.09203 -0.282986
1338.73046875 2.269191 2.044916 -0.224275
1339.63671875 2.0991999999999997 2.00845 -0.09075
1340.5859375 2.1935309999999997 2.164887 -0.028644
1341.51953125 2.2392510000000003 2.144283 -0.094968
1342.4921875 2.297403 2.084599 -0.212804
1343.4140625 2.479979 2.259979 -0.22
1344.3046875 2.487711 2.199039 -0.288672
1345.15234375 2.5878609999999997 2.207861 -0.38
1346.03515625 2.479094 2.288064 -0.19103
1347.046875 2.429812 2.289812 -0.14
1348.0546875 2.445079 2.232306 -0.212773
1348.97265625 2.421982 2.253624 -0.168358
1349.8515625 2.38868 2.176793 -0.211887
1350.69921875 2.427703 2.230436 -0.197267
1351.55859375 2.368256 2.212602 -0.155654
1352.4375 2.251255 2.101284 -0.149971
1353.35546875 2.337559 2.224953 -0.112606
1354.30078125 2.280622 2.162985 -0.117637
1355.19921875 2.370955 2.129002 -0.241953
1355.98828125 2.397981 2.161846 -0.236135
1356.734375 2.364836 2.130139 -0.234697
1357.53125 2.397581 2.181664 -0.215917
1358.35546875 2.422272 2.18498 -0.237292
1358.78515625 3.544898 1.468597 -2.076301
1360.00390625 2.291377 2.028033 -0.263344
1360.87109375 2.335458 1.996093 -0.339365
1361.640625 2.4048320000000003 2.094234 -0.310598
1362.3671875 2.4135649999999997 2.082632 -0.330933
1363.12109375 2.260485 1.990915 -0.26957
1363.8984375 2.313481 2.068632 -0.244849
1364.76171875 2.22 2.035 -0.185
1365.640625 2.189729 1.94867 -0.241059
1366.50390625 2.447729 2.17354 -0.274189
1367.40625 2.370089 2.068286 -0.301803
1368.25 2.444551 2.04 -0.404551
1369.05078125 2.5101299999999998 2.188474 -0.321656
1369.93359375 2.4021839999999997 2.164951 -0.237233
1370.8671875 2.4398280000000003 2.178824 -0.261004
1371.83984375 2.4538409999999997 2.140634 -0.313207
1372.7734375 2.5487409999999997 2.276007 -0.272734
1373.65234375 2.6107579999999997 2.222622 -0.388136
1374.546875 2.637041 2.244911 -0.39213
1375.41015625 2.473605 2.153145 -0.32046
1376.2890625 2.4649550000000002 2.134955 -0.33
1377.2265625 2.352285 2.030952 -0.321333
1378.1640625 2.2958439999999998 2.136011 -0.159833
1379.109375 2.437472 2.182855 -0.254617
1379.95703125 2.357823 2.056307 -0.301516
1380.7578125 2.297528 2.076348 -0.22118
1381.17578125 3.061698 1.231945 -1.829753
1382.43359375 2.431971 2.114052 -0.317919
1383.23828125 2.407705 2.051874 -0.355831
1384.046875 2.450008 2.146104 -0.303904
1384.85546875 2.416511 2.119701 -0.29681
1385.6328125 2.416203 2.071611 -0.344592
1386.33984375 2.5178640000000003 2.14 -0.377864
1387.05859375 2.609508 2.210824 -0.398684
1387.81640625 2.555099 2.176402 -0.378697
1388.6171875 2.450711 2.122156 -0.328555
1389.4375 2.4622040000000003 2.062882 -0.399322
1390.21875 2.530801 2.123068 -0.407733
1391.0078125 2.4199859999999997 2.034613 -0.385373
1391.45703125 1.734229 1.054961 -0.679268
1392.47265625 2.5325320000000002 2.171291 -0.361241
1393.1796875 2.487862 2.083233 -0.404629
1393.58203125 3.678203 1.467949 -2.210254
1394.65234375 2.392794 1.962794 -0.43
1395.4765625 2.348699 1.890517 -0.458182
1396.25390625 2.281782 1.869707 -0.412075
1396.97265625 2.466843 2.089212 -0.377631
1397.671875 2.5161800000000003 2.089258 -0.426922
1398.33984375 2.505597 2.025597 -0.48
1399.01953125 2.554615 2.139994 -0.414621
1399.7578125 2.416025 2.037775 -0.37825
1400.49609375 2.32719 1.929738 -0.397452
1401.2890625 2.104404 1.779651 -0.324753
1402.15625 2.091705 1.762669 -0.329036
1402.69140625 2.419006 0.334006 -2.085
1403.37890625 2.3363840000000002 1.406384 -0.93
1404.5390625 2.5345259999999996 2.189526 -0.345
1405.28125 2.346301 1.999739 -0.346562
1406.05859375 2.455096 2.17472 -0.280376
1406.89453125 2.461207 2.12 -0.341207
1407.71484375 2.436486 2.152707 -0.283779
1408.5390625 2.419979 2.124979 -0.295
1409.40234375 2.3861440000000003 2.058237 -0.327907
1410.19140625 2.50835 2.234409 -0.273941
1410.984375 2.426701 2.159275 -0.267426
1411.828125 2.119377 1.874902 -0.244475
1412.6953125 2.051106 1.816887 -0.234219
1413.61328125 2.332465 2.13992 -0.192545
1414.54296875 2.1602219999999996 2.065066 -0.095156
1415.41015625 2.212122 2.005317 -0.206805
1416.25 2.193418 1.91 -0.283418
1417.0859375 2.263025 1.879953 -0.383072
1417.88671875 2.329232 1.984682 -0.34455
1418.703125 2.410394 2.11207 -0.298324
1419.5390625 2.2248010000000003 1.954801 -0.27
1420.4140625 2.246626 1.973875 -0.272751
1421.26953125 2.22496 1.77996 -0.445
1422.04296875 2.1284970000000003 1.685302 -0.443195
1422.79296875 2.057886 1.672886 -0.385
1423.60546875 1.9946599999999999 1.630996 -0.363664
1424.0 2.857075 0.805 -2.052075
1425.1875 2.204411 1.866064 -0.338347
1425.9921875 1.8525749999999999 1.612984 -0.239591
1426.48046875 1.6146120000000002 1.309846 -0.304766
1427.48828125 2.309783 1.898205 -0.411578
1428.17578125 2.08677 1.694301 -0.392469
1428.83984375 2.106469 1.724571 -0.381898
1429.50390625 2.224993 1.839993 -0.385
1430.21484375 2.0239570000000002 1.7654 -0.258557
1430.96875 2.140619 1.824187 -0.316432
1431.74609375 2.070367 1.711607 -0.35876
1432.51953125 2.054009 1.709912 -0.344097
1433.30859375 2.1344529999999997 1.744503 -0.38995
1434.046875 2.024256 1.644256 -0.38
1434.78515625 2.092446 1.727874 -0.364572
1435.23046875 1.6344150000000002 1.024415 -0.61
1436.28515625 2.1428350000000003 1.682835 -0.46
1437.08203125 2.166292 1.861292 -0.305
1437.890625 2.367449 2.038047 -0.329402
1438.6953125 2.478444 2.033874 -0.44457
1439.42578125 2.304008 1.880874 -0.423134
1439.875 2.024781 1.37 -0.654781
1440.94140625 2.35114 1.853177 -0.497963
1441.734375 2.214667 1.714871 -0.499796
1442.50390625 2.271131 1.822172 -0.448959
1443.26171875 2.542727 2.055 -0.487727
1444.1015625 2.470561 2.138971 -0.33159
1444.640625 2.128495 1.363619 -0.764876
1445.75 2.66 2.11 -0.55
1446.46875 2.558857 2.099641 -0.459216
1446.96875 2.0467049999999998 1.456705 -0.59
1448.1484375 2.407083 2.041826 -0.365257
1449.03515625 2.231639 1.871077 -0.360562
1449.90234375 2.434143 2.082584 -0.351559
1450.8046875 2.345571 2.042743 -0.302828
1451.67578125 2.318768 1.922917 -0.395851
1452.19921875 1.9198250000000001 1.359825 -0.56
1453.29296875 2.3863280000000002 2.06 -0.326328
1454.10546875 2.372992 2.1 -0.272992
1454.99609375 2.440265 2.118142 -0.322123
1455.890625 2.338426 1.974082 -0.364344
1456.36328125 3.70183 1.465912 -2.235918
1457.5703125 2.674639 2.183334 -0.491305
1458.328125 2.633883 2.199262 -0.434621
1459.09375 2.609319 2.251001 -0.358318
1459.8515625 2.4495750000000003 2.064575 -0.385
1460.65625 2.365827 2.059107 -0.30672
1461.4921875 2.3239539999999996 2.041063 -0.282891
1462.36328125 2.5726999999999998 2.183563 -0.389137
1463.16015625 2.573829 2.229378 -0.344451
1463.91015625 2.471923 2.113314 -0.358609
1464.6640625 2.464843 2.099843 -0.365
1465.49609375 2.571192 2.172852 -0.39834
1466.29296875 2.592793 2.280105 -0.312688
1467.12109375 2.439899 2.18 -0.259899
1467.9921875 2.368883 2.029387 -0.339496
1468.85546875 2.566083 2.210285 -0.355798
1469.71484375 2.556878 2.180924 -0.375954
1470.484375 2.485606 2.162186 -0.32342
1471.28515625 2.4248629999999998 2.129863 -0.295
1472.1875 2.265816 1.909595 -0.356221
1473.078125 2.4547849999999998 2.089454 -0.365331
1473.91796875 2.4629630000000002 2.151047 -0.311916
1474.3515625 3.754811 1.56 -2.194811
1475.6328125 2.489737 2.028183 -0.461554
1476.40625 2.410131 1.997723 -0.412408
1477.171875 2.460938 2.064718 -0.39622
1477.94140625 2.440232 2.080784 -0.359448
1478.78515625 2.439153 2.173636 -0.265517
1479.23046875 3.6499260000000002 1.489951 -2.159975
1480.5078125 2.4937300000000002 2.1198 -0.37393
1481.3046875 2.467266 2.102523 -0.364743
1482.0859375 2.439589 2.06559 -0.373999
1482.84375 2.609576 2.128328 -0.481248
1483.61328125 2.470585 2.085753 -0.384832
1484.0234375 3.756431 1.430312 -2.326119
1485.2109375 2.534065 2.08 -0.454065
1486.05859375 2.4814979999999998 2.10653 -0.374968
1486.8984375 2.556567 2.132024 -0.424543
1487.65234375 2.543599 2.068345 -0.475254
1488.39453125 2.664922 2.224922 -0.44
1489.1328125 2.7637970000000003 2.25109 -0.512707
1489.9375 2.632088 2.194659 -0.437429
1490.73828125 2.601516 2.162545 -0.438971
1491.5390625 2.7349550000000002 2.239955 -0.495
1492.37109375 2.666735 2.177141 -0.489594
1493.203125 2.7145659999999996 2.079039 -0.635527
1493.94140625 2.585159 2.008241 -0.576918
1494.6484375 2.555255 1.979377 -0.575878
1495.390625 2.601483 2.071694 -0.529789
1496.171875 2.521559 2.084222 -0.437337
1497.01171875 2.442797 1.989386 -0.453411
1497.859375 2.4693110000000003 1.975443 -0.493868
1498.69140625 2.531601 2.074665 -0.456936
1499.5390625 2.5294090000000002 2.159409 -0.37
1500.3359375 2.5132399999999997 2.09963 -0.41361
1500.73046875 3.509969 1.364969 -2.145
1501.9375 2.478313 2.029182 -0.449131
1502.7890625 2.314784 1.904784 -0.41
1503.63671875 2.300961 1.991885 -0.309076
1504.51953125 2.364968 1.974982 -0.389986
1505.33203125 2.359804 1.931292 -0.428512
1505.7109375 3.379809 1.279823 -2.099986
1506.81640625 2.427218 1.951647 -0.475571
1507.54296875 2.3816669999999998 1.945172 -0.436495
1508.26953125 2.4589280000000002 2.07967 -0.379258
1509.01953125 2.408658 2.059682 -0.348976
1509.78125 2.56271 2.114609 -0.448101
1510.55078125 2.453078 2.075623 -0.377455
1511.33203125 2.681818 2.25188 -0.429938
1512.03125 2.530306 2.14576 -0.384546
1512.70703125 2.517224 2.065426 -0.451798
1513.41015625 2.649237 2.279695 -0.369542
1514.18359375 2.6557120000000003 2.274779 -0.380933
1514.98046875 2.629513 2.259653 -0.36986
1515.79296875 2.5905750000000003 2.264997 -0.325578
1516.66015625 2.627636 2.315 -0.312636
1517.50390625 2.6147359999999997 2.262705 -0.352031
1518.30078125 2.656796 2.323022 -0.333774
1518.6953125 3.962795 1.700005 -2.26279
1519.92578125 2.742033 2.386333 -0.3557
1520.796875 2.5718379999999996 2.3179 -0.253938
1521.6953125 2.606508 2.410364 -0.196144
1522.13671875 3.7881289999999996 1.538486 -2.249643
1523.4453125 2.7567839999999997 2.405 -0.351784
1524.2265625 2.571839 2.260183 -0.311656
1525.0078125 2.614403 2.352258 -0.262145
1525.4296875 3.938304 1.636504 -2.3018
1526.64453125 2.699719 2.349989 -0.34973
1527.46484375 2.427815 2.215 -0.212815
1528.04296875 1.98833 1.192109 -0.796221
1529.2109375 2.714979 2.394979 -0.32
1529.9453125 2.638738 2.280961 -0.357777
1530.703125 2.75978 2.384812 -0.374968
1531.4921875 2.6291770000000003 2.307986 -0.321191
1532.33984375 2.51795 2.239948 -0.278002
1533.21484375 2.58377 2.35377 -0.23
1533.63671875 3.739754 1.53572 -2.204034
1535.03125 2.653606 2.297969 -0.355637
1535.84375 2.640064 2.233906 -0.406158
1536.625 2.569788 2.145 -0.424788
1537.4375 2.449119 2.055625 -0.393494
1538.28125 2.565116 2.294258 -0.270858
1539.21484375 2.4022859999999997 2.178806 -0.22348
1540.13671875 2.393986 2.074095 -0.319891
1541.01953125 2.479754 2.199995 -0.279759
1541.91015625 2.466055 2.13 -0.336055
1542.75 2.4430050000000003 2.115 -0.328005
1543.59765625 2.4936960000000004 2.083696 -0.41
1544.5 2.476112 2.095 -0.381112
1545.44140625 2.309129 1.980845 -0.328284
1546.41015625 2.325506 1.96439 -0.361116
1547.234375 2.61372 2.245859 -0.367861
1548.00390625 2.484966 2.121994 -0.362972
1548.78125 2.486026 2.134635 -0.351391
1549.5546875 2.3943640000000004 2.078539 -0.315825
1550.31640625 2.2940129999999996 2.019163 -0.27485
1551.14453125 2.16468 1.864988 -0.299692
1551.5703125 3.210213 1.154445 -2.055768
1552.8125 2.377056 2.027056 -0.35
1553.58984375 2.492296 2.053373 -0.438923
1554.296875 2.4155510000000002 2.056703 -0.358848
1554.97265625 2.42161 2.034718 -0.386892
1555.76953125 2.5041469999999997 2.084843 -0.419304
1556.55078125 2.254388 1.860903 -0.393485
1557.32421875 2.163634 1.812272 -0.351362
1558.1484375 2.063895 1.739318 -0.324577
1558.9453125 2.255 1.905 -0.35
1559.70703125 2.24874 1.813565 -0.435175
1560.42578125 2.387443 1.938302 -0.449141
1561.1328125 2.265458 1.846078 -0.41938
1561.8671875 2.206509 1.889374 -0.317135
1562.65625 2.44347 2.132237 -0.311233
1563.1484375 1.902898 1.347898 -0.555
1564.19140625 2.08647 1.809842 -0.276628
1564.93359375 2.097108 1.836616 -0.260492
1565.6484375 2.057017 1.683345 -0.373672
1566.33203125 2.05626 1.637932 -0.418328
1566.99609375 2.182136 1.76129 -0.420846
1567.46875 1.9452180000000001 1.602629 -0.342589
1568.3515625 2.17643 1.872263 -0.304167
1569.08984375 2.055895 1.835895 -0.22
1569.859375 2.074121 1.802617 -0.271504
1570.59375 2.250826 1.887047 -0.363779
1571.27734375 2.4585529999999998 2.103553 -0.355
1571.72265625 1.792588 1.007306 -0.785282
1572.6015625 2.392102 2.07495 -0.317152
1573.27734375 2.26855 1.934574 -0.333976
1574.00390625 2.189254 1.90413 -0.285124
1574.75 2.3595040000000003 2.035 -0.324504
1575.5234375 2.334502 2.069813 -0.264689
1576.04296875 1.794171 1.079769 -0.714402
1577.1875 2.5110580000000002 2.117 -0.394058
1577.9140625 2.519953 2.069953 -0.45
1578.38671875 1.8731080000000002 1.018855 -0.854253
1579.3671875 2.6089849999999997 2.1782 -0.430785
1580.13671875 2.299321 1.97354 -0.325781
1580.640625 1.690078 0.992934 -0.697144
1581.765625 2.440134 2.07136 -0.368774
1582.5234375 2.17643 1.991688 -0.184742
1583.328125 2.289331 1.993064 -0.296267
1584.046875 2.3817459999999997 1.89207 -0.489676
1584.71484375 2.4316999999999998 2.032209 -0.399491
1585.3984375 2.47288 2.140517 -0.332363
1586.109375 2.469824 2.010328 -0.459496
1586.84375 2.450348 2.04345 -0.406898
1587.359375 1.901654 1.156771 -0.744883
1588.37890625 2.511884 2.127697 -0.384187
1589.1015625 2.409045 1.994045 -0.415
1589.5 3.7298590000000003 1.51 -2.219859
1590.59765625 2.6188290000000003 2.139104 -0.479725
1591.32421875 2.457014 2.051677 -0.405337
1592.07421875 2.401147 2.014571 -0.386576
1592.859375 2.52269 2.134877 -0.387813
1593.65625 2.4647580000000002 2.1265 -0.338258
1594.23828125 2.077892 1.328004 -0.749888
1595.34765625 2.613981 2.108237 -0.505744
1596.08203125 2.6493599999999997 2.203241 -0.446119
1596.859375 2.687376 2.264949 -0.422427
1597.66796875 2.683121 2.273536 -0.409585
1598.5078125 2.682194 2.253796 -0.428398
1599.3671875 2.587278 2.244401 -0.342877
1600.26171875 2.660984 2.26687 -0.394114
1601.16015625 2.4798630000000004 2.1514 -0.328463
1602.02734375 2.524077 2.063856 -0.460221
1602.84375 2.682598 2.182598 -0.5
1603.69921875 2.5987109999999998 2.164122 -0.434589
1604.64453125 2.564455 2.190293 -0.374162
1605.5859375 2.559255 2.179665 -0.37959
1606.5078125 2.531678 2.214581 -0.317097
1607.14453125 3.08985 1.29485 -1.795
1608.33984375 2.728406 2.32716 -0.401246
1609.1953125 2.6682029999999997 2.3 -0.368203
1609.7421875 2.927104 0.377161 -2.549943
1611.0234375 2.6168359999999997 2.215 -0.401836
1611.97265625 2.506968 2.156301 -0.350667
1612.8828125 2.554518 2.088345 -0.466173
1613.73046875 2.641563 2.169894 -0.471669
1614.5078125 2.62113 2.198318 -0.422812
1615.2890625 2.5849189999999997 2.164919 -0.42
1616.10546875 2.3971 2.014947 -0.382153
1616.7265625 2.486664 -0.240602 -2.727266
1617.81640625 2.494885 2.099782 -0.395103
1618.69921875 2.354316 2.004995 -0.349321
1619.53125 2.434182 2.034414 -0.399768
1619.91015625 3.444128 1.28069 -2.163438
1621.0703125 2.6051 2.109319 -0.495781
1621.859375 2.4596649999999998 2.046379 -0.413286
1622.703125 2.434145 2.073237 -0.360908
1623.5390625 2.648999 2.304609 -0.34439
1624.375 2.754152 2.425 -0.329152
1625.26171875 2.747478 2.403771 -0.343707
1626.0859375 2.902327 2.514775 -0.387552
1626.875 2.9200559999999998 2.585 -0.335056
1627.45703125 3.213474 2.398785 -0.814689
1628.58984375 2.7629539999999997 2.572748 -0.190206
1629.48046875 2.54885 2.424944 -0.123906
1630.390625 2.587974 2.372974 -0.215
1631.25 2.53789 2.255 -0.28289
1632.078125 2.464531 2.154531 -0.31
1632.87109375 2.330492 2.041484 -0.289008
1633.68359375 2.3880290000000004 2.049828 -0.338201
1634.09765625 3.167579 1.262791 -1.904788
1635.4140625 2.342763 2.029973 -0.31279
1636.3125 2.232665 1.937167 -0.295498
1637.1875 2.351385 2.032222 -0.319163
1637.96875 2.502782 2.09138 -0.411402
1638.75390625 2.698928 2.355 -0.343928
1639.57421875 2.520806 2.220913 -0.299893
1640.421875 2.615011 2.228253 -0.386758
1641.2890625 2.529678 2.169678 -0.36
1642.16015625 2.4270460000000003 2.102046 -0.325
1642.625 3.6672350000000002 1.54 -2.127235
1643.921875 2.606891 2.148885 -0.458006
1644.671875 2.403245 2.057207 -0.346038
1645.4921875 2.424991 2.103984 -0.321007
1646.3515625 2.4326980000000002 2.056957 -0.375741
1647.203125 2.424851 2.063503 -0.361348
1648.03515625 2.37773 2.01877 -0.35896
1648.890625 2.385288 2.006856 -0.378432
1649.68359375 2.512633 2.152186 -0.360447
1650.48046875 2.5161420000000003 2.115517 -0.400625
1651.25390625 2.377943 1.98413 -0.393813
1652.03125 2.333674 2.062556 -0.271118
1652.94140625 2.416967 2.152753 -0.264214
1653.84375 2.218881 2.013537 -0.205344
1654.71484375 2.464188 2.16 -0.304188
1655.55859375 2.5653940000000004 2.209649 -0.355745
1656.35546875 2.438354 2.059917 -0.378437
1657.16015625 2.452762 2.107762 -0.345
1657.96484375 2.3938740000000003 2.076766 -0.317108
1658.8046875 2.316263 2.027489 -0.288774
1659.68359375 2.19558 1.929838 -0.265742
1660.55859375 2.231488 1.995 -0.236488
1661.37890625 2.195526 1.799114 -0.396412
1662.140625 2.33 1.92 -0.41
1662.90234375 2.264175 1.869175 -0.395
1663.70703125 2.188937 1.809535 -0.379402
1664.53125 2.3031699999999997 1.914621 -0.388549
1665.37109375 2.406352 2.034086 -0.372266
1666.25390625 2.301545 2.06828 -0.233265
1667.1484375 2.396416 1.972412 -0.424004
1667.9375 2.524492 2.084524 -0.439968
1668.6875 2.432326 2.027315 -0.405011
1669.46484375 2.4393759999999998 2.009403 -0.429973
1670.28515625 2.3057540000000003 1.965186 -0.340568
1671.15234375 2.408657 2.053044 -0.355613
1671.98046875 2.386815 1.999923 -0.386892
1672.7890625 2.289954 1.889954 -0.4
1673.59765625 2.298645 1.861611 -0.437034
1674.33984375 2.351201 1.963072 -0.388129
1675.078125 2.245166 1.908219 -0.336947
1675.88671875 2.179466 1.829105 -0.350361
1676.359375 2.957639 2.25915 -0.698489
1676.86328125 2.239388 1.766865 -0.472523
1678.27734375 2.287162 1.937389 -0.349773
1679.10546875 2.328488 1.954988 -0.3735
1679.859375 2.435828 2.113426 -0.322402
1680.61328125 2.2877970000000003 2.002953 -0.284844
1681.33984375 2.217327 2.002682 -0.214645
1682.0625 2.205861 1.859687 -0.346174
1682.8125 2.273032 1.949208 -0.323824
1683.58203125 2.075383 1.830267 -0.245116
1684.37890625 2.19064 1.940777 -0.249863
1685.1640625 2.160382 1.814979 -0.345403
1685.875 2.119338 1.77 -0.349338
1686.54296875 2.040663 1.721804 -0.318859
1687.26953125 2.058456 1.714567 -0.343889
1687.98828125 2.127897 1.734723 -0.393174
1688.71875 2.171753 1.790594 -0.381159
1689.44140625 2.147932 1.773111 -0.374821
1690.171875 2.07463 1.828229 -0.246401
1690.890625 2.110827 1.855827 -0.255
1691.59765625 2.267742 1.954863 -0.312879
1692.2734375 2.52894 2.113991 -0.414949
1692.73046875 3.002917 2.369979 -0.632938
1693.6171875 2.119959 1.887106 -0.232853
1694.375 1.916798 1.685 -0.231798
1695.15234375 2.240678 1.833914 -0.406764
1695.90234375 1.972174 1.589868 -0.382306
1696.6640625 2.009595 1.639595 -0.37
1697.4296875 2.100819 1.617731 -0.483088
1698.12890625 2.002417 1.433184 -0.569233
1698.84765625 2.020771 1.579862 -0.440909
1699.5625 1.980085 1.573587 -0.406498
1700.296875 1.8960839999999999 1.474916 -0.421168
1701.078125 1.940596 1.58923 -0.351366
1701.89453125 1.9043100000000002 1.52431 -0.38
1702.6796875 1.8850090000000002 1.540688 -0.344321
1703.390625 1.916733 1.522905 -0.393828
1704.0859375 1.912266 1.49 -0.422266
1704.7578125 1.889893 1.515808 -0.374085
1705.453125 1.941167 1.554151 -0.387016
1706.171875 2.043153 1.599237 -0.443916
1706.6640625 2.9598590000000002 2.294859 -0.665
1707.61328125 2.251572 1.912288 -0.339284
1708.36328125 1.908332 1.633549 -0.274783
1709.08984375 2.121718 1.732682 -0.389036
1709.765625 2.004188 1.609188 -0.395
1710.3984375 1.918859 1.519792 -0.399067
1711.06640625 1.949611 1.514312 -0.435299
1711.51171875 2.473449 1.932562 -0.540887
1712.5 1.828284 1.49 -0.338284
1713.26171875 1.9454440000000002 1.575444 -0.37
1714.03515625 1.968814 1.588814 -0.38
1714.78515625 1.923424 1.643424 -0.28
1715.203125 3.211918 1.288961 -1.922957
1716.25 2.0436360000000002 1.685 -0.358636
1716.91796875 2.032967 1.713733 -0.319234
1717.6015625 2.315101 2.064813 -0.250288
1718.328125 2.215108 2.009716 -0.205392
1719.08984375 2.0884 1.832093 -0.256307
1719.58984375 1.620969 1.145969 -0.475
1720.7578125 2.1126970000000003 1.86705 -0.245647
1721.51953125 2.0045450000000002 1.84 -0.164545
1722.3046875 1.979095 1.754095 -0.225
1723.0859375 2.04215 1.794979 -0.247171
1723.8828125 1.995321 1.766665 -0.228656
1724.35546875 1.5741139999999998 1.019947 -0.554167
1725.58984375 2.023097 1.82681 -0.196287
1726.4609375 2.012731 1.78 -0.232731
1727.28515625 2.080758 1.767978 -0.31278
1728.0390625 2.219417 1.859832 -0.359585
1728.75390625 2.392753 2.039042 -0.353711
1729.23046875 1.964052 1.409989 -0.554063
1730.34765625 2.1703 1.879723 -0.290577
1731.1484375 2.006036 1.745696 -0.26034
1732.00390625 1.917459 1.612276 -0.305183
1732.83203125 1.8852669999999998 1.610267 -0.275
1733.62109375 2.064604 1.819216 -0.245388
1734.359375 2.06082 1.75 -0.31082
1734.79296875 1.6906659999999998 1.248031 -0.442635
1735.89453125 2.17993 1.839984 -0.339946
1736.71875 2.094971 1.829258 -0.265713
1737.578125 2.121646 1.799237 -0.322409
1738.3671875 2.215628 1.913898 -0.30173
1738.88671875 1.8596469999999998 1.479723 -0.379924
1739.953125 2.105395 1.779487 -0.325908
1740.70703125 1.984066 1.655 -0.329066
1741.484375 1.990933 1.68625 -0.304683
1741.8671875 3.0556099999999997 1.297034 -1.758576
1743.10546875 1.95626 1.684954 -0.271306
1743.92578125 2.084526 1.851967 -0.232559
1744.73828125 2.047288 1.778718 -0.26857
1745.50390625 1.9393690000000001 1.693227 -0.246142
1746.23046875 2.074935 1.759995 -0.31494
1746.95703125 1.973744 1.713501 -0.260243
1747.7265625 2.095588 1.776007 -0.319581
1748.484375 2.226152 2.002961 -0.223191
1749.2578125 2.100071 1.89705 -0.203021
1750.08984375 1.95153 1.759677 -0.191853
1750.91015625 2.051017 1.835361 -0.215656
1751.6484375 2.1403280000000002 1.887906 -0.252422
1752.3828125 2.198251 1.888251 -0.31
1753.109375 2.261348 1.895 -0.366348
1753.89453125 2.379028 2.014935 -0.364093
1754.73046875 2.259902 1.939902 -0.32
1755.5625 2.147347 1.841136 -0.306211
1756.3984375 2.140369 1.823264 -0.317105
1757.26953125 2.159682 1.744893 -0.414789
1758.03515625 2.420725 1.945506 -0.475219
1758.76171875 2.20771 1.785268 -0.422442
1759.50390625 2.1077690000000002 1.74 -0.367769
1760.28125 2.080658 1.765658 -0.315
1761.109375 2.043578 1.740934 -0.302644
1761.890625 2.261533 1.909126 -0.352407
1762.66796875 2.2110950000000003 1.808531 -0.402564
1763.453125 2.1549620000000003 1.799349 -0.355613
1764.1953125 2.120496 1.724246 -0.39625
1764.9296875 2.085239 1.630266 -0.454973
1765.6796875 1.9919250000000002 1.570343 -0.421582
1766.46484375 1.949662 1.53557 -0.414092
1767.28125 1.949225 1.58706 -0.362165
1768.13671875 1.9126630000000002 1.556758 -0.355905
1768.9375 1.8571330000000001 1.504167 -0.352966
1769.68359375 1.89263 1.557051 -0.335579
1770.42578125 2.061272 1.661788 -0.399484
1771.1328125 2.049188 1.721063 -0.328125
1771.8671875 2.142459 1.821604 -0.320855
1772.34375 2.9273249999999997 2.335139 -0.592186
1773.39453125 2.09425 1.749875 -0.344375
1774.17578125 1.930099 1.713512 -0.216587
1775.00390625 1.963 1.683954 -0.279046
1775.73828125 2.032166 1.663359 -0.368807
1776.4140625 2.309625 1.924625 -0.385
1776.85546875 1.959034 1.414988 -0.544046
1777.8984375 2.17691 1.754234 -0.422676
1778.66015625 2.453639 2.08527 -0.368369
1779.4140625 2.3133340000000002 1.968334 -0.345
1780.19140625 2.232496 1.934286 -0.29821
1780.96875 2.224978 1.864271 -0.360707
1781.7421875 2.212825 1.869374 -0.343451
1782.125 3.380455 1.355 -2.025455
1783.19921875 2.325205 1.874072 -0.451133
1783.9296875 2.171889 1.874963 -0.296926
1784.7734375 2.177506 1.807596 -0.36991
1785.59375 2.152405 1.787333 -0.365072
1786.40234375 2.169546 1.784707 -0.384839
1786.87890625 1.644111 1.059175 -0.584936
1787.984375 2.318753 1.955569 -0.363184
1788.73046875 2.258642 1.959801 -0.298841
1789.484375 2.270604 1.916618 -0.353986
1790.23828125 2.165641 1.877002 -0.288639
1791.04296875 2.055454 1.865454 -0.19
1791.88671875 2.4429089999999998 2.1881 -0.254809
1792.3828125 1.925986 1.357799 -0.568187
1793.4453125 2.18964 1.886045 -0.303595
1794.1640625 1.969089 1.664821 -0.304268
1794.87109375 1.8767859999999998 1.572361 -0.304425
1795.61328125 1.84985 1.586361 -0.263489
1796.3828125 1.916866 1.622426 -0.29444
1796.8828125 1.781597 1.411748 -0.369849
1797.94140625 1.938835 1.61446 -0.324375
1798.76953125 1.919975 1.609975 -0.31
1799.26171875 1.688898 1.321815 -0.367083
1800.21484375 1.976434 1.662773 -0.313661
1800.8984375 1.9441920000000001 1.607669 -0.336523
1801.36328125 1.563685 1.15313 -0.410555
1802.3203125 1.9493589999999998 1.618882 -0.330477
1803.09375 1.910604 1.564654 -0.34595
1803.83203125 1.972275 1.592331 -0.379944
1804.5234375 1.9371289999999999 1.595557 -0.341572
