4.1640625 2.941384 1.314717 -1.626667
4.48046875 0.476244 -0.420006 -0.89625
5.34765625 3.0660160000000003 1.291646 -1.77437
5.65234375 0.40709000000000006 -0.47 -0.87709
6.50390625 3.087155 1.367013 -1.720142
7.83984375 3.0544700000000002 1.36 -1.69447
9.0546875 2.999767 1.311521 -1.688246
10.1875 3.1909 1.446172 -1.744728
11.54296875 3.1434629999999997 1.51927 -1.624193
12.86328125 2.915054 1.304481 -1.610573
14.08984375 3.118459 1.465135 -1.653324
15.54296875 3.100103 1.445628 -1.654475
16.87109375 2.906948 1.18703 -1.719918
18.0859375 3.138362 1.301617 -1.836745
19.421875 3.048671 1.321579 -1.727092
20.76171875 2.7657610000000004 1.108065 -1.657696
22.00390625 3.038914 1.281161 -1.757753
23.359375 2.911802 1.34 -1.571802
24.703125 2.650403 1.097332 -1.553071
25.90625 2.898334 1.213088 -1.685246
27.20703125 2.788512 1.261718 -1.526794
28.5390625 2.6603149999999998 1.084722 -1.575593
29.76171875 2.897018 1.250183 -1.646835
31.109375 2.7662050000000002 1.29558 -1.470625
32.44921875 2.6445730000000003 1.111823 -1.53275
33.73828125 2.803148 1.234628 -1.56852
35.09765625 2.724927 1.271451 -1.453476
36.4296875 2.605661 1.13138 -1.474281
37.5859375 2.713763 1.229821 -1.483942
38.8671875 2.638305 1.196826 -1.441479
40.109375 2.5325290000000003 1.021371 -1.511158
41.24609375 2.780988 1.166148 -1.61484
42.4375 2.604973 1.1685 -1.436473
43.671875 2.510323 0.991843 -1.51848
44.7578125 2.637053 1.079844 -1.557209
45.87109375 2.691162 1.181301 -1.509861
47.078125 2.486798 1.033656 -1.453142
48.203125 2.635797 1.098011 -1.537786
49.27734375 2.6834939999999996 1.19589 -1.487604
50.54296875 2.556975 1.045347 -1.511628
51.7265625 2.616873 0.951873 -1.665
52.8515625 2.668359 1.048359 -1.62
54.1484375 2.620944 1.031959 -1.588985
55.32421875 2.755033 1.011947 -1.743086
56.44140625 2.752371 1.114252 -1.638119
57.65234375 2.709696 1.078187 -1.631509
58.79296875 2.754696 1.026777 -1.727919
59.875 2.949734 1.275 -1.674734
61.1171875 2.877141 1.250001 -1.62714
62.3828125 2.892684 1.199616 -1.693068
63.5390625 2.976876 1.344979 -1.631897
64.78515625 3.00748 1.338484 -1.668996
66.0 2.898685 1.29 -1.608685
67.15234375 3.188725 1.484255 -1.70447
68.3828125 2.990516 1.381805 -1.608711
69.6171875 2.9983199999999997 1.284819 -1.713501
70.73828125 3.1977029999999997 1.513817 -1.683886
71.984375 2.96976 1.37 -1.59976
73.19921875 3.059423 1.309366 -1.750057
74.296875 3.194877 1.617279 -1.577598
75.3359375 3.054658 1.454198 -1.60046
76.32421875 3.2419320000000003 1.41009 -1.831842
77.3359375 3.158526 1.264222 -1.894304
78.3359375 3.159964 1.319003 -1.840961
79.28125 3.171227 1.422149 -1.749078
80.3046875 3.040945 1.313714 -1.727231
81.359375 2.8762350000000003 1.234998 -1.641237
82.390625 3.049195 1.384999 -1.664196
83.51953125 2.872445 1.339876 -1.532569
84.84765625 2.769594 1.214264 -1.55533
86.1171875 2.8955390000000003 1.345212 -1.550327
87.421875 2.8195259999999998 1.323237 -1.496289
88.70703125 2.6913869999999998 1.116404 -1.574983
89.90625 2.944648 1.256915 -1.687733
91.11328125 2.824477 1.190709 -1.633768
92.3828125 2.690174 1.091243 -1.598931
93.54296875 2.872994 1.203091 -1.669903
94.7265625 2.794676 1.264676 -1.53
95.96484375 2.61376 1.110161 -1.503599
97.09375 2.903852 1.237713 -1.666139
98.26171875 2.860374 1.234751 -1.625623
99.66015625 2.767214 1.187555 -1.579659
100.84765625 2.8884090000000002 1.169287 -1.719122
101.98046875 2.95057 1.229843 -1.720727
103.38671875 2.801894 1.207749 -1.594145
104.56640625 2.978545 1.099175 -1.87937
105.64453125 2.978992 0.304995 -2.673997
106.65234375 2.977465 1.130549 -1.846916
107.62109375 3.1234029999999997 2.025768 -1.097635
108.625 2.974906 1.765 -1.209906
109.671875 2.896101 1.478354 -1.417747
110.6796875 3.0892850000000003 1.5 -1.589285
111.7421875 2.891217 1.393495 -1.497722
112.8515625 2.883001 1.213001 -1.67
113.94140625 3.030653 1.326727 -1.703926
115.3125 2.800879 1.196316 -1.604563
116.6953125 2.953152 1.178945 -1.774207
118.03515625 2.8777410000000003 1.268151 -1.60959
119.40625 2.770006 1.103431 -1.666575
120.61328125 3.026465 1.226844 -1.799621
121.84765625 2.899854 1.268274 -1.63158
123.14453125 2.8710269999999998 1.194897 -1.67613
124.3125 3.015307 1.178667 -1.83664
125.3984375 3.07774 1.216993 -1.860747
126.55859375 2.9261920000000003 1.209497 -1.716695
127.80078125 3.0016819999999997 1.213331 -1.788351
128.97265625 3.104638 1.342181 -1.762457
130.20703125 3.032884 1.377962 -1.654922
131.48046875 2.8449210000000003 1.244921 -1.6
132.50390625 2.956039 1.286601 -1.669438
133.51953125 2.843997 1.26977 -1.574227
134.5390625 2.9908330000000003 1.324935 -1.665898
135.59375 2.940562 1.603 -1.337562
137.0546875 2.854424 1.297731 -1.556693
138.35546875 2.952452 1.029779 -1.922673
139.69140625 2.813307 1.032878 -1.780429
141.01953125 2.702592 0.83495 -1.867642
142.2578125 2.78356 0.953951 -1.829609
143.56640625 2.657434 0.994668 -1.662766
144.8984375 2.6850449999999997 0.970634 -1.714411
146.078125 2.792223 1.118376 -1.673847
147.44140625 2.658628 1.059953 -1.598675
148.73828125 2.563373 0.968092 -1.595281
149.890625 2.854452 1.155 -1.699452
151.109375 2.699375 1.125891 -1.573484
152.4140625 2.554745 0.983681 -1.571064
153.60546875 2.7038729999999997 1.084808 -1.619065
154.765625 2.746283 1.186935 -1.559348
156.0703125 2.498657 0.944065 -1.554592
157.12890625 2.790634 1.095355 -1.695279
158.1875 2.697263 1.012647 -1.684616
159.2890625 2.678936 0.944088 -1.734848
160.453125 2.8044919999999998 1.041594 -1.762898
161.9609375 2.6896880000000003 1.019979 -1.669709
163.36328125 2.77832 0.982055 -1.796265
164.6328125 2.8335929999999996 1.124456 -1.709137
165.96875 2.771658 1.048182 -1.723476
167.23046875 2.8841419999999998 1.134769 -1.749373
168.4453125 2.876538 1.261654 -1.614884
169.75 2.8549889999999998 1.22 -1.634989
170.94140625 2.880739 1.168659 -1.71208
172.04296875 3.01539 1.293682 -1.721708
173.22265625 2.916444 1.281629 -1.634815
174.37109375 2.897586 1.207732 -1.689854
175.46875 3.097655 1.299368 -1.798287
176.57421875 3.148751 1.46349 -1.685261
177.953125 3.013529 1.41501 -1.598519
179.26953125 3.0041960000000003 1.316116 -1.68808
180.390625 3.286352 1.478366 -1.807986
181.71484375 3.284187 1.60084 -1.683347
182.98046875 3.093192 1.489847 -1.603345
184.046875 3.3791580000000003 1.517141 -1.862017
185.0625 3.1270540000000002 1.362644 -1.76441
186.0859375 3.163453 1.328923 -1.83453
187.07421875 3.353188 1.495394 -1.857794
188.10546875 3.105785 1.389963 -1.715822
189.52734375 3.164336 1.397666 -1.76667
190.84765625 3.1200200000000002 1.454051 -1.665969
192.2421875 2.917656 1.378699 -1.538957
193.5546875 3.091469 1.380112 -1.711357
194.8671875 3.094017 1.464623 -1.629394
196.25390625 2.91702 1.320038 -1.596982
197.48828125 3.051647 1.282009 -1.769638
198.6953125 3.021166 1.342569 -1.678597
200.03125 2.9462289999999998 1.332081 -1.614148
201.2890625 3.001854 1.31422 -1.687634
202.4609375 2.978486 1.372876 -1.60561
203.69140625 2.9488019999999997 1.362979 -1.585823
204.83984375 2.916861 1.237378 -1.679483
205.93359375 3.079473 1.448475 -1.630998
207.22265625 2.937618 1.352152 -1.585466
208.359375 2.955474 1.164341 -1.791133
209.38671875 2.95296 1.304215 -1.648745
210.4453125 2.832478 1.208142 -1.624336
211.46875 3.083877 1.384016 -1.699861
212.875 2.7714 1.33 -1.4414
214.1953125 2.835008 1.174017 -1.660991
215.4921875 2.675471 1.131197 -1.544274
216.87109375 2.611113 1.066285 -1.544828
218.140625 2.782203 1.173521 -1.608682
219.40234375 2.674385 1.249725 -1.42466
220.640625 2.757033 1.112545 -1.644488
221.77734375 2.7174180000000003 1.167305 -1.550113
223.0546875 2.700483 1.146325 -1.554158
224.24609375 2.705232 1.100394 -1.604838
225.3828125 2.959727 1.296466 -1.663261
226.55078125 2.979119 1.309117 -1.670002
227.80859375 2.711917 1.162997 -1.54892
228.90625 2.910684 1.270102 -1.640582
230.01171875 2.884549 1.316962 -1.567587
231.03125 2.934667 1.230703 -1.703964
232.01953125 3.144509 1.514879 -1.62963
233.06640625 3.037997 1.459065 -1.578932
234.078125 3.209361 1.464645 -1.744716
235.15234375 3.0902380000000003 1.458367 -1.631871
236.515625 2.9111320000000003 1.311523 -1.599609
237.8203125 3.054711 1.410078 -1.644633
239.18359375 2.9578949999999997 1.494353 -1.463542
240.53125 2.712556 1.183603 -1.528953
241.73828125 3.052819 1.310903 -1.741916
242.93359375 3.031948 1.408627 -1.623321
244.2265625 2.77698 1.211704 -1.565276
245.41015625 3.034258 1.345565 -1.688693
246.609375 2.9123900000000003 1.357572 -1.554818
247.859375 2.727274 1.243539 -1.483735
249.0390625 3.01743 1.334688 -1.682742
250.1953125 2.924115 1.415973 -1.508142
251.51171875 2.84273 1.332325 -1.510405
252.7109375 2.803446 1.189598 -1.613848
253.84375 2.809031 1.269219 -1.539812
255.08203125 2.901121 1.344994 -1.556127
256.3515625 2.848319 1.293319 -1.555
257.50390625 2.8811150000000003 1.408555 -1.47256
258.87109375 2.843502 1.328615 -1.514887
260.078125 2.8009399999999998 1.206298 -1.594642
261.21875 2.8637230000000002 1.307706 -1.556017
262.4765625 2.868238 1.318238 -1.55
263.72265625 2.659016 1.094874 -1.564142
264.85546875 2.9440299999999997 1.3149 -1.62913
266.109375 2.6956100000000003 1.142063 -1.553547
267.34765625 2.674043 1.114386 -1.559657
268.48046875 2.87811 1.244738 -1.633372
269.73828125 2.76262 1.209493 -1.553127
270.8515625 2.752101 1.094691 -1.65741
271.89453125 2.962821 1.276841 -1.68598
272.921875 2.965375 1.251784 -1.713591
273.91015625 3.011805 1.328588 -1.683217
274.91796875 2.995145 1.330239 -1.664906
275.90625 2.797031 1.216999 -1.580032
276.90625 2.7635560000000003 1.14206 -1.621496
277.91015625 2.84062 1.147808 -1.692812
278.91796875 2.8885170000000002 1.295258 -1.593259
280.32421875 2.71601 1.212684 -1.503326
281.59375 2.89902 1.254199 -1.644821
282.8984375 2.809544 1.315888 -1.493656
284.27734375 2.736998 1.250391 -1.486607
285.53515625 3.0695870000000003 1.315549 -1.754038
286.86328125 2.8737440000000003 1.353228 -1.520516
288.24609375 2.818038 1.218157 -1.599881
289.4765625 2.981499 1.267518 -1.713981
290.73046875 2.9063280000000002 1.354816 -1.551512
292.0 2.766783 1.215 -1.551783
293.171875 3.058011 1.385384 -1.672627
294.4140625 2.907778 1.444586 -1.463192
295.74609375 2.742868 1.198372 -1.544496
296.96484375 2.952852 1.284013 -1.668839
298.23046875 2.804405 1.33497 -1.469435
299.5625 2.669173 1.101562 -1.567611
300.796875 2.96443 1.292902 -1.671528
302.0625 2.809691 1.279756 -1.529935
303.421875 2.7514570000000003 1.117362 -1.634095
304.61328125 2.8896569999999997 1.21062 -1.679037
305.921875 2.704714 1.172226 -1.532488
307.203125 2.629036 1.056672 -1.572364
308.375 2.848895 1.205 -1.643895
309.62109375 2.7958309999999997 1.251023 -1.544808
310.80078125 2.594281 1.053026 -1.541255
311.8125 2.971735 1.277412 -1.694323
312.8125 2.8218129999999997 1.291855 -1.529958
313.83203125 2.734393 1.139474 -1.594919
314.82421875 2.989502 1.286612 -1.70289
315.98046875 2.7158749999999996 1.184783 -1.531092
317.44140625 2.7274510000000003 1.15311 -1.574341
318.78125 2.71401 1.238973 -1.475037
320.1171875 2.6110300000000004 1.255551 -1.355479
321.38671875 2.866526 1.293739 -1.572787
322.65625 2.690593 1.283846 -1.406747
323.98828125 2.574502 1.117188 -1.457314
325.21875 2.832694 1.31229 -1.520404
326.4453125 2.687725 1.317593 -1.370132
327.7109375 2.6944850000000002 1.204631 -1.489854
328.87109375 2.736486 1.231633 -1.504853
330.14453125 2.694312 1.209872 -1.48444
331.44921875 2.737843 1.131839 -1.606004
332.625 2.7493179999999997 1.22 -1.529318
333.91015625 2.740226 1.227978 -1.512248
335.17578125 2.784592 1.231259 -1.553333
336.34765625 2.892067 1.371936 -1.520131
337.66015625 2.749923 1.285631 -1.464292
338.9453125 2.794515 1.217653 -1.576862
340.11328125 2.9188330000000002 1.358596 -1.560237
341.3125 2.787295 1.267361 -1.519934
342.39453125 2.902208 1.264722 -1.637486
343.3828125 3.095228 1.361013 -1.734215
344.4140625 2.8924000000000003 1.272555 -1.619845
345.43359375 2.9764619999999997 1.279244 -1.697218
346.51171875 3.03333 1.409681 -1.623649
348.015625 2.900013 1.397756 -1.502257
349.37890625 3.010037 1.295446 -1.714591
350.72265625 3.0028449999999998 1.378665 -1.62418
352.08984375 2.7786150000000003 1.140185 -1.63843
353.31640625 3.002159 1.259098 -1.743061
354.66015625 2.9329799999999997 1.329319 -1.603661
355.96875 2.760655 1.13838 -1.622275
357.15625 2.999641 1.30359 -1.696051
358.40625 2.836316 1.313354 -1.522962
359.67578125 2.7108559999999997 1.218226 -1.49263
360.8515625 2.902266 1.237266 -1.665
361.97265625 2.864609 1.296202 -1.568407
363.21875 2.665845 1.191242 -1.474603
364.4140625 2.72734 1.117931 -1.609409
365.5234375 2.76706 1.26286 -1.5042
366.70703125 2.788786 1.213815 -1.574971
367.79296875 2.861856 1.142118 -1.719738
368.96875 2.822877 1.179884 -1.642993
370.2265625 2.718376 1.013376 -1.705
371.4140625 2.860283 1.164283 -1.696
372.67578125 2.770738 1.179664 -1.591074
373.93359375 2.764279 1.144129 -1.62015
375.0859375 2.7692680000000003 1.194534 -1.574734
376.3046875 2.59221 0.99997 -1.59224
377.4296875 2.87146 1.087198 -1.784262
378.61328125 2.8367430000000002 1.158048 -1.678695
379.87109375 2.6162929999999998 0.984121 -1.632172
381.03125 2.857254 1.159674 -1.69758
382.19140625 2.8879390000000003 1.253049 -1.63489
383.3671875 2.722989 1.168455 -1.554534
384.375 2.9767409999999996 1.19 -1.786741
385.359375 3.1083600000000002 1.317899 -1.790461
386.37890625 2.885693 1.190699 -1.694994
387.37890625 2.971657 1.191572 -1.780085
388.4375 3.164072 1.3395 -1.824572
389.7734375 3.0094459999999996 1.315 -1.694446
391.09765625 3.21413 1.35413 -1.86
392.31640625 3.1997410000000004 1.434179 -1.765562
393.71484375 2.949618 1.235134 -1.714484
394.97265625 3.23085 1.341554 -1.889296
396.265625 3.085595 1.36569 -1.719905
397.5390625 2.998349 1.184651 -1.813698
398.6875 3.1753530000000003 1.360943 -1.81441
399.9296875 3.063332 1.377605 -1.685727
401.15625 2.891965 1.195173 -1.696792
402.2890625 3.0488 1.286686 -1.762114
403.54296875 2.954186 1.251583 -1.702603
404.78125 2.777713 1.032905 -1.744808
405.84375 3.127802 1.223125 -1.904677
407.03515625 2.928955 1.203752 -1.725203
408.2578125 2.7222999999999997 1.067621 -1.654679
409.37109375 3.015577 1.234989 -1.780588
410.4453125 3.072668 1.344984 -1.727684
411.55078125 2.7995 1.147259 -1.652241
412.52734375 3.056073 1.244157 -1.811916
413.51953125 3.1190819999999997 1.354779 -1.764303
414.53515625 2.899507 1.227809 -1.671698
415.54296875 3.047266 1.257584 -1.789682
416.6484375 2.97953 1.248319 -1.731211
417.9375 2.740268 1.081071 -1.659197
419.19140625 2.848282 1.117899 -1.730383
420.46875 2.734398 1.1307 -1.603698
421.80859375 2.558523 0.993627 -1.564896
423.01171875 2.800827 1.087915 -1.712912
423.53125 1.462856 0.464641 -0.998215
424.2734375 2.609637 1.03 -1.579637
425.38671875 2.511195 0.939209 -1.571986
426.546875 2.669131 1.000381 -1.66875
427.68359375 2.660715 1.124141 -1.536574
428.8828125 2.520347 1.036664 -1.483683
429.98046875 2.748808 1.064797 -1.684011
431.09375 2.662787 1.065472 -1.597315
432.2890625 2.545259 0.989383 -1.555876
433.43359375 2.7310689999999997 1.052104 -1.678965
434.5625 2.723052 1.123729 -1.599323
435.75390625 2.534267 0.999699 -1.534568
436.76171875 2.839439 1.100931 -1.738508
437.77734375 2.7755720000000004 1.068742 -1.70683
438.7890625 2.771789 1.039857 -1.731932
439.7734375 2.98374 1.181366 -1.802374
440.8203125 2.836754 1.086875 -1.749879
442.05078125 2.7620940000000003 1.053866 -1.708228
443.3046875 3.065277 1.191226 -1.874051
444.47265625 2.931024 1.196836 -1.734188
445.6875 2.7712440000000003 1.036562 -1.734682
446.8515625 2.958869 1.248869 -1.71
448.046875 2.828579 1.151562 -1.677017
449.078125 2.909732 0.910633 -1.999099
450.0859375 2.87399 1.25899 -1.615
451.1015625 2.707178 1.217178 -1.49
452.05859375 3.100461 1.408563 -1.691898
452.984375 3.382923 1.459121 -1.923802
453.95703125 3.1802729999999997 1.260605 -1.919668
455.046875 3.247877 1.345 -1.902877
456.09765625 3.091026 1.256611 -1.834415
457.12109375 3.014921 1.235026 -1.779895
458.23828125 2.839966 1.138055 -1.701911
459.421875 2.826749 1.138781 -1.687968
460.7734375 2.747756 0.99518 -1.752576
462.0390625 2.7705830000000002 1.083469 -1.687114
463.375 2.734347 1.09 -1.644347
464.66015625 2.712932 0.993374 -1.719558
465.890625 2.713336 1.035784 -1.677552
467.19921875 2.679621 1.035538 -1.644083
468.421875 2.7670209999999997 1.024375 -1.742646
469.58984375 2.7442 1.035 -1.7092
470.828125 2.616319 0.970478 -1.645841
471.96484375 2.767858 1.058115 -1.709743
472.99609375 2.889575 1.189593 -1.699982
474.0078125 2.831334 1.113943 -1.717391
474.96484375 3.003729 1.133522 -1.870207
475.9375 3.0186390000000003 1.268705 -1.749934
476.9609375 2.926492 1.229306 -1.697186
478.11328125 2.846433 1.156812 -1.689621
479.26953125 2.885679 1.284958 -1.600721
480.515625 2.793351 1.164081 -1.62927
481.765625 2.9470029999999996 1.162702 -1.784301
482.92578125 2.877248 1.106877 -1.770371
484.125 2.7553 0.98 -1.7753
485.2734375 2.857574 1.114207 -1.743367
486.31640625 2.820709 1.028912 -1.791797
487.3515625 2.78 1.025 -1.755
488.3359375 2.7800849999999997 1.044211 -1.735874
489.30078125 2.531119 0.833928 -1.697191
490.2734375 2.7593360000000002 1.08 -1.679336
491.23046875 2.755874 0.985874 -1.77
492.1875 2.9646299999999997 1.219947 -1.744683
493.23046875 2.9316079999999998 1.254837 -1.676771
494.54296875 2.781469 1.193133 -1.588336
495.87109375 2.972476 1.372545 -1.599931
497.265625 2.9120369999999998 1.258006 -1.654031
498.578125 2.88262 1.206204 -1.676416
499.8046875 2.996364 1.334817 -1.661547
501.1171875 2.963026 1.370484 -1.592542
502.51953125 2.8452349999999997 1.239957 -1.605278
503.71875 3.051936 1.337151 -1.714785
505.03515625 3.047631 1.407965 -1.639666
506.390625 2.80726 1.187665 -1.619595
507.55859375 3.017032 1.279818 -1.737214
508.8046875 2.88932 1.219492 -1.669828
510.078125 2.844261 1.119735 -1.724526
511.22265625 2.979896 1.235345 -1.744551
512.35546875 2.876124 1.206124 -1.67
513.39453125 3.0875909999999998 1.26973 -1.817861
514.43359375 3.1650929999999997 1.307361 -1.857732
515.45703125 2.9455150000000003 1.226058 -1.719457
516.49609375 3.067203 1.30033 -1.766873
517.63671875 2.832609 1.220903 -1.611706
519.0078125 2.802012 1.154309 -1.647703
520.34765625 2.819264 1.281272 -1.537992
521.6953125 2.711146 1.162186 -1.54896
522.9609375 2.7530590000000004 1.08918 -1.663879
524.203125 2.741008 1.089829 -1.651179
525.51171875 2.585038 0.935 -1.650038
526.78515625 2.639095 0.895872 -1.743223
527.984375 2.657522 0.971971 -1.685551
529.2734375 2.525048 0.88617 -1.638878
530.4375 2.660621 0.940946 -1.719675
531.609375 2.606414 0.968209 -1.638205
532.8359375 2.534966 0.92431 -1.610656
533.96484375 2.598613 0.93823 -1.660383
535.14453125 2.547697 0.959909 -1.587788
536.3671875 2.466358 0.824517 -1.641841
537.5 2.656783 0.99 -1.666783
538.59375 2.60251 1.016756 -1.585754
539.59765625 2.7430969999999997 1.038951 -1.704146
540.58984375 2.7005470000000003 0.972628 -1.727919
541.59375 2.693546 0.897224 -1.796322
542.5546875 2.8326979999999997 1.056551 -1.776147
543.56640625 2.856687 1.098678 -1.758009
544.68359375 2.687089 0.993076 -1.694013
545.8515625 2.831759 1.081759 -1.75
547.31640625 2.8038119999999997 1.129729 -1.674083
548.640625 2.659493 1.025995 -1.633498
549.85546875 2.798616 1.098712 -1.699904
550.9453125 2.7582809999999998 0.960479 -1.797802
551.98828125 2.8443240000000003 1.080773 -1.763551
553.00390625 2.813003 1.058767 -1.754236
553.98046875 2.760834 1.129848 -1.630986
554.93359375 2.959686 1.269686 -1.69
555.85546875 3.214806 1.459806 -1.755
556.828125 3.067456 1.353277 -1.714179
557.78125 3.0806050000000003 1.347773 -1.732832
558.72265625 3.053805 1.508914 -1.544891
559.70703125 2.820945 1.32601 -1.494935
560.7421875 3.142403 1.530547 -1.611856
561.80078125 3.055313 1.465962 -1.589351
562.90234375 2.908633 1.304512 -1.604121
563.94921875 2.954416 1.247383 -1.707033
565.03125 2.9913790000000002 1.292239 -1.69914
566.1953125 2.852617 1.215295 -1.637322
567.46875 2.865403 1.156449 -1.708954
568.76171875 2.886998 1.244206 -1.642792
570.15625 2.778899 1.203896 -1.575003
571.41796875 2.880843 1.15623 -1.724613
572.70703125 2.913643 1.278739 -1.634904
574.08203125 2.787373 1.162431 -1.624942
575.3125 2.905342 1.205516 -1.699826
576.4765625 3.008319 1.303319 -1.705
577.6875 2.74833 1.123716 -1.624614
578.74609375 3.063738 1.278821 -1.784917
579.76953125 2.9249169999999998 1.184841 -1.740076
580.81640625 2.8875640000000002 1.179954 -1.70761
581.8515625 2.951625 1.263833 -1.687792
583.13671875 2.851559 1.157306 -1.694253
584.6484375 2.762396 1.089922 -1.672474
586.0859375 2.79614 1.269248 -1.526892
587.5234375 2.579012 1.06068 -1.518332
588.8359375 2.745513 1.002953 -1.74256
590.15625 2.573396 0.995012 -1.578384
591.5390625 2.548707 0.869317 -1.67939
592.7734375 2.663862 1.014802 -1.64906
594.04296875 2.531535 0.994717 -1.536818
595.23046875 2.592614 0.959939 -1.632675
596.39453125 2.74127 1.144936 -1.596334
597.6484375 2.660437 1.101234 -1.559203
598.796875 2.8071070000000002 1.168908 -1.638199
599.8203125 2.9900520000000004 1.278941 -1.711111
600.85546875 2.831672 1.224438 -1.607234
601.9375 2.905233 1.171364 -1.733869
603.1640625 2.891449 1.235 -1.656449
604.609375 2.698029 1.106396 -1.591633
605.9140625 2.970675 1.26428 -1.706395
607.296875 2.881429 1.253391 -1.628038
608.5546875 2.928419 1.154274 -1.774145
609.78515625 2.9335050000000003 1.238552 -1.694953
611.10546875 2.743645 1.158437 -1.585208
612.36328125 3.009035 1.19891 -1.810125
613.48046875 3.062874 1.314914 -1.74796
614.5625 3.2786350000000004 1.373725 -1.90491
615.57421875 3.1692299999999998 1.360156 -1.809074
616.59375 3.2153359999999997 1.270856 -1.94448
617.6640625 3.2049269999999996 1.304328 -1.900599
619.0546875 2.953294 1.178465 -1.774829
620.33203125 3.132918 1.188091 -1.944827
621.671875 2.957224 1.239829 -1.717395
623.01171875 2.7716089999999998 1.117183 -1.654426
624.26171875 2.9606589999999997 1.130488 -1.830171
625.50390625 2.834216 1.144343 -1.689873
626.66015625 2.982033 1.128727 -1.853306
627.91796875 2.7780810000000002 1.139344 -1.638737
629.19921875 2.714792 1.052189 -1.662603
630.390625 2.7342560000000002 1.125834 -1.608422
631.65625 2.707811 1.133632 -1.574179
632.91015625 2.77604 1.086399 -1.689641
634.09375 2.806517 1.102857 -1.70366
635.3046875 2.6880990000000002 1.058689 -1.62941
636.49609375 2.697483 0.947218 -1.750265
637.66015625 2.683904 1.045722 -1.638182
638.9140625 2.6747699999999996 1.004214 -1.670556
640.0703125 2.781168 1.067597 -1.713571
641.21875 2.762621 1.156848 -1.605773
642.53515625 2.547756 0.949713 -1.598043
643.66796875 2.820036 0.995608 -1.824428
644.859375 2.666054 0.991875 -1.674179
646.15234375 2.5636970000000003 0.849647 -1.71405
647.3046875 2.770661 0.983411 -1.78725
648.4921875 2.758971 1.119583 -1.639388
649.73828125 2.5277 0.89 -1.6377
650.9375 2.734084 0.964512 -1.769572
652.09375 2.7173410000000002 1.058945 -1.658396
653.375 2.528998 0.875 -1.653998
654.59375 2.739275 0.979462 -1.759813
655.72265625 2.789552 1.053788 -1.735764
656.9609375 2.6979569999999997 0.998237 -1.69972
658.203125 2.679309 0.95 -1.729309
659.328125 2.844286 1.129103 -1.715183
660.58984375 2.72342 1.022502 -1.700918
661.8359375 2.635182 0.952352 -1.68283
662.96875 2.809924 1.131656 -1.678268
664.16796875 2.7273630000000004 1.109398 -1.617965
665.40625 2.679175 1.021776 -1.657399
666.546875 2.795416 1.14783 -1.647586
667.71484375 2.728249 1.130916 -1.597333
668.78515625 2.7759099999999997 1.081661 -1.694249
669.828125 2.900016 1.113932 -1.786084
670.8203125 2.794949 1.080855 -1.714094
671.8046875 2.811432 1.080495 -1.730937
672.765625 2.9676 1.147894 -1.819706
673.76953125 3.1188010000000004 1.289935 -1.828866
674.82421875 2.983305 1.279228 -1.704077
676.19921875 2.820181 1.107638 -1.712543
677.5546875 2.9276679999999997 1.268767 -1.658901
678.9140625 2.9821 1.239702 -1.742398
680.12890625 2.9176029999999997 1.116205 -1.801398
681.35546875 2.9531169999999998 1.229995 -1.723122
682.6796875 2.839452 1.180817 -1.658635
683.88671875 3.00468 1.298596 -1.706084
685.10546875 2.895864 1.210864 -1.685
686.41015625 2.8147960000000003 1.07068 -1.744116
687.58203125 3.1097609999999998 1.184972 -1.924789
688.87890625 2.86977 1.208316 -1.661454
690.23828125 2.845338 1.077158 -1.76818
691.375 2.996716 1.205 -1.791716
692.66015625 2.8498270000000003 1.145523 -1.704304
693.9609375 2.84199 1.089793 -1.752197
695.125 2.9865440000000003 1.215 -1.771544
696.39453125 2.879778 1.164799 -1.714979
697.75390625 2.847142 1.031414 -1.815728
698.9296875 2.9239990000000002 1.201662 -1.722337
700.2109375 2.772736 1.103637 -1.669099
701.43359375 2.860398 1.082516 -1.777882
702.60546875 2.819941 1.209941 -1.61
703.83984375 2.646146 1.102345 -1.543801
705.04296875 2.71127 1.012902 -1.698368
706.171875 2.815951 1.153359 -1.662592
707.41015625 2.649603 1.00638 -1.643223
708.6328125 2.810473 1.075808 -1.734665
709.76953125 2.7600350000000002 1.131092 -1.628943
711.05859375 2.670156 1.102872 -1.567284
712.30859375 2.710238 1.073475 -1.636763
713.44921875 2.781962 1.057513 -1.724449
714.6484375 2.657854 1.02786 -1.629994
715.94140625 2.745908 1.013318 -1.73259
717.1015625 2.849882 1.156261 -1.693621
718.390625 2.732247 1.119341 -1.612906
719.61328125 2.780976 1.081818 -1.699158
720.75 2.757734 1.16 -1.597734
722.0078125 2.711281 1.096347 -1.614934
723.1640625 2.792046 1.094498 -1.697548
724.2734375 2.8371750000000002 1.194935 -1.64224
725.46875 2.718529 1.153529 -1.565
726.5859375 2.7976729999999996 1.124226 -1.673447
727.6640625 2.850866 1.164582 -1.686284
728.84375 2.69878 1.075189 -1.623591
729.98828125 2.681297 0.9747 -1.706597
731.12109375 2.870673 1.110953 -1.75972
732.33984375 2.7873900000000003 1.099394 -1.687996
733.546875 2.788603 1.067961 -1.720642
734.67578125 2.897982 1.160065 -1.737917
735.96875 2.755782 1.064724 -1.691058
737.21875 2.72776 1.00776 -1.72
738.3984375 2.761964 1.088355 -1.673609
739.71484375 2.6548629999999998 1.012373 -1.64249
740.9921875 2.623657 0.957914 -1.665743
742.1328125 2.722866 1.077131 -1.645735
743.3828125 2.702717 1.112361 -1.590356
744.578125 2.678955 1.02483 -1.654125
745.703125 2.7104150000000002 1.069213 -1.641202
746.921875 2.619084 1.012 -1.607084
748.125 2.549975 0.86 -1.689975
749.23828125 2.7016780000000002 0.997841 -1.703837
750.46484375 2.61782 0.940514 -1.677306
751.8125 2.444298 0.788711 -1.655587
752.96484375 2.68663 0.943315 -1.743315
754.19140625 2.593305 1.008731 -1.584574
755.453125 2.50773 0.898723 -1.609007
756.6484375 2.620574 0.900574 -1.72
757.7578125 2.710183 1.032514 -1.677669
759.02734375 2.592133 1.012484 -1.579649
760.20703125 2.605341 0.980496 -1.624845
761.19140625 2.792108 1.115515 -1.676593
762.20703125 2.7550090000000003 1.130114 -1.624895
763.16015625 2.934943 1.200835 -1.734108
764.1015625 2.925534 1.250534 -1.675
765.078125 2.782525 1.103026 -1.679499
766.07421875 2.8616200000000003 1.215517 -1.646103
767.3984375 2.851234 1.207827 -1.643407
768.46875 2.7774609999999997 1.145484 -1.631977
769.54296875 2.772292 1.122292 -1.65
770.64453125 2.915473 1.254971 -1.660502
771.88671875 2.850766 1.243687 -1.607079
773.16015625 2.841612 1.080767 -1.760845
774.34765625 2.894424 1.164728 -1.729696
775.60546875 2.901506 1.204948 -1.696558
776.8203125 2.719538 1.043918 -1.67562
778.00390625 3.102335 1.272335 -1.83
779.23046875 3.046133 1.276133 -1.77
780.51171875 2.80983 1.10914 -1.70069
781.671875 3.145861 1.257422 -1.888439
783.03125 2.9236940000000002 1.24871 -1.674984
784.40625 2.788812 1.153315 -1.635497
785.6640625 3.0256160000000003 1.233627 -1.791989
787.0234375 2.8455399999999997 1.230708 -1.614832
788.33984375 2.812941 1.209277 -1.603664
789.625 3.009175 1.23 -1.779175
790.94140625 2.976579 1.322948 -1.653631
792.23046875 2.80186 1.19686 -1.605
793.5078125 2.952148 1.248478 -1.70367
794.7265625 2.776867 1.201867 -1.575
796.0390625 2.809116 1.224591 -1.584525
797.25390625 2.859272 1.244028 -1.615244
798.5625 2.79086 1.191172 -1.599688
799.859375 2.583552 1.039484 -1.544068
801.05859375 2.784687 1.1061 -1.678587
802.26171875 2.7655469999999998 1.155523 -1.610024
803.54296875 2.6608020000000003 1.107026 -1.553776
804.67578125 2.831968 1.14738 -1.684588
805.7890625 2.813595 1.204246 -1.609349
806.87109375 2.6770389999999997 1.02707 -1.649969
807.83984375 2.960745 1.191957 -1.768788
808.83203125 2.9132249999999997 1.237652 -1.675573
809.8046875 2.839353 1.185972 -1.653381
810.7578125 3.0412920000000003 1.245098 -1.796194
811.8046875 2.914104 1.233036 -1.681068
813.28515625 2.669543 1.050978 -1.618565
814.67578125 2.771406 1.150201 -1.621205
816.1015625 2.741981 1.187693 -1.554288
817.42578125 2.7882160000000002 1.147727 -1.640489
818.6640625 2.8689229999999997 1.244548 -1.624375
819.95703125 2.772662 1.237673 -1.534989
821.203125 2.836194 1.223235 -1.612959
822.421875 2.860738 1.23332 -1.627418
823.6875 2.7037 1.16859 -1.53511
824.87890625 2.895373 1.241422 -1.653951
826.0625 2.938128 1.273192 -1.664936
827.41015625 2.747206 1.117484 -1.629722
828.609375 3.039961 1.301995 -1.737966
829.9453125 2.79624 1.245019 -1.551221
831.2734375 2.6990629999999998 1.114881 -1.584182
832.52734375 3.112527 1.32721 -1.785317
833.76953125 2.9648250000000003 1.369825 -1.595
835.0703125 2.836164 1.199655 -1.636509
836.25390625 2.962345 1.323223 -1.639122
837.56640625 2.926409 1.324661 -1.601748
838.8203125 2.785902 1.107344 -1.678558
839.96484375 3.039586 1.238237 -1.801349
841.19140625 2.8883419999999997 1.289663 -1.598679
842.43359375 2.795025 1.113602 -1.681423
843.54296875 2.928401 1.184179 -1.744222
844.7578125 2.739976 1.10782 -1.632156
845.9765625 2.688398 0.968398 -1.72
847.12890625 2.955856 1.110856 -1.845
848.42578125 2.763336 1.107182 -1.656154
849.70703125 2.72066 1.035882 -1.684778
850.921875 2.910373 1.169731 -1.740642
852.18359375 2.8360890000000003 1.238818 -1.597271
853.48828125 2.634543 1.109543 -1.525
854.65625 2.795954 1.1705 -1.625454
855.875 2.7649369999999998 1.205 -1.559937
857.07421875 2.571948 1.087383 -1.484565
858.2109375 2.798153 1.177812 -1.620341
859.3203125 2.735637 1.223025 -1.512612
860.5703125 2.600919 1.039852 -1.561067
861.8515625 2.605476 0.990476 -1.615
863.015625 2.807146 1.097658 -1.709488
864.05859375 2.723543 1.014754 -1.708789
865.0390625 2.832932 1.099671 -1.733261
866.03515625 2.965363 1.142637 -1.822726
867.0859375 2.775952 1.011164 -1.764788
868.3125 2.69177 0.93206 -1.75971
869.453125 2.819777 1.097352 -1.722425
870.75390625 2.733103 1.075365 -1.657738
872.07421875 2.625086 0.933433 -1.691653
873.16796875 2.7740989999999996 1.110628 -1.663471
874.328125 2.69516 1.046086 -1.649074
875.48828125 2.73217 0.982307 -1.749863
876.5703125 2.813463 1.106551 -1.706912
877.71484375 2.713833 1.04665 -1.667183
878.89453125 2.8275300000000003 1.059719 -1.767811
880.00390625 2.916513 1.153051 -1.763462
881.2578125 2.87696 1.167607 -1.709353
882.48046875 2.911397 1.121397 -1.79
883.59375 3.079518 1.263323 -1.816195
884.88671875 2.978573 1.278391 -1.700182
886.15234375 2.9968310000000002 1.217341 -1.77949
887.3125 3.165114 1.295156 -1.869958
888.5625 2.982815 1.231628 -1.751187
889.81640625 3.126054 1.255876 -1.870178
890.953125 3.149791 1.37529 -1.774501
892.25 3.069995 1.355 -1.714995
893.46875 3.175814 1.287758 -1.888056
894.6640625 3.1825229999999998 1.368794 -1.813729
895.921875 3.049569 1.322284 -1.727285
897.15234375 3.131266 1.372629 -1.758637
898.33203125 3.051642 1.38098 -1.670662
899.70703125 2.911734 1.265535 -1.646199
900.95703125 3.03142 1.201431 -1.829989
902.26171875 2.9218159999999997 1.258921 -1.662895
903.56640625 2.799908 1.144324 -1.655584
904.7890625 2.902065 1.127112 -1.774953
905.9765625 2.860672 1.170672 -1.69
907.34765625 2.746629 1.068206 -1.678423
908.59765625 2.723566 1.041507 -1.682059
909.74609375 2.804118 1.087208 -1.71691
911.0703125 2.6168310000000004 1.058386 -1.558445
912.35546875 2.769323 1.034814 -1.734509
913.5234375 2.8181529999999997 1.110779 -1.707374
914.78125 2.640864 0.984751 -1.656113
915.9921875 2.6565469999999998 0.937426 -1.719121
917.078125 2.727289 1.070607 -1.656682
918.2734375 2.630163 1.01723 -1.612933
919.4609375 2.708 0.999738 -1.708262
920.59375 2.8255429999999997 1.14743 -1.678113
921.86328125 2.673092 1.071503 -1.601589
923.09375 2.700508 1.089837 -1.610671
924.265625 2.862298 1.28295 -1.579348
925.5625 2.781361 1.231477 -1.549884
926.734375 2.798457 1.160265 -1.638192
927.8515625 2.9583589999999997 1.268359 -1.69
929.08203125 2.8035930000000002 1.183657 -1.619936
930.26953125 2.9624639999999998 1.239864 -1.7226
931.39453125 3.0907340000000003 1.329854 -1.76088
932.66796875 2.921995 1.272495 -1.6495
933.92578125 3.005752 1.256162 -1.74959
935.07421875 3.141509 1.43165 -1.709859
936.3828125 2.969482 1.341409 -1.628073
937.69140625 2.993422 1.284723 -1.708699
938.89453125 3.1554219999999997 1.439903 -1.715519
940.1796875 3.100486 1.364493 -1.735993
941.47265625 2.9668159999999997 1.193268 -1.773548
942.64453125 3.295381 1.409995 -1.885386
943.953125 3.1145959999999997 1.348271 -1.766325
945.2109375 2.926114 1.154366 -1.771748
946.3359375 3.209227 1.295591 -1.913636
947.546875 3.108299 1.354084 -1.754215
948.85546875 2.9441569999999997 1.249742 -1.694415
950.015625 3.116304 1.356304 -1.76
951.15625 3.065162 1.420663 -1.644499
952.3828125 2.929806 1.313523 -1.616283
953.5546875 3.041831 1.329406 -1.712425
954.68359375 3.009645 1.364818 -1.644827
955.953125 2.788082 1.21983 -1.568252
957.19921875 2.832568 1.227699 -1.604869
958.31640625 2.899095 1.260617 -1.638478
959.5859375 2.721643 1.163992 -1.557651
960.796875 2.687405 1.072744 -1.614661
961.90625 2.890858 1.152848 -1.73801
963.04296875 2.762422 1.06327 -1.699152
964.21484375 2.600341 0.980854 -1.619487
965.28125 2.7915460000000003 1.080424 -1.711122
966.34375 2.733755 1.148 -1.585755
967.515625 2.500739 1.018819 -1.48192
968.69140625 2.616235 1.013306 -1.602929
969.77734375 2.771743 1.151743 -1.62
971.01953125 2.668763 1.039908 -1.628855
972.29296875 2.623076 0.948507 -1.674569
973.4453125 2.806001 1.117813 -1.688188
974.71875 2.692983 1.079055 -1.613928
976.015625 2.604866 0.96 -1.644866
977.1796875 2.699705 1.060202 -1.639503
978.46484375 2.634214 1.055508 -1.578706
979.7734375 2.610874 1.031799 -1.579075
980.91015625 2.746806 1.133074 -1.613732
982.17578125 2.7081429999999997 1.143651 -1.564492
983.44140625 2.588062 0.968863 -1.619199
984.54296875 2.892522 1.153549 -1.738973
985.71484375 2.779054 1.183922 -1.595132
986.953125 2.632422 1.051042 -1.58138
988.08203125 2.943673 1.253684 -1.689989
989.3125 2.918682 1.304474 -1.614208
990.625 2.665 1.15 -1.515
991.7734375 3.003355 1.315 -1.688355
992.96875 2.9684619999999997 1.423948 -1.544514
994.1953125 2.8631140000000004 1.351015 -1.512099
995.421875 3.078157 1.413194 -1.664963
996.5859375 3.144748 1.469979 -1.674769
997.859375 2.98875 1.377088 -1.611662
999.109375 2.960356 1.299276 -1.66108
1000.265625 3.127186 1.437285 -1.689901
1001.5390625 2.973269 1.287635 -1.685634
1002.8125 2.937649 1.228099 -1.70955
1003.9296875 3.3291519999999997 1.471623 -1.857529
1005.10546875 3.09 1.46 -1.63
1006.29296875 2.943457 1.252068 -1.691389
1007.40625 3.149657 1.378696 -1.770961
1008.546875 3.080637 1.434537 -1.6461
1009.75 2.967968 1.355 -1.612968
1010.9140625 2.949712 1.289908 -1.659804
1012.0 3.079008 1.385 -1.694008
1013.13671875 2.914396 1.248227 -1.666169
1014.296875 2.867619 1.15251 -1.715109
1015.390625 3.031943 1.227134 -1.804809
1016.6328125 2.926717 1.226673 -1.700044
1017.953125 2.641132 1.144638 -1.496494
1019.19140625 3.0194039999999998 1.294032 -1.725372
1020.44140625 2.9227309999999997 1.283701 -1.63903
1021.69140625 2.664209 1.02409 -1.640119
1022.8203125 2.939189 1.19 -1.749189
1024.04296875 2.8465920000000002 1.212437 -1.634155
1025.26953125 2.673759 1.103857 -1.569902
1026.4140625 2.853205 1.144494 -1.708711
1027.54296875 2.791542 1.153431 -1.638111
1028.72265625 2.732875 1.088561 -1.644314
1029.91015625 2.773281 1.022146 -1.751135
1031.02734375 2.895592 1.203375 -1.692217
1032.2734375 2.751329 1.077868 -1.673461
1033.4765625 2.699344 1.034344 -1.665
1034.625 2.848383 1.125 -1.723383
1035.90625 2.815956 1.142666 -1.67329
1037.12109375 2.735853 1.005864 -1.729989
1038.2421875 2.951449 1.179909 -1.77154
1039.4296875 2.937678 1.226285 -1.711393
1040.63671875 2.766348 1.080546 -1.685802
1041.796875 3.093027 1.319099 -1.773928
1043.07421875 3.04217 1.407437 -1.634733
1044.37109375 2.870273 1.22533 -1.644943
1045.546875 3.099632 1.367633 -1.731999
1046.73828125 3.06511 1.419478 -1.645632
1047.88671875 2.822612 1.13771 -1.684902
1048.85546875 3.23 1.3 -1.93
1049.86328125 3.2740910000000003 1.485054 -1.789037
1050.828125 2.9980339999999996 1.3733 -1.624734
1051.7265625 3.1747069999999997 1.389707 -1.785
1052.671875 3.3520659999999998 1.554542 -1.797524
1053.60546875 3.174459 1.479799 -1.69466
1054.6875 3.0321049999999996 1.262368 -1.769737
1055.79296875 3.097991 1.376682 -1.721309
1057.2265625 2.895778 1.305778 -1.59
1058.59765625 2.9330410000000002 1.198041 -1.735
1059.88671875 2.8815939999999998 1.262224 -1.61937
1061.2578125 2.7696880000000004 1.15941 -1.610278
1062.60546875 2.924969 1.208851 -1.716118
1063.91015625 3.0132339999999997 1.349252 -1.663982
1065.26953125 2.768257 1.169886 -1.598371
1066.5078125 3.02648 1.164891 -1.861589
1067.7421875 2.887632 1.334136 -1.553496
1068.97265625 2.757649 1.152038 -1.605611
1070.078125 2.903525 1.188983 -1.714542
1071.2421875 2.844872 1.253204 -1.591668
1072.4296875 2.581487 1.075821 -1.505666
1073.54296875 2.813113 1.13146 -1.681653
1074.71484375 2.684329 1.173656 -1.510673
1075.890625 2.713922 1.124516 -1.589406
1076.99609375 2.7430000000000003 1.158107 -1.584893
1078.30078125 2.5886560000000003 1.054445 -1.534211
1079.48828125 2.744424 1.109882 -1.634542
1080.63671875 2.717607 1.177607 -1.54
1081.9140625 2.4911130000000004 1.029044 -1.462069
1083.23828125 2.6229050000000003 1.019101 -1.603804
1084.41796875 2.6326780000000003 1.047533 -1.585145
1085.79296875 2.628583 1.059748 -1.568835
1087.109375 2.5439369999999997 0.9496 -1.594337
1088.328125 2.7259349999999998 1.137566 -1.588369
1089.6015625 2.6166590000000003 1.118188 -1.498471
1090.859375 2.6311419999999996 1.039245 -1.591897
1091.9921875 2.702782 1.156992 -1.54579
1093.33203125 2.6600070000000002 1.130072 -1.529935
1094.625 2.638986 1.025 -1.613986
1095.78515625 2.6348890000000003 1.020107 -1.614782
1097.078125 2.538219 1.032881 -1.505338
1098.26953125 2.637118 0.985 -1.652118
1099.38671875 2.727586 1.086448 -1.641138
1100.640625 2.6666410000000003 1.035303 -1.631338
1101.84375 2.674639 0.994384 -1.680255
1102.921875 2.838992 1.143176 -1.695816
1104.1953125 2.796175 1.147578 -1.648597
1105.4296875 2.7366260000000002 1.016798 -1.719828
1106.46875 3.0824689999999997 1.240492 -1.841977
1107.47265625 2.996766 1.231927 -1.764839
1108.4609375 2.992223 1.213793 -1.77843
1109.4375 3.26341 1.348733 -1.914677
1110.4140625 3.248891 1.399631 -1.84926
1111.5234375 3.136126 1.236126 -1.9
1112.671875 3.2575010000000004 1.328167 -1.929334
1114.1640625 3.111719 1.379375 -1.732344
1115.53125 3.21875 1.253752 -1.964998
1116.890625 3.218431 1.414471 -1.80396
1118.2578125 3.080791 1.315166 -1.765625
1119.55078125 3.314507 1.407274 -1.907233
1120.8671875 3.1426790000000002 1.386977 -1.755702
1122.1328125 3.1244639999999997 1.219428 -1.905036
1123.2890625 3.384837 1.387729 -1.997108
1124.5234375 3.253284 1.448452 -1.804832
1125.72265625 3.298185 1.407199 -1.890986
1126.84765625 3.293756 1.448614 -1.845142
1128.140625 3.142929 1.38388 -1.759049
1129.3203125 3.194902 1.300129 -1.894773
1130.37890625 3.291435 1.383935 -1.9075
1131.5 3.1418670000000004 1.35 -1.791867
1132.76171875 3.00091 1.23073 -1.77018
1133.8984375 3.211243 1.332886 -1.878357
1135.171875 3.025359 1.34772 -1.677639
1136.58984375 2.85469 1.16948 -1.68521
1137.83984375 3.158054 1.317624 -1.84043
1139.04296875 3.002494 1.284994 -1.7175
1140.33984375 2.798528 1.110854 -1.687674
1141.51171875 2.979852 1.143383 -1.836469
1142.69921875 2.9132550000000004 1.164781 -1.748474
1143.890625 2.690252 0.985995 -1.704257
1144.9453125 2.9890090000000002 1.114689 -1.87432
1146.09375 2.841037 1.137634 -1.703403
1147.453125 2.634576 0.979737 -1.654839
1148.73046875 2.911123 1.024738 -1.886385
1149.94140625 2.8154529999999998 1.149604 -1.665849
1151.234375 2.715947 1.104269 -1.611678
1152.44140625 2.861195 1.068333 -1.792862
1153.56640625 2.8469480000000003 1.151125 -1.695823
1154.76953125 2.749636 1.0998 -1.649836
1156.02734375 2.829967 1.06858 -1.761387
1157.15625 2.854987 1.134987 -1.72
1158.47265625 2.6952220000000002 1.003935 -1.691287
1159.6484375 2.883412 1.035898 -1.847514
1160.8515625 2.8068600000000004 1.12186 -1.685
1162.14453125 2.693813 0.989957 -1.703856
1163.33203125 2.883886 1.053923 -1.829963
1164.5390625 2.858338 1.169666 -1.688672
1165.77734375 2.7192920000000003 1.069871 -1.649421
1166.93359375 2.941832 1.109906 -1.831926
1168.01171875 2.854127 1.133152 -1.720975
1169.18359375 2.8481069999999997 1.138776 -1.709331
1170.44140625 2.744431 0.989312 -1.755119
1171.60546875 2.8949949999999998 1.169995 -1.725
1172.83203125 2.794692 1.147689 -1.647003
1174.0859375 2.660949 0.949933 -1.711016
1175.23046875 2.926009 1.10559 -1.820419
1176.37890625 2.8131880000000002 1.113188 -1.7
1177.5546875 2.698894 0.989172 -1.709722
1178.6953125 2.783869 0.999728 -1.784141
1179.7734375 2.853602 1.089607 -1.763995
1180.94140625 2.70669 1.040915 -1.665775
1182.10546875 2.732095 1.034877 -1.697218
1183.16796875 2.9506930000000002 1.221504 -1.729189
1184.37109375 2.8074120000000002 1.143727 -1.663685
1185.58203125 2.6402270000000003 0.985373 -1.654854
1186.6953125 2.85117 1.164732 -1.686438
1187.88671875 2.769486 1.169486 -1.6
1189.1484375 2.6887100000000004 1.031246 -1.657464
1190.25390625 2.92701 1.182464 -1.744546
1191.42578125 2.7851939999999997 1.123276 -1.661918
1192.4921875 2.640905 0.934023 -1.706882
1193.4609375 3.016075 1.17979 -1.836285
1194.44140625 3.016264 1.217818 -1.798446
1195.42578125 2.867334 1.08959 -1.777744
1196.3828125 3.040264 1.184746 -1.855518
1197.56640625 2.85862 1.194796 -1.663824
1199.01171875 2.766971 1.131984 -1.634987
1200.36328125 2.8495179999999998 1.29475 -1.554768
1201.73828125 2.783865 1.27522 -1.508645
1203.0625 2.903866 1.229838 -1.674028
1204.29296875 2.9101559999999997 1.243454 -1.666702
1205.625 2.79711 1.2 -1.59711
1206.796875 2.988756 1.252155 -1.736601
1207.94921875 3.0714569999999997 1.296082 -1.775375
1209.16015625 2.966442 1.332369 -1.634073
1210.453125 3.032082 1.278207 -1.753875
1211.578125 3.1159869999999996 1.394831 -1.721156
1212.86328125 3.079388 1.341917 -1.737471
1214.1171875 3.036245 1.193044 -1.843201
1215.2421875 3.284981 1.452558 -1.832423
1216.45703125 3.182427 1.477799 -1.704628
1217.69921875 3.046181 1.375644 -1.670537
1218.7890625 3.348351 1.464803 -1.883548
1219.93359375 3.221356 1.504954 -1.716402
1221.1328125 3.171106 1.439427 -1.731679
1222.265625 3.293559 1.444325 -1.849234
1223.3984375 3.4141139999999996 1.53154 -1.882574
1224.73046875 3.251726 1.53994 -1.711786
1226.109375 3.211037 1.455674 -1.755363
1227.32421875 3.25564 1.528577 -1.727063
1228.6484375 3.135681 1.495762 -1.639919
1229.9375 3.121923 1.326923 -1.795
1231.125 3.166733 1.345 -1.821733
1232.39453125 3.054463 1.30995 -1.744513
1233.7109375 3.0759 1.289333 -1.786567
1234.82421875 3.069638 1.337713 -1.731925
1236.09375 2.946015 1.314739 -1.631276
1237.34375 2.918351 1.22375 -1.694601
1238.4609375 3.0744990000000003 1.288273 -1.786226
1239.69921875 2.9348840000000003 1.243617 -1.691267
1240.9296875 2.7584660000000003 1.069341 -1.689125
1242.05078125 2.964115 1.142315 -1.8218
1243.1328125 2.871744 1.119942 -1.751802
1244.39453125 2.760001 1.114782 -1.645219
1245.69140625 2.8048859999999998 1.072523 -1.732363
1246.83203125 2.892399 1.117654 -1.774745
1248.11328125 2.792442 1.095268 -1.697174
1249.39453125 2.78047 1.049995 -1.730475
1250.51171875 2.775186 1.104281 -1.670905
1251.7890625 2.825746 1.154576 -1.67117
1253.05078125 2.78474 1.018713 -1.766027
1254.16015625 2.928277 1.128552 -1.799725
1255.43359375 2.8901 1.16485 -1.72525
1256.66796875 2.6577070000000003 0.968542 -1.689165
1257.7890625 3.1223609999999997 1.209466 -1.912895
1258.9453125 2.894222 1.165754 -1.728468
1260.26171875 2.7821379999999998 1.140131 -1.642007
1261.47265625 2.975641 1.210641 -1.765
1262.6640625 2.956449 1.278897 -1.677552
1263.90234375 2.760928 1.263301 -1.497627
1265.10546875 2.9147689999999997 1.274769 -1.64
1266.1953125 3.014055 1.408923 -1.605132
1267.3984375 2.8690350000000002 1.290789 -1.578246
1268.578125 2.8687199999999997 1.187063 -1.681657
1269.6484375 2.9921189999999998 1.333507 -1.658612
1270.80078125 2.932391 1.301143 -1.631248
1271.96484375 2.929542 1.253373 -1.676169
1273.0390625 3.174056 1.359135 -1.814921
1274.14453125 3.0441390000000004 1.369139 -1.675
1275.37890625 2.905087 1.290087 -1.615
1276.55078125 3.042432 1.308656 -1.733776
1277.69140625 2.994478 1.300617 -1.693861
1278.8984375 2.9665340000000002 1.304437 -1.662097
1280.16015625 2.859687 1.179252 -1.680435
1281.28515625 3.003022 1.304937 -1.698085
1282.6328125 2.920182 1.274191 -1.645991
1283.9296875 2.822655 1.130126 -1.692529
1285.078125 3.0885949999999998 1.30629 -1.782305
1286.33984375 2.95784 1.221144 -1.736696
1287.671875 2.7866999999999997 1.05834 -1.72836
1288.875 3.102866 1.27 -1.832866
1290.14453125 2.976914 1.349811 -1.627103
1291.46484375 2.7179580000000003 1.139388 -1.57857
1292.671875 3.000605 1.196118 -1.804487
1293.828125 3.000536 1.29825 -1.702286
1295.11328125 2.831135 1.179032 -1.652103
1296.375 2.886741 1.16 -1.726741
1297.515625 3.028106 1.243484 -1.784622
1298.76171875 2.810832 1.152862 -1.65797
1300.0078125 2.746029 1.019267 -1.726762
1301.12109375 2.929652 1.215484 -1.714168
1302.32421875 2.826577 1.172628 -1.653949
1303.53125 2.709194 1.027187 -1.682007
1304.62109375 2.988392 1.188397 -1.799995
1305.859375 2.8241709999999998 1.171628 -1.652543
1307.1171875 2.693322 1.09759 -1.595732
1308.3046875 2.81234 1.07205 -1.74029
1309.3984375 2.8005519999999997 1.111896 -1.688656
1310.62109375 2.6249390000000004 1.036458 -1.588481
1311.80078125 2.8064359999999997 1.028216 -1.77822
1312.90625 2.811502 1.15562 -1.655882
1314.125 2.7818519999999998 1.145 -1.636852
1315.375 2.658349 1.045 -1.613349
1316.50390625 2.9729289999999997 1.160985 -1.811944
1317.68359375 2.7916990000000004 1.179677 -1.612022
1318.9140625 2.6998800000000003 1.078795 -1.621085
1320.0390625 3.0470699999999997 1.209328 -1.837742
1321.17578125 2.930086 1.227816 -1.70227
1322.38671875 2.7709970000000004 1.118346 -1.652651
1323.4375 3.102458 1.242958 -1.8595
1324.4453125 3.1618820000000003 1.31613 -1.845752
1325.4296875 3.0649740000000003 1.237281 -1.827693
1326.37890625 3.318047 1.341667 -1.97638
1327.34765625 3.425202 1.463788 -1.961414
1328.31640625 3.178321 1.339736 -1.838585
1329.29296875 3.195921 1.342175 -1.853746
1330.25390625 3.139002 1.315399 -1.823603
1331.22265625 3.2717330000000002 1.408262 -1.863471
1332.2734375 3.3637059999999996 1.519917 -1.843789
1333.734375 3.0279949999999998 1.334748 -1.693247
1335.02734375 3.1958 1.238836 -1.956964
1336.296875 3.1364799999999997 1.327016 -1.809464
1337.6953125 3.032512 1.326267 -1.706245
1338.96875 3.223783 1.383033 -1.84075
1340.23828125 3.221721 1.40253 -1.819191
1341.64453125 3.03238 1.334719 -1.697661
1342.953125 3.142645 1.315303 -1.827342
1344.0859375 3.26316 1.205074 -2.058086
1345.14453125 2.9925990000000002 1.149942 -1.842657
1346.1796875 2.9488250000000003 1.331769 -1.617056
1347.11328125 3.303444 1.397892 -1.905552
1348.078125 3.119092 1.369092 -1.75
1349.02734375 3.171679 1.360029 -1.81165
1349.98046875 3.217136 1.4299 -1.787236
1350.98828125 3.040517 1.383244 -1.657273
1352.04296875 2.895909 1.144675 -1.751234
1353.1796875 3.02989 1.29026 -1.73963
1354.65234375 2.855556 1.294427 -1.561129
1356.04296875 2.7636789999999998 1.138679 -1.625
1357.3515625 2.875706 1.200706 -1.675
1358.765625 2.6477630000000003 1.043006 -1.604757
1360.08203125 2.72976 0.994838 -1.734922
1361.3515625 2.7985189999999998 1.123519 -1.675
1362.66796875 2.686379 1.063133 -1.623246
1363.94921875 2.869721 1.065003 -1.804718
1365.296875 2.8234459999999997 1.156016 -1.66743
1366.62109375 2.761903 1.066497 -1.695406
1367.8125 2.832967 1.150776 -1.682191
1369.14453125 2.8126819999999997 1.199871 -1.612811
1370.43359375 2.927459 1.198221 -1.729238
1371.6171875 2.915721 1.229875 -1.685846
1372.93359375 2.8339160000000003 1.228161 -1.605755
1374.12890625 2.965902 1.238989 -1.726913
1375.21875 3.051919 1.35906 -1.692859
1376.41796875 2.8713379999999997 1.22705 -1.644288
1377.6328125 2.896757 1.170166 -1.726591
1378.7734375 3.097214 1.330002 -1.767212
1380.05859375 2.9517439999999997 1.251312 -1.700432
1381.3359375 3.0587 1.174362 -1.884338
1382.4921875 3.143003 1.316432 -1.826571
1383.75390625 2.9462479999999998 1.287353 -1.658895
1384.94921875 3.101183 1.282699 -1.818484
1386.078125 3.195483 1.352113 -1.84337
1387.3828125 3.089258 1.371292 -1.717966
1388.6875 3.090598 1.276429 -1.814169
1389.83984375 3.141738 1.347899 -1.793839
1391.1484375 3.0815979999999996 1.398839 -1.682759
1392.3984375 3.0370340000000002 1.229762 -1.807272
1393.515625 3.2144380000000004 1.420444 -1.793994
1394.71484375 3.087839 1.36408 -1.723759
1395.8203125 3.128098 1.302376 -1.825722
1396.89453125 3.163668 1.383761 -1.779907
1398.09375 3.0601010000000004 1.395285 -1.664816
1399.4296875 2.9765740000000003 1.252594 -1.72398
1400.5546875 3.117575 1.358956 -1.758619
1401.828125 3.0207680000000003 1.31827 -1.702498
1403.109375 2.86796 1.099857 -1.768103
1404.26953125 3.251533 1.344696 -1.906837
1405.3828125 3.09002 1.331162 -1.758858
1406.43359375 3.113562 1.31 -1.803562
1407.39453125 3.243287 1.381368 -1.861919
1408.34765625 3.178333 1.34801 -1.830323
1409.2890625 3.215951 1.329148 -1.886803
1410.23828125 3.077891 1.251073 -1.826818
1411.25 3.202381 1.215 -1.987381
1412.66015625 2.997851 1.194914 -1.802937
1414.09765625 2.808871 1.068057 -1.740814
1415.3828125 2.977333 1.11458 -1.862753
1416.796875 2.9480399999999998 1.193269 -1.754771
1418.18359375 2.694954 1.084954 -1.61
1419.4765625 2.963382 1.283382 -1.68
1420.78125 2.8800670000000004 1.325125 -1.554942
1422.125 2.678381 1.115 -1.563381
1423.3671875 2.9695650000000002 1.263577 -1.705988
1424.6328125 2.85738 1.313951 -1.543429
1425.8671875 2.7435669999999996 1.200532 -1.543035
1427.06640625 2.881975 1.164902 -1.717073
1428.20703125 2.955495 1.215732 -1.739763
1429.453125 2.806577 1.240261 -1.566316
1430.68359375 2.9167069999999997 1.229193 -1.687514
1431.80859375 3.091584 1.329313 -1.762271
1433.09375 2.9283580000000002 1.253955 -1.674403
1434.33984375 2.813891 1.140948 -1.672943
1435.49609375 2.90095 1.105367 -1.795583
1436.62890625 3.082329 1.203381 -1.878948
1436.9296875 0.9384129999999999 -0.264591 -1.203004
1437.71484375 3.670748 0.578653 -3.092095
1438.7578125 3.4329029999999996 1.283587 -2.149316
1439.890625 3.39252 1.537707 -1.854813
1440.96484375 3.5460510000000003 1.697316 -1.848735
1442.15625 3.499408 1.730243 -1.769165
1443.3671875 3.2799959999999997 1.533547 -1.746449
1444.484375 3.384788 1.518025 -1.866763
1445.58203125 3.430967 1.591093 -1.839874
1446.67578125 3.1305699999999996 1.579351 -1.551219
1447.69140625 3.081729 1.589733 -1.491996
1448.7109375 3.2331399999999997 1.464321 -1.768819
1449.734375 3.0041640000000003 1.347602 -1.656562
1450.8203125 2.991263 1.224191 -1.767072
1451.84375 3.1322349999999997 1.193611 -1.938624
1452.84765625 3.072664 1.200681 -1.871983
1453.93359375 2.901234 1.227902 -1.673332
1454.984375 2.746888 0.956567 -1.790321
1456.00390625 2.95293 1.026312 -1.926618
1457.01171875 2.8464289999999997 1.095511 -1.750918
1458.0625 2.803242 1.133715 -1.669527
1459.09375 2.7281649999999997 1.009326 -1.718839
1460.0390625 2.8934059999999997 1.029957 -1.863449
1461.05078125 2.8767009999999997 1.064749 -1.811952
1462.03515625 2.882519 0.568686 -2.313833
1462.9609375 3.282789 1.214934 -2.067855
1463.9453125 3.205787 0.924668 -2.281119
1464.91015625 2.915502 1.432355 -1.483147
1465.91015625 2.8028709999999997 1.263099 -1.539772
1466.91015625 3.0589180000000002 1.324865 -1.734053
1467.93359375 2.91025 1.500422 -1.409828
1469.01953125 2.7444509999999998 1.359761 -1.38469
1470.06640625 2.869839 1.174792 -1.695047
1471.109375 2.858053 1.085441 -1.772612
1472.33203125 2.749523 0.974587 -1.774936
1473.62890625 2.695949 0.85827 -1.837679
1474.88671875 2.729685 0.934479 -1.795206
1476.25 2.6952610000000004 0.935 -1.760261
1477.54296875 2.7860810000000003 0.838076 -1.948005
1478.65234375 2.8036950000000003 0.914733 -1.888962
1479.86328125 2.686649 0.949468 -1.737181
1481.0703125 2.817723 0.988391 -1.829332
1482.22265625 2.8018710000000002 1.074596 -1.727275
1483.546875 2.818305 1.132257 -1.686048
1484.80859375 2.980778 1.173383 -1.807395
1486.08984375 2.930161 1.256415 -1.673746
1487.296875 2.755572 1.139422 -1.61615
1488.4140625 3.107656 1.284616 -1.82304
1489.6328125 3.027852 1.320701 -1.707151
1490.9453125 2.944325 1.298558 -1.645767
1492.3125 3.228247 1.408571 -1.819676
1493.63671875 3.1138380000000003 1.405523 -1.708315
1494.9921875 2.9082160000000004 1.197426 -1.71079
1496.05859375 3.2203739999999996 1.218348 -2.002026
1497.12890625 3.231141 1.283263 -1.947878
1498.1953125 2.950642 1.135554 -1.815088
1499.23046875 3.343184 1.35997 -1.983214
1500.328125 3.262312 1.401413 -1.860899
1501.65625 3.0646820000000004 1.298842 -1.76584
1503.02734375 3.246263 1.291493 -1.95477
1504.484375 3.103402 1.359544 -1.743858
1505.890625 3.116833 1.256833 -1.86
1507.203125 3.137955 1.323845 -1.81411
1508.5703125 2.98058 1.343413 -1.637167
1509.85546875 3.061338 1.189899 -1.871439
1511.01953125 3.18525 1.299674 -1.885576
1512.2890625 3.03377 1.254331 -1.779439
1513.51953125 2.841858 1.039627 -1.802231
1514.6484375 3.154521 1.191015 -1.963506
1515.79296875 3.051926 1.247131 -1.804795
1516.3203125 1.7063929999999998 0.715 -0.991393
1517.00390625 2.9152 1.208367 -1.706833
1518.0078125 2.957326 1.134411 -1.822915
1519.06640625 3.016386 1.279335 -1.737051
1520.140625 2.822123 1.177853 -1.64427
1521.12890625 3.176304 1.224924 -1.95138
1522.1171875 3.1005000000000003 1.323505 -1.776995
1523.1484375 2.946287 1.260117 -1.68617
1524.16796875 2.992399 1.13921 -1.853189
1525.2265625 3.035305 1.115942 -1.919363
1526.47265625 2.901634 1.201128 -1.700506
1527.77734375 3.035722 1.169264 -1.866458
1529.10546875 2.981613 1.23497 -1.746643
1530.41015625 2.774183 1.125701 -1.648482
1531.63671875 2.9960389999999997 1.12991 -1.866129
1532.83203125 2.935525 1.165581 -1.769944
1534.1875 2.878453 1.113716 -1.764737
1535.484375 2.925742 1.077727 -1.848015
1536.65234375 2.985576 1.174092 -1.811484
1537.921875 2.8217030000000003 1.150728 -1.670975
1539.09765625 2.914453 1.121047 -1.793406
1540.20703125 3.125159 1.290302 -1.834857
1541.4296875 2.901551 1.273625 -1.627926
1542.6484375 3.0235849999999997 1.241755 -1.78183
1543.80078125 3.094182 1.40098 -1.693202
1545.0703125 2.921844 1.346692 -1.575152
1546.41015625 2.8735549999999996 1.162918 -1.710637
1547.4921875 3.43857 1.350056 -2.088514
1548.49609375 3.268896 1.339121 -1.929775
1549.5 3.100959 1.295 -1.805959
1550.4921875 3.3771899999999997 1.343768 -2.033422
1551.53515625 3.363297 1.486355 -1.876942
1552.640625 3.194068 1.445062 -1.749006
1554.0078125 3.210782 1.311973 -1.898809
1555.3984375 3.122103 1.377451 -1.744652
1556.80078125 3.042608 1.269483 -1.773125
1558.1328125 3.121818 1.314129 -1.807689
1559.52734375 2.976205 1.274077 -1.702128
1560.83984375 2.906484 1.208173 -1.698311
1562.05859375 3.1320319999999997 1.297305 -1.834727
1563.296875 3.108279 1.356596 -1.751683
1564.578125 2.909625 1.234898 -1.674727
1565.7109375 3.153378 1.314826 -1.838552
1566.91796875 3.0794059999999996 1.324717 -1.754689
1568.1640625 2.911115 1.229686 -1.681429
1569.3359375 2.8580750000000004 1.129933 -1.728142
1570.40625 3.224125 1.256544 -1.967581
1571.4375 3.0807339999999996 1.259048 -1.821686
1572.46875 2.941102 1.158018 -1.783084
1573.44921875 3.167191 1.229913 -1.937278
1574.5 2.9024900000000002 1.21 -1.69249
1575.6640625 3.040615 1.214521 -1.826094
1576.84765625 3.143554 1.344142 -1.799412
1578.32421875 2.889619 1.254887 -1.634732
1579.63671875 2.944343 1.12427 -1.820073
1580.91796875 2.998152 1.252817 -1.745335
1582.26953125 2.783696 1.119857 -1.663839
1583.5234375 2.900354 1.073473 -1.826881
1584.71484375 2.903766 1.16138 -1.742386
1585.98828125 2.707757 1.032228 -1.675529
1587.1484375 2.878252 1.055607 -1.822645
1588.27734375 2.8773479999999996 1.134969 -1.742379
1589.55078125 2.751253 1.025714 -1.725539
1590.90625 2.758381 0.88434 -1.874041
1592.1015625 3.005733 1.140733 -1.865
1593.4375 2.8107699999999998 1.138086 -1.672684
1594.65234375 3.00084 1.116709 -1.884131
1595.93359375 2.917163 1.182435 -1.734728
1597.22265625 2.827245 1.051084 -1.776161
1598.4140625 3.0570649999999997 1.198742 -1.858323
1599.8046875 2.941049 1.253384 -1.687665
1601.16015625 2.9472310000000004 1.178257 -1.768974
1602.33203125 3.173328 1.224811 -1.948517
1603.6015625 3.028385 1.263385 -1.765
1604.828125 2.9802869999999997 1.121942 -1.858345
1605.8671875 3.321751 1.271751 -2.05
1606.875 3.260229 1.28 -1.980229
1607.89453125 3.10628 1.124965 -1.981315
1608.890625 3.3408789999999997 1.289999 -2.05088
1609.96484375 3.1998369999999996 1.325303 -1.874534
1611.40234375 3.118379 1.242409 -1.87597
1612.70703125 3.2322889999999997 1.325701 -1.906588
1614.0859375 3.0279670000000003 1.282967 -1.745
1615.37890625 3.132232 1.23327 -1.898962
1616.61328125 3.177836 1.35567 -1.822166
1617.94921875 3.028668 1.298939 -1.729729
1619.140625 3.0529010000000003 1.183029 -1.869872
1620.28125 3.223146 1.398781 -1.824365
1621.5703125 2.90687 1.213386 -1.693484
1622.82421875 3.049062 1.207812 -1.84125
1624.02734375 3.1148369999999996 1.252735 -1.862102
1625.3359375 2.932505 1.202768 -1.729737
1626.60546875 2.908632 1.109726 -1.798906
1627.76171875 3.016524 1.248413 -1.768111
1629.0390625 2.8029580000000003 1.147729 -1.655229
1630.22265625 2.924638 1.131162 -1.793476
1631.375 3.02401 1.225 -1.79901
1632.6015625 2.902074 1.137074 -1.765
1633.76953125 2.999677 1.139824 -1.859853
1634.89453125 3.0417889999999996 1.229787 -1.812002
1636.1484375 2.853568 1.162432 -1.691136
1637.31640625 3.0049210000000004 1.213553 -1.791368
1638.4609375 2.9805479999999998 1.229979 -1.750569
1639.7578125 2.833551 1.110058 -1.723493
1640.9921875 2.920744 1.116772 -1.803972
1642.17578125 3.087338 1.281026 -1.806312
1643.45703125 2.828745 1.153162 -1.675583
1644.73046875 2.962201 1.114955 -1.847246
1645.859375 3.092978 1.298774 -1.794204
1647.1171875 2.937986 1.234212 -1.703774
1648.26171875 3.12981 1.256911 -1.872899
1649.3515625 3.1826990000000004 1.332699 -1.85
1650.54296875 3.0895650000000003 1.340127 -1.749438
1651.7265625 2.994791 1.229791 -1.765
1652.84375 3.210146 1.347205 -1.862941
1654.13671875 3.209418 1.433655 -1.775763
1655.46875 3.0743679999999998 1.314368 -1.76
1656.61328125 3.341295 1.48344 -1.857855
1657.8828125 3.206742 1.532785 -1.673957
1659.2109375 3.052947 1.40446 -1.648487
1660.39453125 3.300974 1.449664 -1.85131
1661.57421875 3.1513210000000003 1.432676 -1.718645
1662.87890625 2.934946 1.326343 -1.608603
1664.05859375 3.156589 1.362747 -1.793842
1665.125 3.25605 1.515 -1.74105
1666.2578125 3.081214 1.408283 -1.672931
1666.796875 1.6903920000000001 0.821797 -0.868595
1667.40625 3.02709 1.442073 -1.585017
1668.2578125 3.2509870000000003 1.435664 -1.815323
1669.234375 3.1151809999999998 1.408517 -1.706664
1670.2421875 3.103272 1.28477 -1.818502
1671.34375 3.154571 1.397112 -1.757459
1672.86328125 2.990561 1.403345 -1.587216
1674.234375 2.931287 1.285108 -1.646179
1675.64453125 2.8809820000000004 1.385299 -1.495683
1677.046875 2.680173 1.175561 -1.504612
1678.34765625 2.9248469999999998 1.248454 -1.676393
1679.72265625 2.8060460000000003 1.278032 -1.528014
1681.05078125 2.60475 1.077399 -1.527351
1682.26953125 2.852722 1.120852 -1.73187
1683.49609375 2.894727 1.215 -1.679727
1684.734375 2.706509 1.118004 -1.588505
1685.921875 2.8185640000000003 1.143564 -1.675
1687.07421875 2.818499 1.175177 -1.643322
1688.3046875 2.75479 1.070882 -1.683908
1689.56640625 2.724755 1.024671 -1.700084
1690.72265625 2.8148679999999997 1.114868 -1.7
1692.02734375 2.788313 1.146185 -1.642128
1693.30078125 2.692702 1.012164 -1.680538
1694.4453125 2.994951 1.235984 -1.758967
1695.64453125 2.873831 1.264746 -1.609085
1696.80859375 2.83126 1.084954 -1.746306
1697.90234375 2.8703000000000003 1.196415 -1.673885
1699.08984375 2.8197010000000002 1.193581 -1.62612
1700.234375 2.908529 1.164484 -1.744045
1701.3671875 2.986881 1.259296 -1.727585
1702.62890625 2.88194 1.281023 -1.600917
1703.85546875 2.943586 1.225864 -1.717722
1705.0234375 3.0186070000000003 1.312301 -1.706306
1706.28515625 2.926097 1.216505 -1.709592
1707.48046875 2.903976 1.104995 -1.798981
1708.56640625 3.051428 1.256715 -1.794713
1709.77734375 2.874253 1.154872 -1.719381
1710.90234375 2.994664 1.193772 -1.800892
1712.0078125 3.148313 1.371162 -1.777151
1713.1875 3.062651 1.303105 -1.759546
1714.3125 3.048178 1.259199 -1.788979
1715.33984375 3.271448 1.345 -1.926448
1716.34765625 3.341406 1.50376 -1.837646
1717.35546875 3.298739 1.419711 -1.879028
1718.33203125 3.5772639999999996 1.562358 -2.014906
1719.3828125 3.3065670000000003 1.479322 -1.827245
1720.734375 3.1584830000000004 1.362705 -1.795778
1722.0546875 3.310537 1.46 -1.850537
1723.4453125 3.0677890000000003 1.376378 -1.691411
1724.80078125 2.997951 1.21122 -1.786731
1725.99609375 3.212673 1.298729 -1.913944
1727.30078125 3.069884 1.310755 -1.759129
1728.5859375 2.902316 1.099049 -1.803267
1729.76953125 3.202676 1.263971 -1.938705
1730.97265625 3.071943 1.361578 -1.710365
1732.27734375 2.871964 1.206635 -1.665329
1733.4609375 3.092665 1.242246 -1.850419
1734.57421875 3.158126 1.386324 -1.771802
1735.8125 2.9413210000000003 1.191667 -1.749654
1737.01953125 2.9927789999999996 1.213903 -1.778876
1738.1328125 3.1526889999999996 1.283305 -1.869384
1739.34765625 2.9492760000000002 1.218959 -1.730317
1740.484375 2.979359 1.14731 -1.832049
1741.59765625 3.0664540000000002 1.28504 -1.781414
1742.8046875 2.968399 1.25512 -1.713279
1744.0 2.8983809999999997 1.13 -1.768381
1745.15625 3.113588 1.309094 -1.804494
1746.453125 2.960529 1.315796 -1.644733
1747.82421875 2.794845 1.160762 -1.634083
1749.05078125 3.121864 1.276143 -1.845721
1750.24609375 3.101642 1.381745 -1.719897
1751.45703125 2.966031 1.316066 -1.649965
1752.61328125 3.194387 1.347104 -1.847283
1753.796875 3.118439 1.40463 -1.713809
1755.1484375 3.007934 1.348605 -1.659329
1756.41796875 3.139683 1.279873 -1.85981
1757.64453125 3.190366 1.36975 -1.820616
1758.90625 2.926361 1.230058 -1.696303
1760.1328125 3.1124 1.378287 -1.734113
1761.265625 3.244963 1.410332 -1.834631
1762.5078125 3.07412 1.333287 -1.740833
1763.75 3.196443 1.285 -1.911443
1764.890625 3.218711 1.38034 -1.838371
1766.0859375 3.14805 1.344539 -1.803511
1767.29296875 3.0140390000000004 1.263872 -1.750167
1768.40234375 3.3331299999999997 1.464737 -1.868393
1769.6015625 3.1440159999999997 1.434016 -1.71
1770.8828125 2.959739 1.286216 -1.673523
1772.04296875 3.226019 1.395943 -1.830076
1773.12109375 3.257965 1.428258 -1.829707
1774.29296875 3.052886 1.37719 -1.675696
1775.4375 3.036342 1.3716 -1.664742
1776.55859375 3.154743 1.419743 -1.735
1777.70703125 3.03838 1.286422 -1.751958
1778.82421875 2.916056 1.128007 -1.788049
1779.83984375 3.067344 1.205447 -1.861897
1780.7734375 3.31114 1.322456 -1.988684
1781.73828125 3.141852 1.277566 -1.864286
1782.66015625 3.109849 1.270458 -1.839391
1783.609375 3.007338 1.245122 -1.762216
1784.59375 3.164099 1.29743 -1.866669
1785.6015625 3.083559 1.275846 -1.807713
1786.72265625 2.976768 1.273815 -1.702953
1787.85546875 2.8079910000000003 1.144891 -1.6631
1788.9140625 3.021782 1.186925 -1.834857
1790.00390625 3.1583740000000002 1.229118 -1.929256
1791.07421875 2.959298 0.811626 -2.147672
1792.0859375 3.1738049999999998 1.210588 -1.963217
1793.0703125 3.310583 1.118747 -2.191836
1794.3125 3.164647 1.396071 -1.768576
1795.43359375 2.952546 1.254852 -1.697694
1796.4921875 2.8915420000000003 1.24962 -1.641922
1797.55078125 2.849557 1.15 -1.699557
1798.62890625 2.701331 0.996601 -1.70473
1799.66015625 2.884601 1.062489 -1.822112
1800.6875 2.8178989999999997 1.108962 -1.708937
1801.7421875 2.6688039999999997 1.018472 -1.650332
1802.7734375 2.6325130000000003 0.913089 -1.719424
1803.73046875 2.885865 1.049907 -1.835958
