27 
164 
321 
431 
602 
755 
909 
1114 
1279 
1429 
1586 
1769 
1941 
2110 
2295 
2449 
2599 
2713 
2939 
3102 
3253 
3417 
3630 
3799 
3990 
4130 
4318 
4511 
4779 
4926 
5096 
5259 
5402 
5563 
5960 
6151 
6298 
6459 
6681 
6868 
7026 
7273 
7452 
7631 
7774 
7872 
8112 
8285 
8465 
8638 
8787 
8898 
9081 
9242 
9373 
9552 
9745 
9925 
10082 
10261 
10416 
10620 
10785 
10947 
11109 
11274 
11453 
11614 
11794 
11965 
12065 
12259 
12445 
12634 
12824 
12969 
13151 
13317 
13481 
13581 
13750 
13893 
14043 
14232 
14403 
14571 
14701 
14953 
15095 
15235 
15374 
15517 
15689 
15884 
16070 
16254 
16472 
16654 
16833 
17009 
17190 
17359 
17550 
17741 
17901 
18041 
18152 
18365 
18548 
18694 
18840 
19029 
19265 
19446 
19598 
19773 
19968 
20133 
20337 
20527 
20703 
20902 
21079 
21255 
21465 
21638 
21805 
21998 
22137 
22332 
22483 
22682 
22849 
22984 
23135 
23313 
23511 
23694 
23884 
24072 
24257 
24434 
24595 
24734 
24925 
25055 
25153 
25370 
25525 
25705 
25884 
26044 
26218 
26383 
26531 
26731 
26920 
27104 
27272 
27437 
27614 
27767 
27962 
28115 
28314 
28509 
28664 
28813 
28984 
29175 
29355 
29543 
29722 
29887 
30058 
30200 
30337 
30506 
30646 
30810 
30954 
31131 
31369 
31539 
31707 
31824 
32023 
32134 
32351 
32462 
32683 
32864 
33004 
33171 
33302 
33487 
33662 
33815 
33996 
34190 
34326 
34490 
34714 
34893 
35054 
35198 
35321 
35538 
35745 
35939 
36118 
36293 
36483 
36623 
36831 
37024 
37225 
37399 
37617 
37795 
37974 
38149 
38361 
38560 
38779 
38942 
39096 
39263 
39483 
39663 
39850 
40029 
40234 
40426 
40610 
40784 
40945 
41125 
41296 
41488 
41638 
41827 
41989 
42227 
42375 
42567 
42736 
42909 
43055 
43195 
43375 
43558 
43739 
43926 
44089 
44254 
44412 
44581 
44771 
44934 
45125 
45295 
45458 
45653 
45829 
46045 
46202 
46377 
46578 
46782 
46947 
47134 
47364 
47506 
47689 
47865 
48038 
48227 
48426 
48598 
48744 
48924 
49109 
49268 
49426 
49585 
49776 
49971 
50144 
50327 
50494 
50676 
50835 
50992 
51140 
51243 
51589 
51750 
51909 
52057 
52227 
52403 
52603 
52786 
52942 
53040 
53198 
53369 
53515 
53660 
53790 
53998 
54188 
54349 
54519 
54669 
54849 
54990 
55126 
55309 
55478 
55650 
55823 
55997 
56154 
56282 
56503 
56675 
56845 
57026 
57203 
57304 
57516 
57717 
57826 
57924 
58046 
58209 
58367 
58496 
58603 
58695 
58797 
58950 
59068 
59290 
59482 
59613 
59712 
59941 
60092 
60279 
60473 
60570 
60661 
60840 
61011 
61197 
61366 
61525 
61668 
61943 
62137 
62333 
62484 
62669 
62843 
63015 
63172 
63326 
63498 
63700 
63913 
64101 
64247 
64404 
64597 
64782 
64953 
65113 
65292 
65506 
65695 
65986 
66129 
66302 
66405 
66593 
66774 
66962 
67170 
67334 
67576 
67741 
67950 
68138 
68321 
68534 
68695 
68809 
69029 
69206 
69374 
69555 
69730 
69949 
70076 
70236 
70436 
70612 
70792 
70977 
71122 
71287 
71492 
71637 
71791 
71978 
72134 
72277 
72453 
72619 
72792 
72978 
73172 
73348 
73545 
73694 
73861 
74040 
74244 
74456 
74622 
74785 
74955 
75154 
75328 
75475 
75635 
75753 
75948 
76138 
76298 
76447 
76596 
76771 
76923 
77018 
77250 
77380 
77539 
77712 
77884 
78042 
78211 
78390 
78570 
78753 
78915 
79104 
79297 
79463 
79630 
79821 
79982 
80130 
80307 
80457 
80606 
80777 
80997 
81183 
81332 
81472 
81598 
81807 
81997 
82161 
82329 
82434 
82635 
82806 
82972 
83122 
83301 
83548 
83726 
83889 
84115 
84283 
84458 
84620 
84797 
84962 
85075 
85304 
85450 
85612 
85853 
86070 
86249 
86427 
86624 
86799 
86999 
87164 
87337 
87503 
87660 
87817 
88035 
88200 
88373 
88538 
88750 
88943 
89095 
89281 
89461 
89671 
89869 
90040 
90217 
90412 
90589 
90755 
90919 
91104 
91307 
91449 
91627 
91738 
91937 
92090 
92257 
92441 
92626 
92823 
93013 
93246 
93500 
93678 
93861 
94046 
94233 
94425 
94597 
94803 
95014 
95196 
95338 
95544 
95731 
95911 
96107 
96271 
96445 
96592 
96763 
96935 
97167 
97340 
97541 
97718 
97892 
98067 
98228 
98412 
98591 
98780 
99032 
99205 
99384 
99564 
99719 
99930 
100131 
100327 
100508 
100714 
100907 
101102 
101238 
101400 
101579 
101748 
101952 
102148 
102341 
102528 
102704 
102863 
103039 
103188 
103391 
103598 
103764 
103947 
104095 
104250 
104403 
104547 
104693 
104926 
105110 
105302 
105469 
105620 
105786 
105952 
106109 
106339 
106530 
106687 
106876 
107059 
107236 
107386 
107539 
107687 
107814 
107910 
108023 
108109 
108226 
108328 
108504 
108602 
108829 
108995 
109141 
109322 
109528 
109718 
109890 
110048 
110226 
110490 
110662 
110851 
111031 
111234 
111416 
111585 
111757 
111913 
112063 
112216 
112367 
112561 
112731 
113015 
113201 
113392 
113575 
113718 
113890 
114076 
114277 
114460 
114625 
114815 
114974 
115139 
115303 
115497 
115683 
115798 
115987 
116153 
116320 
116501 
116602 
116766 
116925 
117136 
117330 
117519 
117671 
117814 
117980 
118165 
118365 
118518 
118659 
118832 
119009 
119185 
119378 
119593 
119769 
119939 
120129 
120319 
120483 
120672 
120912 
121036 
121210 
121305 
121483 
121669 
121856 
122007 
122175 
122367 
122553 
122704 
122878 
123038 
123215 
123430 
123608 
123853 
124139 
124318 
124509 
124694 
124860 
125074 
125261 
125429 
125570 
125668 
125827 
125956 
126137 
126352 
126552 
126728 
126914 
127095 
127229 
127469 
127630 
127939 
128120 
128308 
128470 
128673 
128849 
129011 
129154 
129313 
129521 
129731 
129940 
130107 
130258 
130427 
130605 
130793 
130989 
131151 
131341 
131518 
131626 
131868 
131984 
132172 
132384 
132586 
132770 
132944 
133105 
133252 
133422 
133597 
133765 
133948 
134156 
134324 
134525 
134709 
134867 
135075 
135247 
135402 
135579 
135765 
135955 
136157 
136351 
136545 
136716 
136877 
137074 
137276 
137443 
137619 
137774 
137925 
138021 
138245 
138603 
138775 
138935 
139120 
139308 
139462 
139601 
139782 
139965 
140148 
140341 
140504 
140676 
140841 
140993 
141089 
141309 
141467 
141643 
141813 
142000 
142166 
142352 
142526 
142701 
142863 
142959 
143124 
143292 
143484 
143657 
143757 
143973 
144128 
144289 
144466 
144623 
144816 
145014 
145184 
145335 
145496 
145674 
145862 
146019 
146174 
146333 
146521 
146701 
146882 
147034 
147207 
147353 
147522 
147747 
147941 
148128 
148323 
148520 
148692 
148850 
149027 
149209 
149440 
149618 
149801 
149993 
150176 
150343 
150587 
150763 
150921 
151097 
151307 
151561 
151784 
151980 
152165 
152321 
152505 
152728 
152916 
153080 
153221 
153385 
153602 
153704 
153881 
154053 
154157 
154354 
154506 
154686 
154899 
155042 
155203 
155314 
155481 
155663 
155834 
156015 
156111 
156339 
156492 
156628 
156747 
156911 
157112 
157310 
157509 
157700 
157849 
158031 
158174 
158326 
158442 
158545 
158747 
158928 
159103 
159292 
159462 
159617 
159797 
159985 
160140 
160325 
160506 
160726 
160924 
161098 
161278 
161463 
161671 
161839 
162078 
162228 
162410 
162596 
162759 
162899 
163067 
163248 
163441 
163614 
163762 
163918 
164057 
164236 
164390 
164526 
164642 
164810 
164975 
165136 
165313 
165452 
165590 
165749 
165925 
166109 
166297 
166468 
166653 
166828 
167001 
167139 
167287 
167454 
167707 
168099 
168308 
168519 
168682 
168850 
169027 
169206 
169430 
169627 
169806 
169974 
170141 
170309 
170471 
170607 
170775 
170944 
171110 
171315 
171508 
171674 
171837 
172015 
172158 
172258 
172480 
172676 
172892 
173078 
173237 
173381 
173585 
173769 
173922 
174134 
174303 
174449 
174630 
174789 
174922 
175121 
175284 
175476 
175710 
175877 
176106 
176290 
176491 
176623 
176797 
176971 
177205 
177392 
177547 
177753 
177920 
178090 
178268 
178442 
178621 
178829 
179004 
179187 
179355 
179528 
179697 
179875 
180047 
180221 
180394 
180554 
180740 
180915 
181069 
181257 
181421 
181643 
181842 
182010 
182157 
182353 
182544 
182701 
182864 
183046 
183211 
183386 
183577 
183742 
183913 
184076 
184248 
184432 
184594 
184745 
184921 
185108 
185284 
185445 
185604 
185785 
185964 
186100 
186259 
186409 
186497 
186679 
186802 
186962 
187150 
187303 
187484 
187678 
187878 
188077 
188254 
188441 
188585 
188750 
188905 
189079 
189322 
189503 
189659 
189839 
190012 
190235 
190419 
190649 
190843 
190996 
191199 
191367 
191563 
191721 
191898 
192074 
192244 
192392 
192567 
192795 
192972 
193138 
193299 
193470 
193637 
193804 
193979 
194142 
194352 
194520 
194623 
194787 
194972 
195158 
195366 
195560 
195729 
195943 
196124 
196281 
196436 
196638 
196820 
197006 
197184 
197333 
197493 
197597 
197694 
197816 
197975 
198158 
198332 
198505 
198665 
198803 
198971 
199111 
199337 
199450 
199629 
199807 
199990 
200164 
200347 
200511 
200677 
200872 
201020 
201205 
201357 
201513 
201714 
201903 
202110 
202321 
202520 
202701 
202858 
203021 
203193 
203392 
203567 
203760 
203949 
204117 
204220 
204344 
204517 
204682 
204851 
205003 
205230 
205321 
205445 
205545 
205768 
205930 
206096 
206296 
206485 
206663 
206807 
207018 
207235 
207400 
207570 
207770 
207945 
208185 
208369 
208545 
208712 
208896 
209048 
209238 
209407 
209588 
209797 
209985 
210169 
210331 
210498 
210676 
210876 
211063 
211262 
211424 
211588 
211727 
211828 
211992 
212131 
212320 
212472 
212586 
212700 
212909 
213098 
213290 
213478 
213648 
213828 
214010 
214155 
214336 
214517 
214704 
214882 
215073 
215236 
215387 
215491 
215589 
215737 
215900 
216135 
216293 
216460 
216630 
216826 
217009 
217168 
217362 
217523 
217680 
217864 
217975 
218138 
218312 
218494 
218681 
218876 
219058 
219235 
219386 
219623 
219782 
219957 
220138 
220307 
220489 
220681 
220862 
221050 
221170 
221354 
221589 
221769 
221934 
222113 
222283 
222446 
222620 
222801 
222960 
223154 
223344 
223548 
223716 
223875 
224059 
224219 
224386 
224586 
224709 
224888 
224992 
225169 
225346 
225532 
225746 
225912 
226087 
226235 
226408 
226561 
226748 
226930 
227108 
227284 
227458 
227641 
227816 
228010 
228215 
228343 
228513 
228717 
228877 
229041 
229262 
229456 
229604 
229790 
230017 
230184 
230360 
230525 
230701 
230854 
231026 
231168 
231390 
231560 
231702 
231880 
232024 
232184 
232353 
232529 
232716 
232878 
233058 
233228 
233394 
233581 
233812 
234001 
234171 
234343 
234496 
234652 
234809 
234950 
235125 
235275 
235437 
235636 
235842 
236006 
236187 
236358 
236509 
236707 
236864 
237075 
237193 
237393 
237550 
237715 
237902 
238079 
238193 
238343 
238510 
238686 
238894 
239072 
239246 
239449 
239593 
239687 
239878 
240062 
240271 
240452 
240652 
240808 
240967 
241138 
241307 
241407 
241663 
241860 
242017 
242116 
242317 
242478 
242635 
242796 
242927 
243113 
243304 
243479 
243618 
243790 
243964 
244198 
244356 
244524 
244682 
244851 
245014 
245195 
245382 
245568 
245736 
245869 
246020 
246131 
246230 
246397 
246509 
246677 
246859 
247021 
247180 
247315 
247478 
247693 
247841 
248006 
248202 
248354 
248464 
248693 
248803 
249022 
249137 
249332 
249526 
249700 
249850 
250040 
250232 
250379 
250558 
250722 
250940 
251109 
251291 
251471 
251637 
251805 
252144 
252327 
252496 
252720 
252909 
253064 
253240 
253401 
253573 
253742 
253909 
254066 
254274 
254479 
254660 
254840 
254998 
255145 
255312 
255479 
255667 
255847 
256026 
256206 
256308 
256501 
256648 
256831 
257090 
257277 
257460 
257712 
257841 
258017 
258201 
258392 
258568 
258768 
258945 
259128 
259285 
259466 
259637 
259812 
259996 
260166 
260317 
260420 
260656 
260752 
260992 
261102 
261275 
261439 
261540 
261728 
261841 
262024 
262235 
262341 
262573 
262682 
262892 
263015 
263190 
263380 
263536 
263732 
263931 
264115 
264267 
264448 
264649 
264847 
265031 
265205 
265388 
265564 
265751 
265877 
266043 
266256 
266445 
266628 
266827 
267062 
267237 
267409 
267600 
267813 
267969 
268154 
268250 
268413 
268584 
268745 
268902 
268995 
269162 
269364 
269571 
269764 
269895 
270076 
270239 
270394 
270571 
270782 
270892 
271056 
271231 
271416 
271578 
271713 
271882 
272067 
272258 
272482 
272685 
272868 
273061 
273251 
273429 
273590 
273729 
273900 
274089 
274273 
274503 
274756 
274919 
275092 
275272 
275476 
275676 
275855 
276041 
276176 
276397 
276580 
276748 
276852 
277097 
277217 
277320 
277490 
277668 
277747 
277883 
278093 
278203 
278465 
278574 
278760 
278953 
279154 
279325 
279521 
279682 
279905 
280087 
280294 
280477 
280640 
280824 
281001 
281184 
281355 
281519 
281726 
281921 
282088 
282251 
282370 
282533 
282675 
282870 
283000 
283226 
283342 
283491 
283723 
283833 
283926 
284326 
284590 
284706 
284922 
285168 
285362 
285548 
285647 
285810 
285977 
286186 
286393 
286575 
286761 
286952 
287116 
287286 
287429 
287589 
287795 
287990 
288181 
288374 
288574 
288717 
288890 
289090 
289281 
289521 
289680 
289835 
289978 
290125 
290332 
290538 
290705 
290864 
291067 
291236 
291400 
291592 
291773 
291971 
292169 
292331 
292495 
292589 
292786 
292977 
293179 
293327 
293543 
293740 
293894 
294046 
294241 
294424 
294614 
294787 
294944 
295116 
295265 
295466 
295645 
295788 
295952 
296142 
296309 
296478 
296562 
296796 
296975 
297190 
297358 
297535 
297637 
297857 
298043 
298205 
298367 
298553 
298737 
298942 
299118 
299308 
299481 
299668 
299888 
300043 
300241 
300436 
300618 
300825 
301020 
301197 
301397 
301590 
301792 
301932 
302124 
302309 
302469 
302623 
302722 
302936 
303058 
303299 
303528 
303702 
303882 
304060 
304237 
304407 
304517 
304750 
304939 
305118 
305270 
305419 
305574 
305712 
305872 
306081 
306273 
306474 
306703 
306864 
307018 
307186 
307343 
307570 
307744 
307937 
308133 
308326 
308504 
308670 
308847 
309047 
309240 
309380 
309579 
309725 
309891 
310057 
310236 
310338 
310487 
310655 
310840 
311029 
311201 
311378 
311559 
311739 
311921 
312078 
312236 
312440 
312674 
312832 
312986 
313136 
313234 
313441 
313594 
313773 
313960 
314126 
314338 
314513 
314666 
314829 
315009 
315188 
315350 
315533 
315709 
315902 
316082 
316251 
316400 
316543 
316685 
316938 
317058 
317261 
317367 
317534 
317698 
317855 
318018 
318198 
318371 
318547 
318729 
318929 
319138 
319328 
319487 
319652 
319841 
320045 
320238 
320398 
320575 
320868 
321051 
321208 
321379 
321552 
321734 
321926 
322089 
322273 
322423 
322605 
322794 
323003 
323179 
323508 
323677 
323889 
324003 
324327 
324510 
324777 
324946 
325107 
325256 
325403 
325583 
325751 
325915 
326069 
326239 
326407 
326574 
326738 
326895 
327035 
327179 
327277 
327494 
327630 
327828 
328019 
328184 
328366 
328469 
328715 
328906 
329007 
329191 
329379 
329546 
329741 
329929 
330117 
330273 
330494 
330715 
330867 
331042 
331233 
331415 
331608 
331752 
331918 
332078 
332250 
332408 
332584 
332687 
332861 
333053 
333223 
333395 
333599 
333808 
334003 
334192 
334376 
334545 
334682 
334838 
334996 
335162 
335336 
335545 
335771 
335932 
336066 
336215 
336389 
336546 
336692 
336877 
337075 
337243 
337418 
337584 
337741 
337913 
338083 
338237 
338414 
338596 
338765 
338912 
339091 
339258 
339418 
339670 
339847 
340072 
340235 
340413 
340571 
340749 
340897 
341061 
341234 
341470 
341592 
341798 
342032 
342221 
342377 
342531 
342684 
342827 
343000 
343213 
343423 
343747 
343864 
344065 
344216 
344373 
344530 
344712 
344870 
345093 
345286 
345467 
345634 
345796 
345992 
346146 
346330 
346491 
346680 
346846 
347005 
347237 
347391 
347557 
347714 
347903 
348067 
348272 
348457 
348626 
348789 
348950 
349149 
349372 
349613 
349786 
349978 
350143 
350423 
350605 
350694 
350945 
351134 
351316 
351473 
351643 
351819 
351979 
352128 
352339 
352591 
352827 
353017 
353163 
353261 
353486 
353656 
353832 
354013 
354114 
354280 
354431 
354626 
354801 
354979 
355135 
355281 
355448 
355611 
355784 
355973 
356158 
356335 
356520 
356658 
356837 
357026 
357205 
357364 
357519 
357695 
357827 
357975 
358132 
358300 
358460 
358645 
358833 
358995 
359178 
359384 
359594 
359737 
359894 
360079 
360240 
360398 
360494 
360760 
360938 
361100 
361279 
361426 
361603 
361790 
362026 
362197 
362353 
362506 
362671 
362847 
363025 
363215 
363406 
363581 
363744 
363908 
364073 
364208 
364309 
364471 
364652 
364830 
365009 
365216 
365407 
365648 
365812 
366005 
366178 
366364 
366522 
366622 
366794 
366944 
367099 
367246 
367423 
367586 
367762 
367937 
368127 
368304 
368483 
368639 
368823 
369015 
369203 
369353 
369533 
369721 
369895 
370073 
370251 
370431 
370610 
370811 
370991 
371160 
371313 
371459 
371635 
371814 
371983 
372171 
372358 
372524 
372694 
372929 
373072 
373199 
373436 
373599 
373784 
373968 
374154 
374330 
374499 
374653 
374831 
375003 
375145 
375354 
375534 
375721 
375867 
376040 
376230 
376389 
376555 
376696 
376893 
377054 
377234 
377384 
377561 
377745 
377899 
378045 
378222 
378419 
378599 
378803 
379004 
379166 
379324 
379497 
379670 
379849 
380083 
380253 
380425 
380629 
380843 
381012 
381167 
381321 
381521 
381706 
381886 
382075 
382264 
382432 
382623 
382781 
382984 
383168 
383332 
383528 
383682 
383856 
384054 
384217 
384379 
384543 
384727 
384912 
385124 
385276 
385447 
385589 
385760 
386041 
386221 
386391 
386550 
386724 
386907 
387154 
387315 
387467 
387567 
387815 
388001 
388161 
388339 
388551 
388780 
388935 
389121 
389335 
389512 
389673 
389862 
390048 
390219 
390402 
390552 
390732 
390845 
391025 
391206 
391379 
391549 
391645 
391814 
391985 
392178 
392395 
392573 
392664 
392905 
393125 
393309 
393497 
393683 
393827 
394009 
394228 
394427 
394594 
394758 
394947 
395169 
395360 
395550 
395730 
395920 
396119 
396280 
396479 
396654 
396836 
396993 
397150 
397320 
397518 
397693 
397882 
398049 
398205 
398361 
398548 
398727 
398913 
399083 
399227 
399445 
399621 
399778 
399974 
400096 
400312 
400517 
400690 
400853 
401020 
401177 
401381 
401544 
401694 
401869 
402013 
402166 
402388 
402491 
402784 
402988 
403177 
403343 
403499 
403640 
403799 
403896 
404063 
404272 
404517 
404701 
404890 
405065 
405224 
405410 
405593 
405758 
405922 
406137 
406312 
406468 
406662 
406778 
406949 
407083 
407248 
407392 
407576 
407764 
407951 
408219 
408400 
408606 
408797 
408940 
409114 
409435 
409666 
409813 
409961 
410134 
410328 
410471 
410683 
410898 
411081 
411243 
411429 
411612 
411769 
411905 
412089 
412183 
412430 
412594 
412770 
412945 
413089 
413254 
413459 
413620 
413796 
413977 
414177 
414338 
414479 
414667 
414775 
414939 
415102 
415283 
415470 
415647 
415785 
416003 
416172 
416346 
416513 
416683 
416865 
417045 
417218 
417399 
417583 
417742 
417890 
418054 
418198 
418405 
418510 
418739 
418854 
419040 
419244 
419425 
419516 
419839 
420015 
420187 
420352 
420504 
420684 
420881 
421027 
421205 
421325 
421516 
421678 
421880 
422069 
422268 
422454 
422644 
422829 
423010 
423170 
423369 
423544 
423713 
424010 
424224 
424397 
424517 
424692 
424811 
425046 
425146 
425373 
425531 
425679 
425772 
425954 
426061 
426254 
426422 
426553 
426808 
426990 
427147 
427301 
427479 
427668 
427848 
428003 
428169 
428271 
428447 
428614 
428775 
428933 
429036 
429250 
429458 
429619 
429806 
429992 
430217 
430370 
430526 
430700 
430876 
431060 
431234 
431435 
431619 
431783 
431934 
432101 
432280 
432467 
432633 
432732 
432965 
433076 
433313 
433477 
433715 
433905 
434082 
434252 
434399 
434585 
434738 
434903 
435076 
435301 
435500 
435669 
435830 
435996 
436147 
436301 
436480 
436658 
436804 
437002 
437194 
437397 
437512 
437740 
437894 
438065 
438248 
438433 
438617 
438813 
438968 
439132 
439301 
439510 
439688 
439877 
440068 
440246 
440436 
440606 
440748 
440934 
441121 
441313 
441523 
441676 
441836 
442022 
442189 
442358 
442518 
442668 
442856 
443053 
443255 
443420 
443567 
443669 
443837 
444016 
444172 
444439 
444643 
444836 
444982 
445161 
445328 
445548 
445717 
445876 
446074 
446246 
446433 
446618 
446798 
446901 
447127 
447363 
447560 
447723 
447897 
448125 
448335 
448502 
448661 
448822 
449023 
449204 
449367 
449555 
449666 
449902 
450017 
450213 
450314 
450566 
451039 
451273 
451460 
451607 
451808 
452124 
452307 
452459 
452645 
452838 
453005 
453211 
453545 
453718 
453928 
454083 
454266 
454445 
454649 
454798 
454980 
455159 
455311 
455463 
455657 
455841 
456009 
456181 
456352 
456526 
456718 
456881 
457058 
457253 
457458 
457797 
457954 
458128 
458236 
458350 
458530 
458650 
458853 
459048 
459230 
459382 
459549 
459711 
459914 
460063 
460243 
460423 
460573 
460762 
460960 
461120 
461315 
461457 
461651 
461861 
462036 
