34 
249 
465 
682 
897 
1114 
1321 
1532 
1745 
1952 
2158 
2377 
2599 
2814 
3031 
3243 
3458 
3663 
3871 
4083 
4293 
4502 
4709 
4913 
5115 
5322 
5526 
5732 
5943 
6146 
6361 
6575 
6787 
7008 
7223 
7438 
7657 
7824 
8080 
8296 
8513 
8727 
8942 
9158 
9371 
9583 
9792 
9991 
10196 
10395 
10592 
10801 
11006 
11213 
11427 
11643 
11862 
12078 
12297 
12518 
12737 
12958 
13175 
13392 
13608 
13823 
14038 
14247 
14464 
14674 
14888 
15108 
15321 
15536 
15755 
15967 
16183 
16395 
16606 
16815 
17029 
17246 
17454 
17666 
17883 
18100 
18315 
18530 
18742 
18954 
19168 
19383 
19595 
19806 
20022 
20230 
20443 
20651 
20857 
21069 
21281 
21491 
21701 
21909 
22116 
22323 
22531 
22731 
22934 
23139 
23345 
23552 
23757 
23919 
24151 
24369 
24574 
24778 
24982 
25148 
25372 
25580 
25783 
25985 
26185 
26389 
26595 
26800 
26959 
27192 
27350 
27612 
27823 
28023 
28225 
28425 
28631 
28799 
29018 
29230 
29434 
29644 
29850 
30056 
30266 
30475 
30688 
30899 
31108 
31318 
31523 
31731 
31940 
32150 
32357 
32561 
32776 
32985 
33201 
33412 
33610 
33812 
34020 
34224 
34424 
34626 
34837 
35040 
35249 
35457 
35667 
35879 
36093 
36309 
36523 
36738 
36955 
37171 
37383 
37600 
37818 
38032 
38250 
38468 
38684 
38903 
39122 
39336 
39551 
39772 
39986 
40202 
40421 
40631 
40856 
41058 
41267 
41479 
41683 
41893 
42103 
42312 
42522 
42730 
42933 
43139 
43302 
43530 
43739 
43949 
44151 
44357 
44565 
44767 
44976 
45183 
45390 
45599 
45809 
46175 
46404 
46616 
46827 
47033 
47236 
47450 
47657 
47863 
48075 
48286 
48493 
48709 
48924 
49320 
49547 
49769 
49990 
50200 
50413 
50622 
50834 
51009 
51259 
51428 
51706 
51923 
52145 
52367 
52586 
52798 
53017 
53232 
53439 
53645 
53858 
54071 
54283 
54497 
54710 
54923 
55139 
55355 
55568 
55780 
55999 
56217 
56431 
56647 
56860 
57075 
57296 
57467 
57720 
57935 
58152 
58362 
58571 
58780 
58989 
59198 
59406 
59615 
59820 
60022 
60232 
60432 
60638 
60846 
61051 
61257 
61464 
61676 
61877 
62081 
62293 
62496 
62709 
62915 
63126 
63343 
63557 
63773 
63984 
64199 
64421 
64642 
64856 
65073 
65293 
65512 
65737 
65962 
66185 
66416 
66643 
66870 
67082 
67304 
67520 
67743 
67953 
68161 
68368 
68571 
68781 
68990 
69195 
69403 
69613 
69823 
70039 
70251 
70403 
70637 
70855 
71062 
71268 
71477 
71636 
71863 
72080 
72285 
72490 
72699 
72865 
73103 
73331 
73705 
73939 
74152 
74361 
74577 
74785 
74984 
75207 
75416 
75630 
75838 
76046 
76265 
76476 
76684 
76895 
77106 
77312 
77507 
77710 
77906 
78076 
78294 
78499 
78701 
78903 
79108 
79271 
79504 
79718 
79932 
80140 
80347 
80564 
80771 
80978 
81191 
81400 
81611 
81822 
82034 
82247 
82458 
82672 
82887 
83101 
83311 
83526 
83739 
83944 
84154 
84363 
84572 
84788 
84999 
85210 
85422 
85642 
85856 
86064 
86285 
86496 
86711 
86926 
87135 
87350 
87552 
87757 
87972 
88175 
88383 
88593 
88810 
89012 
89211 
89370 
89616 
89834 
90047 
90255 
90406 
90631 
90799 
91043 
91210 
91449 
91614 
91862 
92075 
92285 
92430 
92656 
92867 
93073 
93278 
93479 
93674 
93871 
94070 
94263 
94454 
94650 
94844 
95036 
95234 
95434 
95625 
95819 
96018 
96208 
96398 
96584 
96772 
96960 
97150 
97337 
97527 
97714 
97903 
98093 
98285 
98474 
98657 
98850 
99037 
99224 
99413 
99607 
99792 
99980 
100174 
100362 
100549 
100717 
100921 
101105 
101292 
101476 
101659 
101839 
102021 
102201 
102383 
102564 
102743 
102919 
103099 
103279 
103456 
103636 
103817 
103993 
104167 
104347 
104528 
104704 
104876 
105051 
105227 
105398 
105574 
105749 
105922 
106095 
106269 
106445 
106618 
106793 
106967 
107138 
107312 
107485 
107658 
107828 
108003 
108174 
108343 
108512 
108688 
108859 
109030 
109199 
109375 
109544 
109715 
109889 
110067 
110238 
110415 
110589 
110767 
110939 
111113 
111285 
111458 
111632 
111807 
111978 
112153 
112329 
112465 
112667 
112848 
113030 
113210 
113388 
113568 
113750 
113927 
114107 
114290 
114471 
114643 
114820 
114953 
115149 
115330 
115506 
115682 
115859 
116037 
116218 
116400 
116582 
116768 
116949 
117136 
117322 
117505 
117690 
117879 
117996 
118187 
118406 
118604 
118790 
118979 
119168 
119360 
119548 
119739 
119926 
120109 
120296 
120480 
120667 
120849 
121033 
121212 
121401 
121583 
121771 
121949 
122138 
122322 
122506 
122695 
122882 
123065 
123243 
123430 
123611 
123794 
123972 
124157 
124334 
124518 
124701 
124888 
125067 
125251 
125434 
125612 
125810 
125997 
126176 
126362 
126482 
126703 
126920 
127118 
127297 
127477 
127669 
127831 
128039 
128176 
128413 
128600 
128794 
128982 
129168 
129340 
129524 
129696 
129893 
130080 
130266 
130445 
130628 
130813 
130959 
131171 
131357 
131547 
131722 
131920 
132095 
132276 
132454 
132589 
132791 
132971 
133154 
133338 
133512 
133691 
133869 
134049 
134225 
134404 
134579 
134755 
134931 
135110 
135286 
135463 
135639 
135768 
135966 
136149 
136327 
136504 
136679 
136858 
137034 
137208 
137387 
137548 
137741 
137922 
138109 
138294 
138479 
138665 
138855 
139041 
139230 
139418 
139608 
139798 
139990 
140181 
140375 
140566 
140758 
140949 
141143 
141336 
141529 
141727 
141922 
142061 
142276 
142478 
142617 
142841 
143036 
143234 
143428 
143626 
143824 
144023 
144224 
144423 
144628 
144829 
145028 
145228 
145350 
145627 
145827 
146031 
146228 
146422 
146624 
146825 
147022 
147220 
147424 
147620 
147818 
148017 
148213 
148411 
148605 
148803 
149000 
149199 
149394 
149592 
149789 
149984 
150184 
150378 
150567 
150758 
150953 
151145 
151334 
151527 
151718 
151910 
152105 
152303 
152495 
152693 
152891 
153090 
153291 
153488 
153687 
153887 
154084 
154283 
154425 
154642 
154840 
155038 
155235 
155430 
155619 
155817 
156011 
156204 
156402 
156599 
156791 
156986 
157187 
157377 
157575 
157769 
157964 
158156 
158349 
158544 
158738 
158935 
159128 
159323 
159518 
159715 
159911 
160104 
160300 
160495 
160698 
160891 
161027 
161242 
161445 
161639 
161831 
162024 
162209 
162401 
162595 
162792 
162986 
163182 
163378 
163574 
163776 
163970 
164165 
164362 
164556 
164750 
164952 
165145 
165336 
165534 
165731 
165931 
166120 
166319 
166519 
166715 
166920 
167064 
167279 
167479 
167680 
167877 
168076 
168270 
168471 
168673 
168876 
169080 
169283 
169487 
169690 
169901 
170104 
170242 
170467 
170671 
170875 
171029 
171277 
171487 
171699 
171916 
172131 
172350 
172562 
172783 
173011 
173225 
173450 
173669 
173884 
174110 
174334 
174544 
174765 
174983 
175195 
175411 
175625 
175835 
176047 
176263 
176475 
176683 
176899 
177121 
177341 
177565 
177794 
178021 
178245 
178477 
178699 
178921 
179146 
179365 
179585 
179807 
180017 
180160 
180405 
180621 
180842 
181065 
181286 
181515 
181745 
181971 
182196 
182420 
182645 
182872 
183091 
183314 
183536 
183758 
183983 
184204 
184423 
184649 
184865 
185081 
185300 
185513 
185672 
185928 
186140 
186357 
186573 
186719 
186952 
187161 
187313 
187540 
187691 
187925 
188142 
188333 
188539 
188733 
188929 
189127 
189329 
189521 
189716 
189911 
190114 
190309 
190429 
190697 
190898 
191076 
191267 
191427 
191538 
191639 
191829 
192021 
192211 
192402 
192588 
192783 
192978 
193171 
193356 
193546 
193702 
193914 
194101 
194294 
194486 
194672 
194807 
195023 
195213 
195402 
195590 
195782 
195931 
196148 
196342 
196535 
196726 
196916 
197110 
197292 
197449 
197657 
197854 
198027 
198214 
198395 
198561 
198766 
198955 
199145 
199344 
199546 
199732 
199938 
200120 
200317 
200521 
200735 
200922 
201126 
201332 
201538 
201744 
201945 
202151 
202355 
202557 
202762 
202972 
203174 
203375 
203586 
203739 
203959 
204172 
204382 
204590 
204798 
205007 
205213 
205422 
205633 
205844 
206060 
206268 
206479 
206691 
206901 
207112 
207318 
207531 
207680 
207890 
208102 
208286 
208488 
208683 
208881 
209084 
209287 
209488 
209690 
209901 
210103 
210311 
210516 
210719 
210930 
211135 
211345 
211553 
211758 
211974 
212183 
212393 
212603 
212812 
213020 
213423 
213652 
213872 
214093 
214300 
214505 
214711 
214913 
215120 
215326 
215528 
215733 
215933 
216136 
216338 
216536 
216740 
216929 
217126 
217284 
217597 
217814 
218012 
218216 
218368 
218578 
218776 
218974 
219168 
219361 
219559 
219753 
219944 
220099 
220302 
220501 
220702 
220897 
221248 
221464 
221663 
221864 
222060 
222250 
222452 
222646 
222840 
223037 
223237 
223388 
223602 
223817 
224017 
224222 
224424 
224627 
224829 
225032 
225234 
225431 
225636 
225836 
226038 
226242 
226445 
226653 
226859 
227068 
227221 
227484 
227712 
227933 
228155 
228368 
228575 
228789 
228994 
229199 
229406 
229608 
229814 
230026 
230234 
230442 
230650 
230859 
231067 
231273 
231472 
231681 
231886 
232094 
232305 
232510 
232716 
232922 
233134 
233339 
233543 
233750 
233949 
234166 
234372 
234565 
234726 
235049 
235294 
235513 
235714 
235912 
236118 
236328 
236528 
236740 
236941 
237135 
237352 
237546 
237745 
237963 
238163 
238356 
238573 
238776 
238967 
239181 
239376 
239590 
239792 
239980 
240191 
240396 
240588 
240801 
240994 
241188 
241340 
241554 
241759 
241951 
242153 
242348 
242541 
242742 
242943 
243136 
243337 
243539 
243696 
244005 
244221 
244429 
244618 
244812 
245010 
245204 
245367 
245582 
245785 
245935 
246173 
246377 
246574 
246773 
246971 
247168 
247367 
247567 
247775 
247971 
248169 
248371 
248570 
248772 
248979 
249184 
249378 
249540 
249757 
249963 
250168 
250364 
250562 
250757 
250956 
251158 
251360 
251555 
251751 
251922 
252148 
252356 
252560 
252756 
252967 
253159 
253357 
253565 
253753 
253953 
254150 
254352 
254558 
254759 
254947 
255144 
255343 
255472 
255747 
255949 
256154 
256354 
256562 
256751 
256966 
257157 
257313 
257537 
257759 
257974 
258191 
258401 
258614 
258835 
259039 
259260 
259472 
259686 
259884 
260093 
260316 
260714 
260927 
261146 
261344 
261552 
261764 
261980 
262174 
262379 
262587 
262791 
262997 
263202 
263407 
263613 
263819 
264027 
264231 
264432 
264638 
264840 
265037 
265234 
265436 
265634 
265835 
266043 
266243 
266445 
266653 
266861 
267067 
267274 
267479 
267682 
267891 
268043 
268272 
268486 
268694 
268906 
269116 
269317 
269528 
269906 
270125 
270341 
270548 
270756 
270970 
271173 
271376 
271581 
271780 
271983 
272191 
272399 
272604 
272816 
273021 
273237 
273450 
273661 
273868 
274078 
274286 
274495 
274706 
274910 
275126 
275335 
275539 
275752 
275957 
276163 
276374 
276583 
276787 
276988 
277192 
277394 
277608 
277803 
277998 
278198 
278398 
278602 
278803 
279016 
279217 
279423 
279633 
279837 
280051 
280261 
280469 
280697 
280897 
281106 
281323 
281536 
281758 
281956 
282158 
282364 
282588 
282788 
282996 
283201 
283410 
283619 
283829 
283978 
284194 
284413 
284616 
284831 
285046 
285256 
285471 
285703 
285904 
286113 
286328 
286535 
286748 
286963 
287166 
287373 
287593 
287808 
288015 
288229 
288440 
288662 
288863 
289073 
289230 
289456 
289669 
289889 
290101 
290310 
290528 
290738 
290952 
291172 
291557 
291780 
292000 
292219 
292431 
292646 
292863 
293080 
293294 
293509 
293724 
293948 
294157 
294371 
294583 
294802 
295019 
295234 
295455 
295666 
295879 
296110 
296312 
296521 
296734 
296943 
297153 
297366 
297582 
297792 
297998 
298212 
298423 
298627 
298827 
299039 
299245 
299447 
299654 
299858 
300059 
300262 
300434 
300653 
300854 
301062 
301259 
301458 
301625 
301839 
302040 
302234 
302432 
302625 
302821 
303015 
303214 
303415 
303615 
303824 
304027 
304229 
304438 
304641 
304848 
305049 
305254 
305456 
305661 
305866 
306063 
306227 
306462 
306673 
306879 
307081 
307290 
307499 
307707 
307919 
308131 
308341 
308548 
308765 
308977 
309188 
309401 
309611 
309821 
310037 
310247 
310455 
310668 
310885 
311098 
311315 
311529 
311743 
311962 
312177 
312393 
312607 
312819 
313036 
313254 
313460 
313675 
313889 
314096 
314315 
314526 
314731 
314942 
315155 
315362 
315566 
315774 
315977 
316184 
316395 
316595 
316800 
316994 
317204 
317412 
317614 
317818 
318020 
318222 
318368 
318590 
318794 
318997 
319211 
319419 
319625 
319834 
320045 
320250 
320463 
320678 
320888 
321102 
321319 
321533 
321752 
321961 
322180 
322400 
322618 
322840 
323059 
323275 
323499 
323719 
323936 
324158 
324378 
324599 
324824 
325043 
325264 
325488 
325709 
325927 
326140 
326371 
326577 
326793 
327012 
327226 
327436 
327658 
327871 
328083 
328299 
328515 
328729 
328950 
329168 
329376 
329590 
329808 
330013 
330218 
330433 
330636 
330845 
331062 
331270 
331483 
331698 
331911 
332124 
332333 
332547 
332758 
332964 
333180 
333387 
333594 
333806 
334021 
334231 
334438 
334656 
334865 
335078 
335298 
335511 
335721 
335940 
336152 
336368 
336575 
336787 
337004 
337218 
337435 
337655 
337871 
338092 
338314 
338532 
338751 
338973 
339191 
339414 
339634 
339851 
340073 
340297 
340517 
340736 
340971 
341181 
341580 
341806 
342024 
342236 
342444 
342652 
342848 
343054 
343226 
343448 
343677 
343880 
344088 
344304 
344523 
344733 
344941 
345160 
345369 
345579 
345795 
346006 
346217 
346428 
346643 
346858 
347066 
347284 
347453 
347708 
347854 
348128 
348345 
348568 
348800 
349006 
349224 
349445 
349607 
349868 
350107 
350335 
350562 
350790 
351018 
351240 
351461 
351680 
351915 
352127 
352350 
352572 
352797 
353026 
353250 
353410 
353675 
353921 
354045 
354377 
354591 
354813 
354981 
355239 
355484 
355704 
355945 
356163 
356397 
356636 
356861 
357080 
357301 
357531 
357748 
357909 
358172 
358424 
358640 
358866 
359097 
359321 
359546 
359768 
359985 
360208 
360428 
360589 
360853 
361060 
361283 
361504 
361662 
361904 
362121 
362338 
362558 
362717 
362962 
363179 
363400 
363618 
363831 
364049 
364263 
364420 
364673 
364892 
365112 
365273 
365521 
365746 
365965 
366128 
366378 
366605 
366827 
367048 
367266 
367491 
367707 
367921 
368141 
368360 
368577 
368802 
369025 
369243 
369468 
369691 
369913 
370134 
370355 
370575 
370800 
371028 
371249 
371471 
371712 
371924 
372141 
372362 
372595 
372803 
373022 
373241 
373462 
373681 
373900 
374116 
374334 
374555 
374773 
374996 
375218 
375433 
375650 
375870 
376085 
376299 
376508 
376728 
376942 
377153 
377374 
377591 
377800 
378022 
378152 
378443 
378661 
378875 
379086 
379298 
379515 
379727 
379939 
380157 
380376 
380591 
380806 
381027 
381245 
381464 
381688 
381905 
382119 
382351 
382557 
382768 
382990 
383220 
383431 
383655 
383876 
384100 
384327 
384548 
384773 
384990 
385210 
385435 
385653 
385876 
386100 
386318 
386542 
386762 
386978 
387214 
387423 
387639 
387862 
388078 
388293 
388516 
388733 
388949 
389169 
389395 
389599 
389817 
390034 
390249 
390462 
390691 
390900 
391056 
391283 
391504 
391717 
391937 
392155 
392368 
392583 
392802 
393019 
393231 
393447 
393670 
393874 
394089 
394299 
394510 
394722 
394931 
395146 
395355 
395568 
395784 
395925 
396133 
396413 
396624 
396857 
397066 
397283 
397499 
397717 
397928 
398155 
398365 
398573 
398788 
399009 
399224 
399442 
399665 
399867 
400077 
400291 
400503 
400710 
400911 
401064 
401289 
401510 
401706 
401930 
402131 
402347 
402572 
402786 
403001 
403227 
403448 
403662 
403880 
404092 
404306 
404526 
404739 
404967 
405178 
405400 
405626 
405847 
406070 
406211 
406506 
406670 
406947 
407162 
407383 
407602 
407818 
408034 
408252 
408473 
408694 
408915 
409134 
409357 
409581 
409802 
410022 
410239 
410459 
410680 
410901 
411123 
411341 
411563 
411783 
412000 
412214 
412436 
412650 
412737 
412862 
413076 
413283 
413493 
413706 
413908 
414073 
414295 
414506 
414710 
414915 
415119 
415284 
415507 
415705 
415801 
415906 
416103 
416286 
416476 
416662 
416847 
417032 
417221 
417402 
417581 
417763 
417949 
418125 
418304 
418477 
418661 
418827 
419001 
419186 
419348 
419528 
419690 
419860 
420036 
420207 
420381 
420548 
420724 
420900 
421073 
421249 
421425 
421599 
421770 
421943 
422121 
422293 
422464 
422635 
422808 
422979 
423150 
423326 
423501 
423676 
423844 
424020 
424194 
424368 
424543 
424713 
424885 
425058 
425231 
425403 
425579 
425752 
425928 
426098 
426233 
426432 
426609 
426781 
426962 
427137 
427308 
427486 
427667 
427840 
428016 
428193 
428376 
428548 
428725 
428899 
429077 
429253 
429433 
429612 
429794 
429971 
430151 
430331 
430514 
430693 
430873 
431049 
431229 
431406 
431582 
431763 
431945 
432123 
432301 
432485 
432668 
432848 
433027 
433210 
433389 
433569 
433749 
433932 
434110 
434292 
434471 
434653 
434834 
435015 
435193 
435333 
435632 
435820 
436007 
436192 
436372 
436551 
436734 
436915 
437093 
437271 
437407 
437603 
437782 
437964 
438146 
438285 
438487 
438669 
438853 
439034 
439218 
439397 
439578 
439758 
439939 
440119 
440304 
440483 
440661 
440837 
441021 
441199 
441375 
441553 
441734 
441912 
442085 
442271 
442452 
442625 
442801 
442977 
443155 
443329 
443506 
443681 
443814 
444016 
444198 
444378 
444561 
444742 
444923 
445104 
445289 
445473 
445649 
445834 
446013 
446147 
446276 
446454 
446640 
446818 
446996 
447179 
447361 
447541 
447716 
447896 
448072 
448251 
448432 
448615 
448791 
448971 
449150 
449332 
449513 
449695 
449871 
450055 
450235 
450416 
450597 
450781 
450962 
451140 
451325 
451511 
451695 
451876 
452062 
452246 
452429 
452615 
452805 
452984 
453169 
453306 
453607 
453798 
453981 
454163 
454343 
454528 
454666 
454866 
455049 
455230 
455408 
455548 
455748 
455931 
456105 
456288 
456468 
456645 
456826 
457011 
457189 
457368 
457550 
457738 
457918 
458102 
458282 
458464 
458644 
458830 
459016 
459199 
459382 
459542 
459744 
459932 
460121 
460300 
460443 
460645 
460835 
461021 
461213 
461349 
461658 
461804 
462025 
