117 
364 
592 
818 
1064 
1293 
1737 
1972 
2185 
2420 
2658 
2874 
3107 
3345 
3570 
3813 
4071 
4298 
4550 
4824 
5053 
5308 
5555 
5776 
6017 
6260 
6486 
6742 
6996 
7229 
7482 
7735 
7970 
8225 
8463 
8689 
8941 
9192 
9419 
9672 
9908 
10146 
10389 
10633 
10860 
11109 
11351 
11583 
11829 
12091 
12328 
12580 
12823 
13053 
13297 
13539 
13760 
14012 
14250 
14477 
14730 
14971 
15194 
15442 
15676 
15902 
16149 
16397 
16626 
16876 
17115 
17344 
17602 
17852 
18083 
18343 
18589 
18828 
19075 
19327 
19577 
19810 
20046 
20296 
20531 
20778 
21033 
21270 
21521 
21775 
22016 
22264 
22526 
22758 
23000 
23245 
23475 
23710 
23962 
24186 
24630 
24861 
25295 
25737 
26186 
26616 
27051 
27476 
27910 
28335 
28759 
29186 
29605 
30013 
30415 
30821 
31233 
31652 
32069 
32481 
32882 
33281 
33694 
34129 
34548 
34964 
35390 
35808 
36234 
36653 
37068 
37392 
37674 
37844 
37950 
38232 
38467 
38702 
38937 
39164 
39403 
39661 
39895 
40151 
40411 
40659 
40925 
41185 
41420 
41663 
41899 
42133 
42375 
42626 
42865 
43123 
43387 
43630 
43898 
44163 
44417 
44685 
44952 
45196 
45457 
45700 
45941 
46214 
46461 
46709 
46962 
47202 
47442 
47702 
47956 
48220 
48486 
48735 
48980 
49229 
49472 
49720 
49968 
50218 
50466 
50716 
50972 
51214 
51464 
51718 
51959 
52208 
52463 
52698 
52957 
53206 
53447 
53700 
53961 
54198 
54454 
54712 
54953 
55208 
55463 
55695 
55939 
56187 
56412 
56654 
56901 
57121 
57355 
57607 
57834 
58069 
58326 
58564 
58791 
59043 
59279 
59503 
59752 
59990 
60209 
60459 
60695 
60916 
61151 
61384 
61602 
61839 
62086 
62317 
62560 
62825 
63075 
63316 
63570 
63813 
64048 
64292 
64528 
64758 
65001 
65259 
65492 
65736 
65992 
66242 
66483 
66739 
66971 
67204 
67450 
67693 
67919 
68174 
68403 
68640 
68885 
69133 
69362 
69619 
69863 
70090 
70334 
70580 
70814 
71051 
71303 
71530 
71772 
72013 
72235 
72491 
72741 
72971 
73222 
73467 
73695 
73942 
74179 
74407 
74664 
74908 
75141 
75397 
75644 
75879 
76138 
76382 
76621 
76874 
77117 
77351 
77600 
77838 
78074 
78319 
78560 
78796 
79044 
79300 
79559 
79790 
80037 
80287 
80521 
80767 
81018 
81245 
81494 
81741 
81970 
82207 
82451 
82668 
82907 
83143 
83369 
83614 
83876 
84097 
84344 
84580 
85028 
85265 
85698 
86146 
86596 
87028 
87476 
87894 
88318 
88732 
89155 
89577 
89994 
90420 
90840 
91265 
91677 
92102 
92534 
92960 
93381 
93796 
94214 
94636 
95071 
95510 
95960 
96406 
96839 
97261 
97681 
98093 
98511 
98929 
99349 
99775 
100192 
100609 
101020 
101429 
101828 
102236 
102657 
103073 
103493 
103920 
104336 
104755 
105196 
105617 
106056 
106477 
106888 
107311 
107728 
108169 
108591 
109027 
109462 
109880 
110310 
110719 
111129 
111540 
111957 
112383 
112793 
113206 
113609 
114027 
114448 
114857 
115283 
115689 
116114 
116534 
116959 
117401 
117836 
118261 
118702 
119138 
119575 
120012 
120468 
120916 
121360 
121818 
122255 
122677 
123103 
123525 
123956 
124388 
124819 
125251 
125668 
126083 
126508 
126926 
127359 
127781 
128196 
128619 
129042 
129491 
129923 
130367 
130794 
131230 
131662 
132107 
132530 
132974 
133414 
133852 
134286 
134700 
135127 
135553 
135984 
136422 
136835 
137264 
137674 
138106 
138513 
138929 
139338 
139752 
140178 
140609 
141036 
141456 
141876 
142294 
142701 
143109 
143546 
143964 
144187 
144403 
144630 
144883 
145125 
145376 
145641 
145894 
146133 
146397 
146637 
146866 
147100 
147333 
147552 
147792 
148023 
148236 
148471 
148717 
148940 
149181 
149426 
149649 
149890 
150136 
150362 
150599 
150848 
151093 
151327 
151602 
151860 
152111 
152373 
152631 
152892 
153160 
153420 
153664 
153906 
154153 
154392 
154647 
154911 
155155 
155419 
155684 
155940 
156199 
156456 
156693 
156944 
157197 
157429 
157681 
157930 
158159 
158410 
158665 
158896 
159150 
159391 
159617 
159862 
160101 
160324 
160576 
160824 
161057 
161294 
161542 
161781 
162013 
162250 
162476 
162694 
162926 
163161 
163397 
163626 
163887 
164137 
164372 
164641 
164915 
165153 
165403 
165658 
165890 
166140 
166396 
166624 
166869 
167121 
167345 
167591 
167837 
168055 
168293 
168541 
168771 
168997 
169231 
169459 
169680 
169919 
170156 
170394 
170624 
170885 
171136 
171371 
171621 
171876 
172111 
172361 
172613 
172850 
173106 
173361 
173591 
173838 
174080 
174308 
174539 
174787 
175021 
175249 
175495 
175742 
175966 
176215 
176455 
176685 
176923 
177166 
177389 
177631 
177872 
178101 
178340 
178591 
178816 
179048 
179288 
179532 
179761 
180019 
180269 
180507 
180748 
180997 
181232 
181476 
181718 
181953 
182196 
182430 
182888 
183114 
183340 
183575 
183816 
184048 
184304 
184558 
184800 
185046 
185298 
185542 
185783 
186033 
186273 
186502 
186746 
186982 
187204 
187454 
187697 
187916 
188162 
188414 
188651 
188895 
189144 
189387 
189629 
189889 
190141 
190388 
190642 
190887 
191127 
191370 
191609 
191835 
192068 
192302 
192526 
192759 
192988 
193213 
193447 
193688 
193917 
194181 
194432 
194679 
194927 
195177 
195412 
195660 
195889 
196115 
196347 
196586 
196813 
197072 
197330 
197581 
197835 
198098 
198355 
198589 
198836 
199092 
199328 
199571 
199819 
200055 
200294 
200533 
200769 
201001 
201258 
201508 
201751 
201999 
202248 
202486 
202735 
202978 
203213 
203444 
203685 
203915 
204152 
204392 
204622 
205060 
205498 
205951 
206387 
206838 
207268 
207689 
208098 
208506 
208924 
209328 
209757 
210175 
210589 
211003 
211416 
211840 
212268 
212686 
213105 
213513 
213919 
214329 
214735 
215165 
215583 
216036 
216469 
216904 
217330 
217741 
218169 
218581 
218999 
219416 
219846 
220288 
220706 
221146 
221580 
222018 
222454 
222893 
223326 
223751 
224158 
224583 
225005 
225434 
225866 
226302 
226736 
227160 
227583 
228018 
228458 
228884 
229315 
229739 
230185 
230621 
231055 
231495 
231913 
232342 
232764 
233189 
233618 
234038 
234473 
234898 
235326 
235761 
236187 
236610 
237038 
237451 
237878 
238293 
238736 
239161 
239593 
240039 
240467 
240911 
241343 
241777 
242203 
242617 
243037 
243465 
243894 
244340 
244764 
245201 
245629 
246047 
246464 
246893 
247325 
247754 
248184 
248615 
249052 
249469 
249894 
250303 
250716 
251135 
251550 
251978 
252391 
252824 
253234 
253648 
254068 
254481 
254914 
255341 
255790 
256230 
256675 
257115 
257533 
257953 
258375 
258805 
259226 
259657 
260078 
260505 
260930 
261352 
261781 
262212 
262645 
263077 
263517 
263973 
264406 
264837 
265249 
265666 
266092 
266530 
266982 
267412 
267636 
267848 
268097 
268341 
268568 
268838 
269112 
269369 
269653 
269911 
270162 
270424 
270670 
270915 
271171 
271415 
271652 
271895 
272135 
272373 
272614 
272859 
273086 
273340 
273592 
273838 
274085 
274335 
274570 
274827 
275082 
275327 
275579 
275827 
276060 
276300 
276532 
276759 
276986 
277221 
277450 
277700 
277963 
278209 
278461 
278722 
278966 
279214 
279476 
279712 
279960 
280217 
280460 
280714 
280985 
281224 
281469 
281709 
281934 
282172 
282417 
282637 
282885 
283142 
283375 
283624 
283896 
284142 
284382 
284632 
284876 
285116 
285366 
285621 
285859 
286123 
286377 
286621 
286861 
287095 
287325 
287567 
287808 
288034 
288265 
288504 
288736 
288974 
289237 
289486 
289717 
289963 
290211 
290432 
290680 
290924 
291147 
291368 
291603 
291829 
292062 
292308 
292562 
292800 
293068 
293318 
293567 
293816 
294064 
294299 
294548 
294797 
295039 
295288 
295536 
295771 
296018 
296261 
296498 
296740 
296990 
297238 
297470 
297711 
297965 
298191 
298444 
298719 
298958 
299237 
299501 
299744 
299985 
300226 
300452 
300710 
300970 
301212 
301477 
301737 
301980 
302243 
302489 
302723 
302966 
303199 
303440 
303681 
303919 
304175 
304427 
304670 
304933 
305182 
305415 
305674 
305933 
306180 
306458 
306724 
306979 
307237 
307481 
307722 
307946 
308175 
308392 
308815 
309246 
309659 
310082 
310507 
310930 
311368 
311800 
312225 
312656 
313073 
313518 
313930 
314367 
314790 
315210 
315630 
316034 
316447 
316862 
317278 
317691 
318104 
318536 
318981 
319200 
319420 
319681 
319948 
320202 
320506 
320786 
321048 
321311 
321552 
321804 
322054 
322300 
322534 
322765 
322992 
323242 
323484 
323723 
323982 
324237 
324478 
324733 
324972 
325201 
325451 
325678 
325908 
326136 
326556 
326979 
327396 
327813 
328234 
328647 
329063 
329485 
329914 
330345 
330772 
331206 
331631 
332035 
332447 
332864 
333293 
333729 
334171 
334632 
335069 
335517 
335950 
336375 
336796 
337213 
337630 
338061 
338481 
338912 
339336 
339759 
340192 
340620 
341059 
341490 
341926 
342379 
342805 
343249 
343675 
344115 
344546 
344976 
345403 
345831 
346243 
346661 
347074 
347490 
347925 
348365 
348804 
349243 
349684 
350123 
350557 
350989 
351429 
351861 
352283 
352708 
353121 
353555 
353983 
354433 
354879 
355320 
355765 
356180 
356614 
357037 
357456 
357877 
358298 
358722 
359161 
359599 
360040 
360489 
360932 
361162 
361383 
361611 
361858 
362092 
362326 
362574 
362808 
363055 
363320 
363563 
363816 
364079 
364322 
364579 
364840 
365080 
365327 
365578 
365808 
366058 
366313 
366551 
366806 
367063 
367310 
367565 
367828 
368075 
368339 
368593 
368851 
369099 
369347 
369609 
369850 
370106 
370359 
370614 
370872 
371124 
371381 
371640 
371896 
372153 
372418 
372667 
372918 
373174 
373419 
373684 
373955 
374199 
374458 
374726 
374976 
375235 
375486 
375723 
375981 
376240 
376476 
376736 
376983 
377218 
377465 
377709 
377933 
378181 
378424 
378649 
378903 
379150 
379378 
379629 
379873 
380105 
380359 
380601 
380834 
381098 
381347 
381580 
381838 
382080 
382321 
382566 
382833 
383082 
383334 
383593 
383848 
384092 
384360 
384612 
384880 
385160 
385413 
385671 
385938 
386185 
386445 
386696 
386930 
387185 
387445 
387689 
387963 
388226 
388469 
388736 
388977 
389217 
389475 
389716 
389954 
390206 
390448 
390699 
390965 
391232 
391480 
391751 
392024 
392275 
392540 
392803 
393046 
393300 
393554 
393786 
394032 
394281 
394526 
394770 
395034 
395270 
395503 
395743 
395967 
396209 
396473 
396701 
396962 
397233 
397471 
397737 
397976 
398208 
398436 
398688 
398913 
399168 
399416 
399647 
399909 
400180 
400415 
400693 
400948 
401188 
401456 
401701 
401944 
402185 
402414 
402643 
402891 
403130 
403373 
403630 
403881 
404117 
404388 
404638 
404886 
405141 
405387 
405630 
405877 
406130 
406365 
406604 
406847 
407076 
407322 
407575 
407804 
408055 
408303 
408543 
408790 
409047 
409285 
409538 
409807 
410051 
410306 
410562 
410791 
411031 
411263 
411712 
411944 
412157 
412398 
412646 
412872 
413129 
413396 
413637 
413892 
414152 
414388 
414646 
414891 
415129 
415391 
415644 
415873 
416120 
416354 
416579 
416821 
417064 
417293 
417549 
417796 
418033 
418300 
418547 
418794 
419046 
419295 
419530 
419789 
420034 
420276 
420520 
420760 
420995 
421232 
421474 
421709 
421956 
422210 
422447 
422692 
422950 
423192 
423425 
423688 
423951 
424191 
424460 
424716 
424954 
425225 
425475 
425712 
425960 
426192 
426423 
426670 
426914 
427163 
427409 
427661 
427902 
428149 
428403 
428651 
428900 
429146 
429391 
429639 
429878 
430122 
430359 
430596 
430832 
431070 
431322 
431564 
431810 
432065 
432306 
432558 
432819 
433059 
433300 
433544 
433790 
434027 
434282 
434529 
434765 
435019 
435274 
435511 
435767 
436009 
436247 
436504 
436756 
437010 
437268 
437537 
437793 
438054 
438312 
438560 
438807 
439055 
439300 
439543 
439797 
440036 
440273 
440522 
440763 
441006 
441271 
441509 
441759 
442018 
442262 
442514 
442775 
443016 
443258 
443512 
443758 
444000 
444253 
444502 
444740 
444993 
445235 
445476 
445714 
445952 
446186 
446428 
446677 
446915 
447151 
447402 
447669 
447908 
448167 
448419 
448649 
448899 
449149 
449375 
449622 
449854 
450300 
450536 
450755 
451005 
451250 
451478 
451730 
451987 
452228 
452502 
452759 
453008 
453274 
453527 
453772 
454028 
454264 
454503 
454754 
454996 
455245 
455498 
455755 
455999 
456258 
456515 
456767 
457025 
457286 
457535 
457784 
458044 
458286 
458537 
458779 
459020 
459251 
459486 
459936 
460168 
460390 
460630 
460877 
461113 
461366 
461600 
461856 
462113 
