54 
154 
292 
453 
596 
693 
887 
1040 
1209 
1309 
1430 
1588 
1669 
1773 
1878 
1969 
2071 
2206 
2352 
2449 
2623 
2718 
2822 
2991 
3215 
3344 
3441 
3598 
3717 
3848 
4001 
4106 
4272 
4392 
4557 
4755 
4921 
5157 
5378 
5497 
5591 
5781 
5895 
6056 
6295 
6462 
6591 
6690 
6860 
7060 
7214 
7447 
7684 
7863 
8047 
8269 
8415 
8529 
8711 
8891 
9054 
9220 
9367 
9611 
9780 
9949 
10144 
10357 
10498 
10596 
10819 
10959 
11097 
11310 
11414 
11578 
11781 
11883 
11986 
12080 
12267 
12368 
12548 
12725 
12946 
13094 
13240 
13432 
13577 
13681 
13776 
14020 
14133 
14274 
14417 
14531 
14622 
14712 
14843 
14942 
15032 
15142 
15239 
15418 
15528 
15633 
15726 
15814 
15929 
16026 
16123 
16220 
16527 
16626 
16797 
16888 
17102 
17213 
17311 
17402 
17567 
17681 
17765 
17977 
18078 
18240 
18474 
18686 
18860 
19056 
19168 
19340 
19554 
19773 
19878 
20050 
20216 
20348 
20507 
20626 
20848 
20973 
21163 
21360 
21513 
21739 
21847 
22035 
22206 
22436 
22634 
22748 
22910 
23108 
23256 
23438 
23541 
23638 
23742 
23993 
24094 
24198 
24363 
24477 
24566 
24665 
24859 
24965 
25075 
25251 
25349 
25438 
25533 
25638 
25794 
25941 
26131 
26241 
26345 
26502 
26675 
26836 
26932 
27044 
27290 
27455 
27619 
27719 
27806 
27904 
28047 
28184 
28278 
28368 
28489 
28607 
28711 
28923 
29027 
29131 
29304 
29421 
29602 
29710 
29936 
30157 
30314 
30493 
30599 
30840 
30959 
31049 
31153 
31257 
31426 
31593 
31712 
31805 
31897 
32002 
32093 
32184 
32379 
32499 
32598 
32686 
32792 
32928 
33024 
33212 
33307 
33444 
33569 
33658 
33822 
34130 
34253 
34396 
34635 
34866 
34965 
35121 
35227 
35320 
35490 
35619 
35853 
36064 
36285 
36385 
36491 
36588 
36710 
36888 
37083 
37307 
37624 
37788 
37923 
38197 
38475 
38621 
38720 
38911 
39039 
39194 
39394 
39573 
39673 
39787 
39968 
40070 
40161 
40403 
40522 
40708 
40891 
41084 
41293 
41472 
41640 
41808 
41981 
42198 
42390 
42580 
42727 
42947 
43086 
43224 
43336 
43513 
43714 
43854 
44010 
44156 
44273 
44437 
44629 
44838 
44968 
45171 
45316 
45421 
45526 
45623 
45744 
45926 
46105 
46253 
46447 
46643 
46829 
46950 
47067 
47247 
47409 
47549 
47672 
47778 
47886 
47978 
48181 
48308 
48410 
48609 
48784 
48958 
49160 
49337 
49498 
49681 
49775 
49947 
50133 
50289 
50470 
50568 
50750 
50913 
51129 
51248 
51438 
51555 
51724 
51865 
52015 
52172 
52357 
52483 
52639 
52758 
52900 
53165 
53266 
53425 
53656 
53850 
53992 
54102 
54214 
54389 
54529 
54732 
54847 
54931 
55139 
55260 
55361 
55527 
55643 
55743 
55843 
56032 
56143 
56366 
56480 
56725 
56921 
57089 
57185 
57278 
57582 
57679 
57854 
58040 
58201 
58385 
58572 
58767 
58985 
59128 
59259 
59492 
59637 
59749 
59925 
60113 
60301 
60505 
60654 
60752 
60848 
61018 
61179 
61346 
61487 
61714 
61918 
62079 
62287 
62469 
62655 
62829 
62944 
63120 
63278 
63445 
63596 
63700 
63838 
63936 
64035 
64126 
64238 
64351 
64539 
64754 
64966 
65140 
65254 
65354 
65490 
65605 
65855 
65963 
66067 
66253 
66420 
66587 
66797 
66894 
67005 
67154 
67304 
67532 
67737 
67992 
68118 
68209 
68431 
68547 
68781 
68882 
68990 
69085 
69239 
69412 
69622 
69778 
69962 
70168 
70280 
70371 
70466 
70560 
70852 
70963 
71060 
71211 
71321 
71429 
71586 
71889 
72005 
72175 
72355 
72549 
72735 
72963 
73122 
73303 
73400 
73591 
73699 
73800 
73946 
74086 
74308 
74440 
74722 
74837 
74938 
75065 
75232 
75368 
75542 
75653 
75825 
75980 
76146 
76345 
76536 
76668 
76763 
76929 
77119 
77224 
77328 
77482 
77577 
77761 
77867 
77970 
78061 
78161 
78251 
78358 
78443 
78542 
78779 
78886 
79075 
79181 
79290 
79443 
79539 
79641 
79730 
79916 
80162 
80296 
80524 
80654 
80829 
80922 
81121 
81298 
81482 
81597 
81786 
81974 
82097 
82292 
82480 
82674 
82780 
82891 
82990 
83188 
83382 
83556 
83703 
83797 
83906 
84062 
84166 
84278 
84435 
84633 
84819 
85060 
85257 
85449 
85575 
85747 
85924 
86047 
86222 
86416 
86539 
86632 
86794 
87018 
87133 
87227 
87476 
87591 
87691 
87777 
87895 
87987 
88089 
88183 
88348 
88479 
88647 
88883 
89023 
89127 
89393 
89513 
89701 
89865 
90013 
90231 
90337 
90461 
90588 
90755 
90980 
91142 
91348 
91519 
91608 
91707 
91826 
92044 
92144 
92320 
92605 
92783 
93036 
93214 
93382 
93675 
93870 
94108 
94308 
94538 
94703 
94955 
95165 
95324 
95560 
95717 
95853 
96028 
96191 
96419 
96528 
96645 
96909 
97026 
97127 
97288 
97436 
97563 
97655 
97771 
97901 
98015 
98117 
98291 
98389 
98475 
98665 
98860 
98953 
99137 
99282 
99404 
99566 
99744 
99948 
100163 
100367 
100591 
100754 
100978 
101181 
101332 
101527 
101712 
101837 
101991 
102097 
102280 
102471 
102606 
102771 
102876 
103042 
103153 
103320 
103462 
103556 
103676 
103773 
103870 
103967 
104115 
104344 
104533 
104703 
104867 
105051 
105152 
105260 
105357 
105537 
105636 
105777 
105880 
106063 
106183 
106285 
106382 
106545 
106774 
106921 
107050 
107151 
107333 
107508 
107688 
107930 
108171 
108304 
108449 
108621 
108809 
109012 
109125 
109223 
109392 
109580 
109685 
109779 
109933 
110108 
110216 
110390 
110552 
110829 
110984 
111231 
111420 
111591 
111773 
111887 
112137 
112257 
112358 
112455 
112591 
112770 
112953 
113051 
113151 
113373 
113486 
113661 
113901 
114051 
114245 
114350 
114464 
114609 
114716 
114895 
114997 
115101 
115203 
115404 
115561 
115842 
115952 
116053 
116130 
116232 
116386 
116623 
116761 
116938 
117107 
117272 
117414 
117512 
117712 
117822 
117976 
118189 
118411 
118662 
118781 
119035 
119271 
119454 
119575 
119679 
119896 
120050 
120164 
120271 
120371 
120467 
120558 
120734 
120837 
121033 
121155 
121323 
121422 
121510 
121707 
121822 
121922 
122042 
122162 
122270 
122411 
122618 
122768 
122863 
122971 
123066 
123173 
123411 
123508 
123609 
123780 
123957 
124146 
124339 
124451 
124586 
124803 
124939 
125125 
125295 
125454 
125688 
125868 
126028 
126149 
126329 
126477 
126583 
126763 
126856 
126955 
127127 
127259 
127436 
127543 
127650 
127750 
127848 
128016 
128127 
128227 
128392 
128587 
128718 
128811 
128907 
129068 
129237 
129484 
129592 
129835 
130029 
130209 
130306 
130403 
130502 
130711 
130826 
130917 
131023 
131110 
131324 
131429 
131529 
131626 
131768 
132005 
132128 
132335 
132629 
132742 
132934 
133074 
133260 
133383 
133561 
133775 
133984 
134314 
134585 
134732 
134898 
135007 
135097 
135285 
135513 
135681 
135863 
136016 
136115 
136226 
136400 
136501 
136609 
136737 
136840 
136940 
137037 
137130 
137237 
137449 
137583 
137663 
137862 
138016 
138117 
138230 
138314 
138410 
138560 
138759 
138858 
139047 
139218 
139350 
139501 
139666 
139757 
139854 
140062 
140160 
140331 
140518 
140689 
140790 
140896 
140984 
141155 
141260 
141359 
141512 
141600 
142233 
142385 
142569 
142755 
142899 
143048 
143236 
143382 
143509 
143630 
143849 
143991 
144138 
144254 
144344 
144486 
144626 
144780 
144938 
145073 
145192 
145365 
145464 
145605 
145799 
145964 
146128 
146291 
146475 
146586 
146757 
146859 
147015 
147138 
147308 
147431 
147530 
147742 
147856 
147962 
148032 
148281 
148467 
148632 
148803 
148966 
149086 
149430 
149924 
150167 
150266 
150526 
150649 
150877 
151019 
151173 
151271 
151363 
151573 
151686 
151786 
151880 
151985 
152087 
152264 
152472 
152663 
152834 
153055 
153159 
153322 
153495 
153601 
153697 
153892 
154049 
154153 
154290 
154384 
154496 
154631 
154814 
154970 
155139 
155307 
155424 
155588 
155704 
155856 
156034 
156135 
156326 
156505 
156693 
156864 
156960 
157075 
157151 
157286 
157444 
157560 
157716 
157903 
158024 
158211 
158406 
158504 
158602 
158734 
158846 
158925 
159058 
159196 
159335 
159510 
159661 
159807 
159972 
160134 
160431 
160538 
160789 
160962 
161059 
161168 
161253 
161343 
161540 
161680 
161782 
161982 
162084 
162248 
162342 
162508 
162702 
162892 
163001 
163143 
163235 
163411 
163569 
163695 
163806 
163884 
164063 
164165 
164258 
164426 
164583 
164735 
164963 
165103 
165198 
165301 
165529 
165634 
165813 
165981 
166135 
166235 
166414 
166509 
166599 
166697 
166875 
166977 
167078 
167177 
167311 
167487 
167662 
167875 
167969 
168078 
168309 
168508 
168699 
168835 
168983 
169154 
169359 
169502 
169605 
169766 
169968 
170138 
170266 
170408 
170597 
170789 
170883 
171020 
171184 
171281 
171484 
171646 
171736 
171853 
172004 
172263 
172524 
172705 
172903 
173081 
173220 
173317 
173408 
173584 
173715 
173937 
174128 
174282 
174452 
174633 
174750 
174960 
175111 
175220 
175385 
175494 
175639 
175790 
175982 
176076 
176274 
176434 
176534 
176641 
176860 
177038 
177130 
177309 
177405 
177577 
177729 
177898 
178019 
178131 
178265 
178365 
178460 
178595 
178702 
178808 
178955 
179039 
179176 
179355 
179491 
179600 
179690 
179863 
179969 
180059 
180248 
180433 
180595 
180685 
180787 
180974 
181206 
181329 
181508 
181697 
181783 
181896 
181991 
182098 
182267 
182478 
182591 
182765 
182865 
183051 
183150 
183359 
183462 
183563 
183663 
183816 
183907 
184075 
184163 
184362 
184518 
184663 
184763 
184903 
185041 
185158 
185291 
185477 
185580 
185736 
185843 
185945 
186115 
186339 
186427 
186540 
186624 
186777 
186878 
187031 
187186 
187378 
187537 
187709 
187811 
187993 
188127 
188279 
188418 
188525 
188616 
188706 
188840 
189032 
189211 
189375 
189531 
189715 
189806 
189917 
190047 
190226 
190327 
190495 
190648 
190832 
190936 
191155 
191342 
191429 
191540 
191754 
191899 
192021 
192187 
192318 
192465 
192549 
192665 
192773 
192959 
193050 
193162 
193304 
193406 
193553 
193774 
193969 
194060 
194168 
194266 
194384 
194495 
194614 
194795 
194886 
195053 
195229 
195393 
195534 
195701 
195794 
195903 
196000 
196097 
196194 
196360 
196463 
196561 
196727 
196883 
196998 
197141 
197281 
197441 
197595 
197696 
197797 
197894 
198032 
198201 
198293 
198386 
198591 
198686 
198774 
198909 
199032 
199191 
199384 
199552 
199759 
199890 
200067 
200163 
200266 
200367 
200498 
200662 
200784 
200874 
200985 
201101 
201279 
201395 
201556 
201661 
201746 
201844 
202019 
202178 
202367 
202556 
202650 
202744 
202875 
203002 
203093 
203181 
203330 
203433 
203582 
203757 
203851 
203956 
204076 
204179 
204275 
204418 
204656 
204747 
204854 
205003 
205125 
205313 
205469 
205546 
205749 
205856 
206002 
206207 
206301 
206479 
206604 
206723 
206956 
207048 
207233 
207449 
207600 
207728 
207957 
208077 
208164 
208345 
208541 
208644 
208772 
208861 
209007 
209099 
209196 
209434 
209534 
209707 
209859 
210048 
210151 
210286 
210466 
210594 
210695 
210780 
210894 
211072 
211173 
211279 
211376 
211504 
211652 
211840 
212021 
212192 
212292 
212378 
212495 
212644 
212814 
212932 
213048 
213198 
213405 
213511 
213674 
213860 
214009 
214126 
214284 
214376 
214473 
214558 
214662 
214772 
214875 
214972 
215046 
215205 
215305 
215573 
215670 
215821 
215973 
216064 
216186 
216324 
216517 
216659 
216760 
216888 
216983 
217146 
217398 
217575 
217780 
218018 
218193 
218317 
218510 
218601 
218828 
218987 
219086 
219298 
219418 
219588 
219816 
219923 
220056 
220316 
220429 
220525 
220632 
220778 
220962 
221179 
221355 
221519 
221726 
221870 
222021 
222156 
222293 
222489 
222584 
222688 
222785 
222882 
222999 
223201 
223357 
223468 
223561 
223670 
223767 
223865 
224038 
224216 
224322 
224477 
224625 
224717 
224828 
225039 
225135 
225296 
225462 
225559 
225749 
225924 
226026 
226122 
226242 
226415 
226552 
226654 
226751 
226829 
226978 
227139 
227297 
227395 
227584 
227748 
227842 
228093 
228185 
228410 
228553 
228726 
228887 
228987 
229076 
229177 
229281 
229378 
229604 
229702 
229837 
229969 
230088 
230210 
230310 
230415 
230577 
230768 
230877 
230971 
231129 
231296 
231408 
231509 
231605 
231784 
231971 
232078 
232216 
232303 
232488 
232644 
232812 
232978 
233076 
233181 
233341 
233486 
233709 
233882 
234062 
234165 
234274 
234375 
234457 
234569 
234638 
234763 
234980 
235141 
235338 
235516 
235651 
235781 
235910 
235999 
236148 
236320 
236511 
236614 
236703 
236796 
236900 
237045 
237257 
237358 
237444 
237631 
237820 
238013 
238117 
238312 
238494 
238611 
238729 
238912 
239046 
239134 
239303 
239414 
239572 
239754 
239960 
240115 
240309 
240555 
240711 
240848 
241038 
241300 
241470 
241689 
241784 
241887 
241975 
242086 
242209 
242315 
242524 
242764 
242967 
243181 
243386 
243537 
243702 
243810 
243980 
244117 
244334 
244532 
244683 
244779 
244869 
244971 
245134 
245252 
245414 
245667 
245874 
246006 
246219 
246414 
246659 
246811 
246918 
247002 
247098 
247193 
247400 
247510 
247669 
247760 
247961 
248102 
248255 
248420 
248625 
248789 
249008 
249166 
249267 
249373 
249524 
249624 
249774 
249946 
250204 
250417 
250554 
250794 
251019 
251231 
251371 
251566 
251786 
251988 
252166 
252350 
252572 
252765 
252926 
253016 
253241 
253346 
253442 
253546 
253627 
253818 
254085 
254389 
254486 
254821 
254984 
255081 
255177 
255417 
255524 
255760 
255937 
256211 
256380 
256473 
256716 
256923 
257172 
257333 
257494 
257678 
257798 
257960 
258129 
258234 
258321 
258425 
258528 
258637 
258739 
258836 
258944 
259078 
259188 
259359 
259488 
259685 
259827 
260069 
260182 
260423 
260586 
260734 
260989 
261187 
261281 
261375 
261494 
261667 
261789 
261914 
262020 
262267 
262363 
262466 
262563 
262722 
262887 
263041 
263229 
263390 
263485 
263639 
263736 
263912 
264042 
264212 
264361 
264473 
264564 
264717 
264826 
264926 
265085 
265189 
265288 
265433 
265564 
265669 
265800 
265898 
266020 
266116 
266370 
266469 
266754 
266881 
267031 
267224 
267391 
267630 
267807 
268031 
268227 
268317 
268471 
268661 
268824 
269098 
269210 
269307 
269479 
269640 
269818 
269920 
270084 
270264 
270442 
270542 
270854 
270962 
271158 
271335 
271491 
271604 
271805 
272018 
272243 
272540 
272671 
272767 
272926 
273020 
273270 
273387 
273488 
273584 
273797 
273904 
274001 
274159 
274436 
274543 
274712 
274902 
275094 
275203 
275299 
275392 
275500 
275678 
275781 
276001 
276100 
276201 
276311 
276546 
276813 
277086 
277275 
277430 
277536 
277631 
277880 
277993 
278094 
278268 
278494 
278739 
278872 
279005 
279108 
279280 
279447 
279645 
279748 
279972 
280095 
280261 
280429 
280523 
280661 
280860 
281004 
281193 
281434 
281605 
281713 
281802 
281963 
282169 
282268 
282372 
282528 
282755 
282984 
283227 
283351 
283566 
283739 
283944 
284138 
284341 
284455 
284668 
284806 
284939 
285072 
285165 
285308 
285522 
285691 
285895 
286046 
286320 
286549 
286691 
286781 
286887 
287042 
287133 
287227 
287331 
287522 
287701 
287862 
287967 
288159 
288257 
288357 
288440 
288556 
288660 
288769 
289029 
289143 
289242 
289358 
289542 
289711 
289867 
289973 
290085 
290192 
290307 
290466 
290596 
290745 
290842 
290923 
291042 
291139 
291379 
291474 
291578 
291669 
291865 
291974 
292051 
292220 
292331 
292433 
292530 
292652 
292864 
293050 
293330 
293524 
293628 
293853 
293949 
294052 
294186 
294322 
294425 
294788 
294901 
295001 
295098 
295244 
295345 
295442 
295663 
295773 
295873 
296045 
296138 
296254 
296434 
296534 
296645 
296785 
297001 
297122 
297444 
297546 
297616 
297785 
297902 
298056 
298164 
298263 
298384 
298482 
298565 
298657 
298772 
298872 
298989 
299148 
299367 
299496 
299590 
299809 
299988 
300166 
300348 
300445 
300599 
300765 
300986 
301094 
301297 
301546 
301742 
301909 
302025 
302153 
302371 
302633 
302774 
302921 
303019 
303108 
303212 
303410 
303538 
303756 
303940 
304123 
304273 
304429 
304527 
304628 
304733 
304820 
304940 
305075 
305275 
305475 
305655 
305788 
306013 
306202 
306311 
306535 
306688 
306792 
306884 
307074 
307179 
307418 
307632 
307820 
307912 
308024 
308108 
308263 
308454 
308586 
308735 
308858 
309004 
309174 
309376 
309513 
309679 
309869 
310022 
310208 
310459 
310567 
310670 
310816 
310983 
311074 
311167 
311282 
311378 
311473 
311566 
311756 
311871 
311972 
312195 
312327 
312424 
312661 
312768 
312868 
312965 
313115 
313332 
313502 
313656 
313877 
314094 
314291 
314430 
314630 
314871 
315080 
315296 
315399 
315498 
315745 
315850 
315951 
316087 
316272 
316569 
316867 
317077 
317289 
317478 
317658 
317845 
317976 
318086 
318183 
318462 
318576 
318676 
318823 
318981 
319230 
319423 
319537 
319746 
319969 
320164 
320348 
320549 
320748 
320863 
320948 
321126 
321250 
321432 
321668 
321844 
321947 
322199 
322318 
322419 
322545 
322709 
322875 
323166 
323433 
323564 
323658 
323813 
323978 
324130 
324247 
324451 
324599 
324775 
324868 
324977 
325074 
325216 
325287 
325473 
325639 
325800 
325921 
326007 
326118 
326215 
326312 
326426 
326547 
326690 
326872 
326996 
327150 
327271 
327400 
327509 
327692 
327872 
328084 
328293 
328426 
328529 
328627 
328717 
328825 
328983 
329154 
329257 
329349 
329478 
329794 
329897 
330001 
330098 
330199 
330417 
330601 
330784 
330972 
331086 
331331 
331456 
331677 
331902 
332138 
332260 
332378 
332522 
332731 
332832 
333063 
333303 
333497 
333672 
333873 
334052 
334238 
334354 
334561 
334690 
334776 
334872 
335117 
335236 
335337 
335481 
335586 
335746 
335997 
336192 
336448 
336642 
336796 
336900 
337050 
337320 
337617 
337791 
338011 
338180 
338347 
338619 
338795 
338891 
339115 
339370 
339579 
339685 
339797 
340034 
340138 
340239 
340349 
340620 
340866 
341087 
341278 
341456 
341634 
341736 
341959 
342127 
342340 
342519 
342673 
342773 
342867 
343030 
343165 
343358 
343541 
343679 
343809 
343914 
344063 
344269 
344420 
344513 
344612 
344773 
344875 
345026 
345145 
345344 
345517 
345709 
345818 
346059 
346267 
346426 
346594 
346799 
346979 
347232 
347340 
347605 
347728 
347923 
348052 
348202 
348329 
348489 
348640 
348748 
348943 
349069 
349232 
349422 
349611 
349841 
350023 
350227 
350377 
350569 
350742 
350935 
351049 
351213 
351501 
351714 
351878 
352098 
352257 
352466 
352632 
352836 
353032 
353209 
353449 
353595 
353729 
353920 
354093 
354233 
354407 
354552 
354730 
354920 
355088 
355314 
355440 
355606 
355752 
355870 
356045 
356270 
356485 
356593 
356687 
356829 
356996 
357138 
357330 
357548 
357711 
357858 
358003 
358218 
358392 
358608 
358764 
358889 
359067 
359209 
359366 
359472 
359578 
359692 
359847 
360029 
360183 
360282 
360383 
360575 
360682 
360848 
361016 
361129 
361283 
361463 
361661 
361770 
361934 
362034 
362143 
362240 
362434 
362543 
362642 
362718 
362826 
363003 
363155 
363249 
363438 
363544 
363645 
363825 
363947 
364066 
364225 
364324 
364420 
364605 
364770 
364974 
365071 
365255 
365360 
365451 
365590 
365778 
365967 
366089 
366268 
366413 
366627 
366855 
366957 
367063 
367230 
367433 
367675 
367782 
367980 
368079 
368253 
368395 
368550 
368651 
368755 
368935 
369038 
369179 
369335 
369492 
369666 
369786 
369895 
369992 
370157 
370367 
370550 
370682 
370837 
371020 
371110 
371338 
371441 
371548 
371723 
371833 
372070 
372257 
372435 
372647 
372873 
373050 
373159 
373380 
373491 
373600 
373745 
373962 
374098 
374243 
374348 
374451 
374605 
374804 
375042 
375327 
375504 
375796 
376041 
376175 
376362 
376596 
376761 
376864 
377011 
377220 
377393 
377497 
377602 
377696 
377857 
378022 
378284 
378432 
378593 
378767 
378906 
379133 
379343 
379643 
379865 
379971 
380186 
380413 
380555 
380669 
380777 
380846 
381018 
381861 
382009 
382111 
382318 
382559 
382723 
382958 
383124 
383219 
383326 
383418 
383532 
383659 
383868 
383981 
384090 
384263 
384405 
384530 
384636 
384764 
384874 
385027 
385223 
385425 
385647 
385845 
385961 
386138 
386308 
386521 
386685 
386847 
387044 
387208 
387315 
387494 
387689 
387893 
388073 
388181 
388278 
388392 
388513 
388630 
388837 
388968 
389075 
389243 
389353 
389623 
389732 
389833 
390041 
390344 
390467 
390635 
390793 
390885 
390997 
391095 
391277 
391445 
391609 
391791 
391995 
392115 
392338 
392497 
392684 
392861 
392957 
393087 
393203 
393396 
393578 
393735 
393827 
393977 
394083 
394238 
394403 
394551 
394733 
394898 
395110 
395319 
395510 
395650 
395815 
395955 
396135 
396296 
396445 
396613 
396775 
396956 
397053 
397160 
397257 
397380 
397481 
397815 
397937 
398037 
398178 
398347 
398512 
398698 
398795 
398985 
399133 
399259 
399502 
399726 
399878 
399979 
400162 
400288 
400392 
400598 
400736 
400943 
401049 
401225 
401375 
401632 
401758 
401877 
402026 
402169 
402345 
402552 
402772 
402885 
403086 
403210 
403469 
403613 
403714 
403795 
403966 
404168 
404276 
404545 
404655 
404757 
404876 
405186 
405417 
405599 
405706 
405858 
406084 
406180 
406316 
406528 
406785 
406933 
407087 
407245 
407436 
407607 
407705 
407810 
408001 
408171 
408331 
408437 
408611 
408802 
409080 
409197 
409309 
409479 
409657 
409867 
409978 
410143 
410293 
410499 
410605 
410748 
410913 
411020 
411119 
411212 
411313 
411408 
411507 
411612 
411700 
411808 
411911 
412015 
412093 
412191 
412353 
412577 
412683 
412774 
413044 
413220 
413321 
413495 
413604 
413703 
413829 
414005 
414168 
414388 
414520 
414622 
414771 
414935 
415137 
415366 
415572 
415724 
415888 
415992 
416237 
416361 
416581 
416696 
416897 
417059 
417337 
417498 
417674 
417885 
418033 
418145 
418328 
418510 
418662 
418895 
419068 
419298 
419410 
419498 
419597 
419756 
419983 
420099 
420288 
420472 
420668 
420863 
421068 
421277 
421424 
421576 
421781 
421935 
422040 
422217 
422416 
422589 
422813 
423013 
423190 
423367 
423556 
423718 
423917 
424164 
424273 
424367 
424528 
424636 
424784 
424978 
425090 
425286 
425414 
425575 
425776 
425954 
426123 
426223 
426324 
426472 
426570 
426802 
427002 
427108 
427294 
427504 
427626 
427790 
427885 
428031 
428185 
428384 
428591 
428704 
428797 
428894 
429009 
429157 
429258 
429350 
429507 
429789 
429977 
430215 
430442 
430683 
430814 
430917 
431072 
431232 
431370 
431465 
431603 
431722 
431960 
432154 
432254 
432395 
432530 
432695 
432893 
433078 
433237 
433435 
433657 
433888 
434129 
434236 
434321 
434457 
434549 
434661 
434800 
435009 
435190 
435291 
435443 
435638 
435748 
435951 
436172 
436372 
436636 
436921 
437115 
437279 
437458 
437664 
437869 
437990 
438180 
438346 
438632 
438781 
438985 
439152 
439349 
439587 
439817 
439981 
440150 
440250 
440346 
440514 
440625 
440726 
440887 
440986 
441082 
441236 
441527 
441727 
442097 
442277 
442476 
442582 
442710 
442804 
442964 
443289 
443429 
443584 
443682 
443780 
443875 
443955 
444137 
444249 
444434 
444649 
444805 
445028 
445207 
445312 
445561 
445799 
445912 
446146 
446387 
446527 
446703 
446823 
447006 
447235 
447456 
447608 
447790 
447898 
448001 
448100 
448212 
448347 
448550 
448744 
448908 
449067 
449232 
449401 
449594 
449754 
449854 
449948 
450101 
450301 
450473 
450582 
450687 
450886 
451017 
451188 
451424 
451565 
451765 
451870 
452083 
452230 
452336 
452438 
452571 
452769 
453023 
453297 
453486 
453656 
453755 
453911 
454087 
454276 
454479 
454680 
454774 
455001 
455129 
455235 
455470 
455637 
455748 
455860 
456019 
456164 
456306 
456492 
456670 
456821 
457033 
457272 
457486 
457662 
457828 
457945 
458045 
458135 
458315 
458422 
458522 
458619 
458716 
458820 
458943 
459103 
459298 
459413 
459519 
459699 
459809 
459984 
460171 
460383 
460556 
460822 
460995 
461260 
461506 
461663 
461812 
462046 
