3.9375 2.609012 1.792262 -0.81675
4.74609375 2.584707 1.754853 -0.829854
5.34375 2.545281 1.741214 -0.804067
6.1328125 2.611622 1.771622 -0.84
6.8828125 2.622025 1.771618 -0.850407
7.56640625 2.607691 1.709514 -0.898177
8.36328125 2.660146 1.748783 -0.911363
8.97265625 2.61506 1.734385 -0.880675
9.60546875 2.529365 1.685525 -0.84384
10.734375 2.618645 1.674217 -0.944428
11.8828125 2.581637 1.73937 -0.842267
12.72265625 2.619541 1.764541 -0.855
13.62109375 2.570984 1.749695 -0.821289
14.45703125 2.699305 1.848384 -0.850921
15.4765625 2.637303 1.825 -0.812303
16.2421875 2.605842 1.875854 -0.729988
16.83203125 2.6208270000000002 1.816621 -0.804206
17.65234375 2.587395 1.839028 -0.748367
18.578125 2.666767 1.853503 -0.813264
19.7734375 2.6695450000000003 1.790334 -0.879211
20.51953125 2.6446300000000003 1.865 -0.77963
21.66796875 2.520076 1.795 -0.725076
22.8125 2.577744 1.853684 -0.72406
23.46484375 2.574404 1.849813 -0.724591
24.25 2.51143 1.82 -0.69143
24.97265625 2.614087 1.764087 -0.85
25.65625 2.522726 1.713814 -0.808912
26.5078125 2.602092 1.733318 -0.868774
27.453125 2.5126869999999997 1.697687 -0.815
28.4296875 2.52585 1.660521 -0.865329
29.25390625 2.61356 1.738421 -0.875139
29.9765625 2.5215229999999997 1.701523 -0.82
30.62109375 2.501716 1.704482 -0.797234
31.32421875 2.559983 1.659624 -0.900359
32.06640625 2.521567 1.636567 -0.885
32.80078125 2.5528020000000002 1.674322 -0.87848
33.7421875 2.562061 1.677184 -0.884877
34.30078125 2.549149 1.715 -0.834149
35.296875 2.501521 1.654772 -0.846749
36.1484375 2.551211 1.703971 -0.84724
36.98828125 2.545341 1.719744 -0.825597
37.796875 2.563095 1.738652 -0.824443
38.51171875 2.679851 1.747817 -0.932034
39.28125 2.492206 1.773309 -0.718897
40.04296875 2.3938360000000003 1.756771 -0.637065
40.671875 2.329841 1.713928 -0.615913
41.5625 2.3604640000000003 1.658654 -0.70181
42.30859375 2.316745 1.654304 -0.662441
43.2734375 2.342902 1.593349 -0.749553
44.015625 2.488236 1.628567 -0.859669
44.703125 2.374939 1.525 -0.849939
45.44921875 2.39458 1.55458 -0.84
46.16015625 2.311135 1.467948 -0.843187
46.921875 2.3595379999999997 1.519429 -0.840109
47.765625 2.163772 1.365 -0.798772
48.52734375 2.2387319999999997 1.373732 -0.865
49.3046875 2.164923 1.379612 -0.785311
49.98046875 2.174163 1.305546 -0.868617
50.8046875 2.27421 1.346887 -0.927323
51.57421875 2.174213 1.29743 -0.876783
52.19921875 2.336061 1.469373 -0.866688
53.25390625 2.325813 1.377813 -0.948
54.046875 2.460716 1.458174 -1.002542
55.0703125 2.419303 1.504303 -0.915
55.63671875 2.287685 1.466903 -0.820782
56.3359375 2.313611 1.419782 -0.893829
57.37109375 2.280056 1.455062 -0.824994
58.1796875 2.226528 1.426528 -0.8
58.828125 2.1799079999999997 1.38 -0.799908
59.9921875 2.493943 1.584068 -0.909875
60.66796875 2.305249 1.540249 -0.765
61.24609375 2.4377009999999997 1.558142 -0.879559
61.94140625 2.3936070000000003 1.484634 -0.908973
62.6328125 2.504673 1.574814 -0.929859
63.44921875 2.367962 1.557312 -0.81065
64.0390625 2.3597919999999997 1.534792 -0.825
64.8671875 2.427725 1.584344 -0.843381
65.6484375 2.383195 1.536542 -0.846653
66.33203125 2.381281 1.574463 -0.806818
67.3046875 2.429998 1.606141 -0.823857
67.87890625 2.469643 1.414421 -1.055222
68.74609375 2.462303 1.591554 -0.870749
69.48828125 2.430749 1.545 -0.885749
70.30859375 2.534568 1.694269 -0.840299
70.875 2.521119 1.74 -0.781119
71.75390625 2.458907 1.624649 -0.834258
72.50390625 2.425353 1.633166 -0.792187
73.4453125 2.495 1.685 -0.81
74.03515625 2.4300300000000004 1.64003 -0.79
74.84375 2.639226 1.749667 -0.889559
75.48046875 2.5415229999999998 1.754919 -0.786604
76.3203125 2.483373 1.668755 -0.814618
76.9296875 2.376018 1.544163 -0.831855
77.7421875 2.516062 1.698796 -0.817266
78.625 2.55987 1.76 -0.79987
79.21484375 2.511646 1.612984 -0.898662
79.953125 2.5039499999999997 1.708961 -0.794989
80.79296875 2.454214 1.651719 -0.802495
81.5390625 2.542809 1.679511 -0.863298
82.2109375 2.489739 1.719739 -0.77
82.8984375 2.529345 1.671572 -0.857773
83.48046875 2.396209 1.59953 -0.796679
84.3828125 2.387139 1.632202 -0.754937
85.20703125 2.452943 1.647557 -0.805386
86.01953125 2.458705 1.654988 -0.803717
86.625 2.397679 1.61 -0.787679
87.37109375 2.363947 1.602974 -0.760973
88.125 2.317733 1.51 -0.807733
88.83203125 2.122991 1.346727 -0.776264
89.6796875 2.315398 1.495448 -0.81995
90.6484375 2.398541 1.543869 -0.854672
91.6484375 2.438924 1.576559 -0.862365
92.34765625 2.809501 1.724501 -1.085
93.2421875 2.31663 1.49663 -0.82
94.0234375 2.240544 1.399631 -0.840913
94.7734375 2.2749309999999996 1.242665 -1.032266
95.59375 2.332278 1.560719 -0.771559
96.25 2.279871 1.605 -0.674871
96.8125 2.4483360000000003 1.444091 -1.004245
97.81640625 2.522196 1.624055 -0.898141
98.4765625 2.489854 1.656216 -0.833638
99.015625 2.513102 1.433418 -1.079684
99.7421875 2.29394 1.488004 -0.805936
100.69140625 2.352912 1.555 -0.797912
101.2734375 2.409888 1.37901 -1.030878
102.21875 2.381826 1.667629 -0.714197
102.91796875 2.468591 1.673515 -0.795076
103.76171875 2.5072039999999998 1.667592 -0.839612
104.609375 2.380512 1.620785 -0.759727
105.25 2.314876 1.605 -0.709876
106.0625 2.463545 1.624208 -0.839337
106.68359375 2.470232 1.664193 -0.806039
107.46484375 2.426032 1.68781 -0.738222
108.17578125 2.566768 1.738699 -0.828069
108.984375 2.438513 1.683513 -0.755
109.79296875 2.44603 1.666179 -0.779851
110.4140625 2.428106 1.644651 -0.783455
111.171875 2.337579 1.655 -0.682579
112.0234375 2.465341 1.625903 -0.839438
112.890625 2.356983 1.644792 -0.712191
113.87109375 2.349482 1.614482 -0.735
114.5546875 2.4601 1.732722 -0.727378
115.2734375 2.449801 1.602822 -0.846979
116.46875 2.508797 1.67003 -0.838767
117.2890625 2.475758 1.694919 -0.780839
117.9140625 2.404673 1.65483 -0.749843
119.1484375 2.498874 1.688933 -0.809941
119.70703125 2.514707 1.667147 -0.84756
120.61328125 2.25847 1.53847 -0.72
121.37109375 2.268116 1.531138 -0.736978
122.2890625 2.409707 1.659978 -0.749729
122.9140625 2.400648 1.709694 -0.690954
123.7109375 2.364457 1.609713 -0.754744
124.59765625 2.3031360000000003 1.543136 -0.76
125.546875 2.426692 1.64 -0.786692
126.2734375 2.389978 1.616542 -0.773436
126.88671875 2.354879 1.594178 -0.760701
127.5 2.17957 1.48 -0.69957
128.14453125 2.197102 1.479934 -0.717168
129.015625 2.1779 1.5179 -0.66
129.9609375 2.213126 1.564924 -0.648202
130.87109375 2.284854 1.574105 -0.710749
131.77734375 2.21885 1.556348 -0.662502
132.38671875 2.188871 1.561837 -0.627034
133.2265625 2.215197 1.459364 -0.755833
133.98046875 2.139917 1.389917 -0.75
134.75 2.052187 1.24 -0.812187
135.5078125 1.970349 1.266681 -0.703668
136.40625 2.026013 1.316056 -0.709957
137.125 1.9849739999999998 1.305 -0.679974
137.7265625 2.0357260000000004 1.327441 -0.708285
138.35546875 2.128262 1.394958 -0.733304
139.25390625 2.155328 1.428638 -0.72669
140.3125 2.214403 1.392593 -0.82181
140.94921875 2.246304 1.412963 -0.833341
141.96875 2.156886 1.362566 -0.79432
142.6796875 2.073658 1.241961 -0.831697
143.62109375 2.156247 1.312445 -0.843802
144.49609375 2.163717 1.358142 -0.805575
145.26953125 2.18529 1.40029 -0.785
146.078125 2.179891 1.374349 -0.805542
147.1015625 2.2024470000000003 1.457694 -0.744753
147.9921875 2.2727329999999997 1.467863 -0.80487
148.8984375 2.217288 1.432749 -0.784539
149.56640625 2.189773 1.434773 -0.755
150.2734375 2.177808 1.428789 -0.749019
150.84375 2.1588830000000003 1.439094 -0.719789
151.7578125 2.264914 1.449591 -0.815323
152.53125 2.321969 1.492879 -0.82909
153.22265625 2.269692 1.494692 -0.775
153.96484375 2.271473 1.534212 -0.737261
154.77734375 2.253335 1.46471 -0.788625
155.36328125 2.329758 1.5069 -0.822858
156.390625 2.258178 1.508365 -0.749813
157.1640625 2.280304 1.556111 -0.724193
158.0546875 2.347429 1.565 -0.782429
158.76171875 2.366022 1.546401 -0.819621
159.4453125 2.253146 1.458158 -0.794988
160.27734375 2.3493239999999997 1.473553 -0.875771
160.93359375 2.429685 1.519685 -0.91
161.61328125 2.358729 1.526859 -0.83187
162.2109375 2.369797 1.369546 -1.000251
162.95703125 2.321293 1.528291 -0.793002
163.7578125 2.358532 1.577793 -0.780739
164.578125 2.3844849999999997 1.629049 -0.755436
165.63671875 2.343534 1.658615 -0.684919
166.29296875 2.2865510000000002 1.630191 -0.65636
167.20703125 2.413949 1.673511 -0.740438
167.953125 2.369488 1.679205 -0.690283
168.75390625 2.327853 1.708192 -0.619661
169.49609375 2.385223 1.653119 -0.732104
170.41796875 2.417223 1.695936 -0.721287
171.3359375 2.519972 1.744801 -0.775171
171.97265625 2.487636 1.772636 -0.715
172.796875 2.455225 1.702788 -0.752437
173.4375 2.365409 1.577647 -0.787762
174.25 2.3623410000000002 1.6 -0.762341
175.0703125 2.425964 1.642277 -0.783687
175.52734375 3.0871890000000004 1.611317 -1.475872
176.61328125 2.333601 1.599434 -0.734167
177.515625 2.3411720000000003 1.541172 -0.8
178.13671875 2.27049 1.525299 -0.745191
178.84375 2.331803 1.595 -0.736803
179.71484375 2.3888059999999998 1.577439 -0.811367
180.53125 2.392739 1.623828 -0.768911
181.609375 2.3663410000000002 1.531771 -0.83457
182.37890625 2.289707 1.454707 -0.835
183.2265625 2.027734 1.253991 -0.773743
184.20703125 2.3316280000000003 1.507411 -0.824217
184.85546875 2.403827 1.554899 -0.848928
185.65234375 2.428728 1.516361 -0.912367
186.3984375 2.440549 1.538945 -0.901604
187.27734375 2.470535 1.592499 -0.878036
188.078125 2.4620949999999997 1.562161 -0.899934
188.5859375 2.439089 1.594929 -0.84416
189.47265625 2.363305 1.678305 -0.685
190.12890625 2.120061 1.512974 -0.607087
190.890625 2.183023 1.562617 -0.620406
191.5859375 2.2205630000000003 1.555563 -0.665
192.26171875 2.26269 1.487953 -0.774737
193.015625 2.223814 1.463398 -0.760416
193.83203125 2.437908 1.470877 -0.967031
194.6328125 2.468117 1.474302 -0.993815
195.3515625 2.4788259999999998 1.538768 -0.940058
196.08203125 2.455366 1.503241 -0.952125
196.98046875 2.473085 1.554912 -0.918173
197.9140625 2.469448 1.564978 -0.90447
198.78125 2.440414 1.611992 -0.828422
199.49609375 2.466098 1.561167 -0.904931
200.3125 2.5513440000000003 1.651923 -0.899421
201.26953125 2.609265 1.705295 -0.90397
202.046875 2.6284520000000002 1.69982 -0.928632
203.08203125 2.102557 1.427557 -0.675
203.671875 1.622015 1.158854 -0.463161
205.23046875 1.6338400000000002 1.02 -0.61384
205.89453125 1.915791 1.149946 -0.765845
206.671875 2.026668 1.26 -0.766668
207.359375 1.94024 1.102366 -0.837874
208.15234375 1.916493 1.028945 -0.887548
209.09375 2.0395190000000003 1.154519 -0.885
209.84375 1.823893 1.013438 -0.810455
210.578125 2.138816 1.293928 -0.844888
211.40625 2.297086 1.487812 -0.809274
212.234375 1.9791320000000001 1.206217 -0.772915
213.03125 1.11306 0.423068 -0.689992
213.6796875 1.525 0.755 -0.77
214.46875 2.148876 1.376001 -0.772875
215.2421875 2.3865119999999997 1.736564 -0.649948
215.83203125 2.572003 1.858565 -0.713438
216.55078125 2.4993369999999997 1.705196 -0.794141
217.31640625 2.703122 1.809952 -0.89317
218.01171875 2.519927 1.701318 -0.818609
218.828125 2.579789 1.769812 -0.809977
219.390625 2.522337 1.517132 -1.005205
220.46484375 2.472656 1.622656 -0.85
221.1484375 2.493662 1.656738 -0.836924
221.828125 2.509872 1.67991 -0.829962
222.7421875 2.48631 1.727258 -0.759052
223.49609375 2.367408 1.652623 -0.714785
224.23828125 2.36734 1.76 -0.60734
225.07421875 2.387291 1.756808 -0.630483
226.0546875 2.394729 1.664751 -0.729978
227.1015625 2.297521 1.581688 -0.715833
227.8359375 2.43343 1.619979 -0.813451
228.57421875 2.4327620000000003 1.607228 -0.825534
229.203125 2.447128 1.648105 -0.799023
230.0078125 2.440487 1.603045 -0.837442
231.0 2.43 1.655 -0.775
231.58203125 2.375883 1.506723 -0.86916
232.4921875 2.214301 1.514301 -0.7
233.234375 2.248268 1.445815 -0.802453
234.109375 2.168433 1.35625 -0.812183
234.9609375 2.259275 1.374614 -0.884661
235.70703125 2.340121 1.491847 -0.848274
236.3203125 2.417458 1.648793 -0.768665
237.09765625 2.353661 1.723785 -0.629876
237.6875 2.351433 1.7955 -0.555933
238.5859375 2.322918 1.769694 -0.553224
239.4296875 2.2753240000000003 1.715 -0.560324
240.1875 2.224208 1.614208 -0.61
240.81640625 2.166962 1.494892 -0.67207
241.69921875 2.31184 1.59684 -0.715
242.76953125 2.3537280000000003 1.674954 -0.678774
243.5234375 2.385449 1.641591 -0.743858
244.21875 2.308537 1.553537 -0.755
245.05859375 2.464578 1.644622 -0.819956
245.84765625 2.384329 1.559329 -0.825
246.4140625 2.376726 1.579701 -0.797025
247.3359375 2.474722 1.614868 -0.859854
248.0859375 2.339828 1.579828 -0.76
248.80078125 2.28783 1.649669 -0.638161
249.6484375 2.312105 1.65 -0.662105
250.52734375 2.264598 1.689718 -0.57488
251.61328125 2.232469 1.589136 -0.643333
252.46484375 2.227805 1.498007 -0.729798
253.41796875 2.11434 1.334586 -0.779754
254.03125 2.104303 1.326929 -0.777374
254.578125 1.989262 1.193794 -0.795468
255.16796875 2.0722389999999997 1.257971 -0.814268
256.37890625 2.322124 1.407124 -0.915
257.1328125 2.3494289999999998 1.417157 -0.932272
257.71484375 2.385671 1.535 -0.850671
258.41015625 2.284188 1.499507 -0.784681
259.24609375 2.307966 1.494894 -0.813072
260.03515625 2.387117 1.572793 -0.814324
260.70703125 2.331513 1.582158 -0.749355
261.38671875 2.309714 1.514714 -0.795
261.9609375 2.334899 1.599899 -0.735
262.82421875 2.353004 1.663004 -0.69
263.78515625 2.114527 1.512073 -0.602454
264.59765625 2.250199 1.637924 -0.612275
265.37109375 2.297276 1.705987 -0.591289
266.2734375 2.191786 1.682709 -0.509077
267.05859375 2.1792369999999996 1.509394 -0.669843
267.90234375 2.263876 1.419199 -0.844677
269.0234375 2.354472 1.316384 -1.038088
269.6328125 2.322184 1.368358 -0.953826
270.42578125 2.363871 1.39 -0.973871
271.21484375 2.521554 1.461811 -1.059743
271.98828125 2.450993 1.505155 -0.945838
272.8671875 2.528998 1.579121 -0.949877
273.44140625 2.437848 1.534319 -0.903529
274.30859375 2.569486 1.6 -0.969486
274.859375 2.482656 1.5755 -0.907156
275.68359375 2.464626 1.614626 -0.85
276.48828125 2.393716 1.627755 -0.765961
277.25390625 2.406922 1.65807 -0.748852
277.86328125 2.204232 1.293607 -0.910625
278.84765625 2.182619 1.372619 -0.81
279.42578125 2.308564 1.539075 -0.769489
280.171875 2.342458 1.499578 -0.84288
280.80859375 2.4678750000000003 1.584136 -0.883739
281.51953125 2.264126 1.449981 -0.814145
282.140625 2.349622 1.575 -0.774622
283.1953125 2.0649509999999998 1.426267 -0.638684
284.21875 2.193124 1.702031 -0.491093
284.875 2.197607 1.615 -0.582607
285.65234375 2.228122 1.563136 -0.664986
286.36328125 2.0899520000000003 1.539114 -0.550838
287.25390625 1.951733 1.459098 -0.492635
288.01953125 2.129364 1.419962 -0.709402
288.62890625 2.201539 1.384754 -0.816785
289.484375 2.137738 1.228323 -0.909415
290.0859375 2.045349 1.136054 -0.909295
290.8359375 2.228974 1.304092 -0.924882
291.703125 2.434385 1.294447 -1.139938
292.37109375 2.3373030000000004 1.237303 -1.1
293.12109375 2.169123 1.149151 -1.019972
293.72265625 2.2699879999999997 1.254988 -1.015
294.5234375 2.470765 1.34 -1.130765
295.37109375 2.408164 1.247157 -1.161007
296.1171875 2.561189 1.48205 -1.079139
297.1796875 2.516318 1.596505 -0.919813
298.10546875 2.5393429999999997 1.739944 -0.799399
298.953125 2.11926 1.904272 -0.214988
299.765625 2.023708 1.864138 -0.15957
300.5078125 2.136936 1.658022 -0.478914
301.140625 2.068104 1.47854 -0.589564
303.72265625 2.508761 1.548831 -0.95993
304.70703125 2.330541 1.582529 -0.748012
305.58203125 2.3387219999999997 1.581847 -0.756875
306.25390625 2.430434 1.502582 -0.927852
307.265625 2.608218 1.615675 -0.992543
308.1796875 2.573013 1.705 -0.868013
309.0625 2.500718 1.693672 -0.807046
309.921875 2.501649 1.774377 -0.727272
310.7734375 2.448478 1.812573 -0.635905
311.625 2.4929300000000003 1.82 -0.67293
312.3828125 2.573493 1.763835 -0.809658
313.41015625 2.491254 1.661986 -0.829268
314.24609375 2.4897869999999998 1.643228 -0.846559
315.12109375 2.580628 1.702769 -0.877859
315.96875 2.4608119999999998 1.631689 -0.829123
316.83203125 2.5236020000000003 1.725791 -0.797811
317.64453125 2.608304 1.74998 -0.858324
318.56640625 2.638669 1.849366 -0.789303
319.34765625 2.508845 1.763845 -0.745
320.28125 2.396103 1.791103 -0.605
321.08984375 2.211313 1.602764 -0.608549
322.01171875 2.608124 1.96335 -0.644774
322.80859375 2.459309 2.1496 -0.309709
323.73046875 2.145661 2.114981 -0.03068
325.33203125 2.319461 1.851727 -0.467734
326.15234375 2.3390310000000003 1.788251 -0.55078
326.953125 2.419771 1.66981 -0.749961
327.7734375 2.36291 1.438971 -0.923939
328.4921875 2.524197 1.449344 -1.074853
329.2578125 2.213564 1.258564 -0.955
329.90234375 2.304336 1.333049 -0.971287
330.73046875 2.352899 1.359951 -0.992948
331.5625 2.46049 1.690893 -0.769597
332.37890625 1.992105 1.9 -0.092105
333.15234375 2.040594 1.764279 -0.276315
333.80078125 2.137932 1.634548 -0.503384
334.59765625 2.209518 1.389518 -0.82
335.36328125 2.145805 1.224737 -0.921068
336.01953125 2.417538 1.434884 -0.982654
336.8828125 2.500012 1.444591 -1.055421
337.7734375 2.56142 1.547847 -1.013573
338.47265625 2.5748670000000002 1.639867 -0.935
339.37890625 2.555401 1.631677 -0.923724
340.23828125 2.579421 1.649122 -0.930299
341.13671875 2.468841 1.564072 -0.904769
341.671875 2.566312 1.515 -1.051312
342.44140625 2.497413 1.643482 -0.853931
343.40234375 2.542424 1.73002 -0.812404
344.22265625 2.613821 1.763821 -0.85
344.84375 2.543697 1.829663 -0.714034
345.66015625 2.514347 1.835458 -0.678889
346.51171875 2.42407 1.768512 -0.655558
347.14453125 2.333854 1.65029 -0.683564
347.98046875 2.38105 1.77989 -0.60116
348.71484375 2.3361859999999997 1.773116 -0.56307
349.60546875 2.413812 1.689889 -0.723923
350.2734375 2.42651 1.63187 -0.79464
350.94921875 2.239362 1.582272 -0.65709
351.6171875 2.152037 1.552052 -0.599985
352.2421875 2.1875020000000003 1.362529 -0.824973
352.90234375 2.30993 1.323223 -0.986707
353.75390625 2.3875789999999997 1.255915 -1.131664
354.53515625 2.496823 1.278636 -1.218187
355.125 2.426906 1.235 -1.191906
355.86328125 2.510919 1.520244 -0.990675
356.60546875 2.557826 1.694598 -0.863228
357.34765625 2.658687 1.833687 -0.825
358.01171875 2.536205 1.896635 -0.63957
358.77734375 2.347547 1.949175 -0.398372
359.71875 2.412651 1.81596 -0.596691
360.5 2.483606 1.68 -0.803606
361.296875 2.612228 1.649013 -0.963215
362.05078125 2.5653319999999997 1.612496 -0.952836
362.84765625 2.583936 1.558936 -1.025
363.765625 2.540057 1.625527 -0.91453
364.52734375 2.585042 1.767159 -0.817883
365.44921875 2.592516 2.028041 -0.564475
366.2734375 2.559923 2.017496 -0.542427
366.9609375 2.555921 1.965 -0.590921
367.59765625 2.46313 1.927794 -0.535336
368.4140625 2.354514 1.829919 -0.524595
369.43359375 2.369297 1.739297 -0.63
370.06640625 2.40982 1.68483 -0.72499
370.96875 2.448566 1.618482 -0.830084
371.72265625 2.394119 1.744119 -0.65
372.4296875 2.272747 1.739456 -0.533291
373.07421875 2.405908 1.690173 -0.715735
373.66015625 2.31847 1.357689 -0.960781
374.85546875 2.475905 1.639916 -0.835989
375.47265625 2.35041 1.603866 -0.746544
376.23046875 2.418079 1.609931 -0.808148
377.0859375 2.51147 1.559801 -0.951669
377.66015625 2.489458 1.590381 -0.899077
378.42578125 2.443466 1.497336 -0.94613
379.17578125 2.529682 1.565623 -0.964059
379.8203125 2.498796 1.689851 -0.808945
380.55859375 2.452694 1.758934 -0.69376
381.3984375 2.463317 1.718303 -0.745014
382.24609375 2.256676 1.763949 -0.492727
382.875 2.1229709999999997 1.64 -0.482971
383.6484375 2.204179 1.712104 -0.492075
384.375 2.106281 1.64 -0.466281
385.20703125 2.255 1.69 -0.565
385.9375 2.380877 1.687672 -0.693205
386.6328125 2.498857 1.676103 -0.822754
387.40625 2.487105 1.687105 -0.8
388.19140625 2.569466 1.669466 -0.9
389.03125 2.604568 1.580049 -1.024519
389.8359375 2.603716 1.599542 -1.004174
390.76171875 2.378096 1.740847 -0.637249
391.32421875 2.370558 1.739118 -0.63144
392.16796875 2.48588 1.714858 -0.771022
393.03125 2.529649 1.765363 -0.764286
393.7421875 2.433986 1.774089 -0.659897
394.72265625 2.497423 1.592161 -0.905262
395.375 2.576361 1.615 -0.961361
396.109375 2.611599 1.634238 -0.977361
396.765625 2.6049219999999997 1.63 -0.974922
397.734375 2.6213670000000002 1.726548 -0.894819
398.44140625 2.527379 1.677379 -0.85
399.0390625 2.16556 1.76056 -0.405
399.8515625 1.819804 1.748187 -0.071617
400.6171875 1.969517 1.624561 -0.344956
401.1796875 2.030881 1.338514 -0.692367
402.0078125 2.220647 1.391267 -0.82938
402.6328125 2.334753 1.296611 -1.038142
403.34375 2.380455 1.305455 -1.075
404.0078125 2.5808910000000003 1.394139 -1.186752
404.67578125 2.570768 1.454268 -1.1165
405.35546875 2.571656 1.394989 -1.176667
406.34765625 2.51654 1.47154 -1.045
407.2109375 2.4814420000000004 1.589514 -0.891928
407.890625 2.4330860000000003 1.655 -0.778086
408.5390625 2.471352 1.631626 -0.839726
409.21484375 2.44508 1.660411 -0.784669
409.96484375 2.2907859999999998 1.600202 -0.690584
410.546875 2.547502 1.55 -0.997502
411.30078125 2.212575 1.487323 -0.725252
412.07421875 2.454878 1.55499 -0.899888
413.35546875 2.1832070000000003 1.399882 -0.783325
414.09375 2.110101 1.322852 -0.787249
415.01171875 2.45499 1.597361 -0.857629
415.609375 2.452266 1.624607 -0.827659
416.3125 2.4118630000000003 1.657315 -0.754548
417.1796875 2.2907140000000004 1.565743 -0.724971
417.98046875 2.4259570000000004 1.664967 -0.76099
418.6796875 2.581824 1.812968 -0.768856
419.36328125 2.5053650000000003 1.734142 -0.771223
420.296875 2.459349 1.704349 -0.755
421.046875 2.350719 1.604704 -0.746015
421.68359375 2.5015330000000002 1.659269 -0.842264
422.390625 2.2514250000000002 1.46673 -0.784695
423.015625 2.370571 1.589607 -0.780964
423.76171875 2.451297 1.708642 -0.742655
424.38671875 2.645579 1.865 -0.780579
425.14453125 2.4245959999999998 1.819967 -0.604629
425.7421875 2.5107999999999997 1.846237 -0.664563
426.6015625 2.558728 1.838728 -0.72
427.3984375 2.396751 1.833986 -0.562765
428.03515625 2.484 1.79281 -0.69119
428.88671875 2.513958 1.689739 -0.824219
429.63671875 2.5420809999999996 1.481291 -1.06079
430.26953125 2.53463 1.489907 -1.044723
430.8359375 2.5153090000000002 1.429525 -1.085784
431.65625 2.524807 1.640496 -0.884311
432.37890625 2.573569 1.655032 -0.918537
433.01953125 2.412604 1.694871 -0.717733
433.78125 2.396389 1.791389 -0.605
434.54296875 2.437213 1.878348 -0.558865
435.31640625 2.528727 1.934361 -0.594366
436.12109375 2.314398 1.966803 -0.347595
436.9140625 2.319613 1.959887 -0.359726
437.78515625 2.336773 1.726773 -0.61
438.6171875 2.4047989999999997 1.583624 -0.821175
439.41796875 2.430701 1.606065 -0.824636
440.2421875 2.377428 1.539577 -0.837851
441.09375 2.509706 1.627598 -0.882108
441.7578125 2.4268460000000003 1.619139 -0.807707
442.62109375 2.330888 1.786 -0.544888
443.4453125 2.278424 1.66 -0.618424
444.296875 2.13465 1.639583 -0.495067
445.08203125 2.203362 1.5668 -0.636562
445.89453125 2.28412 1.484981 -0.799139
446.5859375 2.294342 1.404953 -0.889389
447.25390625 2.347719 1.449695 -0.898024
448.0234375 2.4718299999999997 1.558327 -0.913503
448.890625 2.389609 1.609609 -0.78
449.5859375 2.456908 1.564979 -0.891929
450.4296875 2.4791540000000003 1.63488 -0.844274
451.2421875 1.99899 1.804011 -0.194979
452.05078125 1.8489389999999999 1.759034 -0.089905
452.94140625 1.9209699999999998 1.551567 -0.369403
453.67578125 2.02678 1.458561 -0.568219
454.53125 2.156828 1.339044 -0.817784
455.81640625 2.4174949999999997 1.244452 -1.173043
456.4921875 2.470268 1.3447 -1.125568
457.609375 2.442362 1.412514 -1.029848
458.51171875 2.491126 1.46 -1.031126
459.7734375 2.504851 1.574086 -0.930765
460.57421875 2.209464 1.489376 -0.720088
461.47265625 2.365 1.79 -0.575
462.15234375 2.370856 1.783396 -0.58746
462.921875 2.056638 1.877989 -0.178649
463.79296875 2.040963 1.728494 -0.312469
464.57421875 2.178816 1.519553 -0.659263
465.4453125 2.315953 1.391104 -0.924849
466.2421875 2.440289 1.22 -1.220289
467.08984375 2.4609940000000003 1.102924 -1.35807
467.9140625 2.354194 1.349828 -1.004366
469.046875 2.314326 1.474326 -0.84
469.65234375 2.435866 1.44 -0.995866
470.33203125 2.5642750000000003 1.468947 -1.095328
471.07421875 2.599396 1.567564 -1.031832
471.875 2.674912 1.605 -1.069912
472.68359375 2.709116 1.57855 -1.130566
473.46875 2.8012569999999997 1.724656 -1.076601
474.27734375 2.764237 1.765148 -0.999089
475.10546875 2.709572 1.779966 -0.929606
475.90234375 2.694401 1.92439 -0.770011
476.6171875 2.437523 2.167529 -0.269994
477.5234375 1.9865780000000002 2.175936 0.189358
478.37109375 2.128968 1.86908 -0.259888
479.07421875 2.175233 1.73379 -0.441443
480.15625 1.799409 1.609409 -0.19
481.01953125 2.058009 1.300283 -0.757726
481.703125 2.234554 1.039578 -1.194976
482.328125 2.403899 0.974075 -1.429824
483.31640625 2.5740100000000004 1.149053 -1.424957
484.046875 2.557962 1.309603 -1.248359
484.9453125 2.4565669999999997 1.628396 -0.828171
485.5859375 2.243659 1.73483 -0.508829
486.27734375 2.281659 1.723732 -0.557927
487.171875 2.591817 1.667813 -0.924004
487.97265625 2.726749 1.672467 -1.054282
488.80078125 2.694456 1.765662 -0.928794
489.6171875 2.742703 1.756768 -0.985935
490.3359375 2.699608 1.769807 -0.929801
491.10546875 2.668857 1.744995 -0.923862
492.01171875 2.695233 1.650276 -1.044957
492.59375 2.513853 1.378853 -1.135
493.55859375 2.729822 1.674256 -1.055566
494.390625 2.751328 1.82135 -0.929978
494.99609375 2.506545 1.630368 -0.876177
495.765625 2.594081 1.892435 -0.701646
496.66796875 2.53936 2.104323 -0.435037
497.515625 2.637348 2.111328 -0.52602
498.3359375 2.545501 1.95902 -0.586481
499.06640625 2.27842 1.93285 -0.34557
499.9453125 2.159127 1.772306 -0.386821
500.6640625 2.3361609999999997 1.814611 -0.52155
501.48828125 2.455043 1.8 -0.655043
502.32421875 2.253068 1.743068 -0.51
503.234375 1.921595 1.542955 -0.37864
503.98828125 2.170349 1.580349 -0.59
504.8203125 2.346867 1.515501 -0.831366
505.6015625 2.3077259999999997 1.412167 -0.895559
506.4375 2.359509 1.350134 -1.009375
507.078125 2.349701 1.304712 -1.044989
507.86328125 2.2227509999999997 1.308144 -0.914607
508.8984375 2.329067 1.275903 -1.053164
510.55078125 2.4678829999999996 1.204211 -1.263672
511.3671875 2.3601330000000003 1.280162 -1.079971
512.19140625 2.442739 1.464952 -0.977787
512.98828125 2.4527859999999997 1.579219 -0.873567
513.73046875 2.458041 1.699916 -0.758125
514.49609375 2.517658 1.721803 -0.795855
515.265625 2.357679 1.67 -0.687679
516.10546875 2.346251 1.584632 -0.761619
517.12890625 2.4499999999999997 1.63 -0.82
518.08203125 2.458949 1.70907 -0.749879
518.73046875 2.514135 1.820295 -0.69384
519.328125 2.500733 1.839051 -0.661682
520.140625 2.4872509999999997 1.903447 -0.583804
520.92578125 2.50059 1.915788 -0.584802
521.65625 2.6130940000000002 1.88884 -0.724254
522.3828125 2.416907 1.832528 -0.584379
523.0703125 2.377147 1.993817 -0.38333
523.7734375 2.345376 1.898953 -0.446423
524.3359375 2.545856 1.672692 -0.873164
525.046875 2.546754 1.724499 -0.822255
525.63671875 2.535138 1.790712 -0.744426
526.30859375 2.518407 1.713833 -0.804574
527.10546875 2.504951 1.624951 -0.88
527.84375 2.366886 1.603033 -0.763853
528.78515625 2.393806 1.654357 -0.739449
530.05859375 2.504352 1.509396 -0.994956
530.90625 2.4884749999999998 1.549119 -0.939356
532.1171875 2.57476 1.619806 -0.954954
533.18359375 2.586099 1.546625 -1.039474
533.99609375 2.513993 1.557504 -0.956489
534.84375 2.581001 1.666001 -0.915
535.390625 2.550611 1.704607 -0.846004
536.20703125 2.527129 1.764136 -0.762993
537.01171875 2.510096 1.878813 -0.631283
537.74609375 2.448508 1.806188 -0.64232
538.328125 2.4713060000000002 1.593834 -0.877472
539.3046875 2.557543 1.72755 -0.829993
539.85546875 2.4543749999999998 1.784988 -0.669387
540.59765625 2.492924 1.832924 -0.66
541.40234375 2.474254 1.849715 -0.624539
542.19921875 2.542487 1.902857 -0.63963
542.76953125 2.529469 1.760293 -0.769176
543.78515625 2.505364 1.970364 -0.535
544.625 2.527271 1.895 -0.632271
545.1875 2.412893 1.731667 -0.681226
546.140625 2.419271 1.888317 -0.530954
546.98828125 1.9721110000000002 1.983084 0.010973
547.85546875 1.8891099999999998 1.929981 0.040871
548.7109375 1.98913 1.754254 -0.234876
549.515625 2.116222 1.481447 -0.634775
550.34765625 2.219952 1.314119 -0.905833
550.95703125 2.307157 1.263519 -1.043638
551.73828125 2.4525230000000002 1.296569 -1.155954
552.52734375 2.412621 1.368551 -1.04407
553.23828125 2.5098640000000003 1.399434 -1.11043
553.890625 2.456737 1.368207 -1.08853
554.84375 2.6178999999999997 1.579661 -1.038239
555.8046875 2.569595 1.674785 -0.89481
556.53125 2.586342 1.704716 -0.881626
557.32421875 2.635977 1.797565 -0.838412
558.125 2.629562 1.83 -0.799562
558.71875 2.666762 1.835929 -0.830833
559.38671875 2.693499 1.828654 -0.864845
560.296875 2.699298 1.881126 -0.818172
561.25390625 2.664151 1.874151 -0.79
562.15234375 2.68643 1.891385 -0.795045
562.9765625 2.761996 1.907899 -0.854097
563.890625 2.3889509999999996 2.030988 -0.357963
564.72265625 1.869704 2.104292 0.234588
565.515625 1.927982 1.855513 -0.072469
566.3984375 2.037302 1.451665 -0.585637
567.1953125 2.195983 1.21373 -0.982253
567.99609375 2.321696 1.067931 -1.253765
568.87109375 2.440195 1.105241 -1.334954
569.66015625 2.1966419999999998 1.426095 -0.770547
570.4375 1.925509 1.45 -0.475509
571.0625 2.013926 1.350833 -0.663093
571.69921875 2.195457 1.239549 -0.955908
572.5 2.385803 1.235 -1.150803
573.4140625 2.54977 1.309868 -1.239902
574.04296875 2.611986 1.339404 -1.272582
574.81640625 2.520714 1.534896 -0.985818
575.52734375 2.262708 1.684368 -0.57834
576.171875 2.1140939999999997 1.539707 -0.574387
576.984375 2.320958 1.326168 -0.99479
577.82421875 2.478611 1.223611 -1.255
578.609375 2.604705 1.283593 -1.321112
579.3359375 2.754095 1.502519 -1.251576
579.91796875 2.786203 1.738572 -1.047631
580.6171875 2.7642290000000003 1.964361 -0.799868
581.33984375 2.4355789999999997 2.106026 -0.329553
582.12109375 2.519437 2.123148 -0.396289
582.88671875 2.622021 1.963813 -0.658208
583.6640625 2.703201 1.939529 -0.763672
584.4453125 2.712949 1.901131 -0.811818
585.05859375 2.748465 1.938727 -0.809738
586.0234375 2.784462 1.930286 -0.854176
586.80078125 2.8134069999999998 1.958435 -0.854972
587.578125 2.758998 1.889099 -0.869899
588.3203125 2.768138 1.891238 -0.8769
589.16796875 2.725707 1.945613 -0.780094
589.94140625 2.618963 1.894154 -0.724809
590.58984375 2.548992 1.821212 -0.72778
591.51953125 2.734808 1.849982 -0.884826
592.34375 2.703542 1.874562 -0.82898
593.140625 2.626798 1.916798 -0.71
593.84375 2.5568750000000002 1.811012 -0.745863
594.5625 2.6115880000000002 1.637273 -0.974315
595.41015625 2.654932 1.62724 -1.027692
596.34765625 2.559707 1.724707 -0.835
597.1015625 2.5767700000000002 1.92677 -0.65
597.91015625 2.183525 2.083624 -0.099901
598.7265625 2.165278 2.047573 -0.117705
599.453125 2.276196 1.844907 -0.431289
600.04296875 2.3211910000000002 1.671804 -0.649387
600.703125 2.014307 1.744789 -0.269518
601.453125 1.638555 1.80418 0.165625
602.234375 1.742734 1.647949 -0.094785
602.89453125 1.9541469999999999 1.469962 -0.484185
603.51171875 2.081537 1.338976 -0.742561
604.23046875 2.2393549999999998 1.265 -0.974355
604.99609375 2.421767 1.258135 -1.163632
605.6640625 2.576633 1.24 -1.336633
606.81640625 2.5777039999999998 1.399389 -1.178315
607.6875 2.253893 1.682083 -0.57181
608.68359375 2.0822499999999997 1.689817 -0.392433
609.69140625 2.390583 1.5191 -0.871483
610.234375 2.416513 1.244121 -1.172392
611.24609375 2.642036 1.272182 -1.369854
611.8046875 2.694004 1.357695 -1.336309
612.5546875 2.7037649999999998 1.480407 -1.223358
613.375 2.840498 1.78 -1.060498
614.0546875 2.7354 1.893519 -0.841881
614.65625 2.551047 1.900718 -0.650329
615.36328125 2.531972 2.087753 -0.444219
616.12890625 2.548352 2.005947 -0.542405
616.83984375 2.733504 2.026984 -0.70652
617.6171875 2.606992 2.032775 -0.574217
618.3046875 2.585175 2.014962 -0.570213
619.02734375 2.630703 2.018598 -0.612105
619.65625 2.594519 1.934987 -0.659532
620.45703125 2.6818429999999998 1.876998 -0.804845
621.01171875 2.430469 1.575469 -0.855
621.8203125 2.462834 1.952834 -0.51
622.69921875 2.550463 1.783022 -0.767441
623.36328125 2.526418 1.52617 -1.000248
624.19140625 2.413234 1.854292 -0.558942
624.94140625 2.45824 1.815 -0.64324
625.76171875 2.505273 1.695273 -0.81
626.33984375 2.602215 1.671165 -0.93105
627.16015625 2.634483 1.6922 -0.942283
627.9609375 2.5937 1.641526 -0.952174
628.578125 2.6914 1.698635 -0.992765
629.3984375 2.606665 1.721665 -0.885
630.04296875 2.696796 1.831926 -0.86487
630.7734375 2.671988 1.791988 -0.88
631.59375 2.619785 1.68 -0.939785
632.37890625 2.616419 1.649098 -0.967321
633.23828125 2.56431 1.73854 -0.82577
633.9765625 2.607258 1.902258 -0.705
634.58984375 2.445321 2.016947 -0.428374
635.35546875 2.423246 2.029994 -0.393252
636.09375 2.4725330000000003 2.062727 -0.409806
636.85546875 2.458335 1.989898 -0.468437
637.42578125 2.549886 1.78 -0.769886
638.1640625 2.439839 1.744839 -0.695
638.89453125 2.328971 1.699904 -0.629067
639.55859375 2.394619 1.764641 -0.629978
640.33203125 2.308506 1.778506 -0.53
640.90234375 1.920089 2.042945 0.122856
641.8671875 1.389754 2.003472 0.613718
642.45703125 1.48309 1.803258 0.320168
643.44921875 1.7841170000000002 1.38915 -0.394967
644.45703125 2.071362 1.199862 -0.8715
645.06640625 1.951914 1.194895 -0.757019
645.734375 2.0312 1.176447 -0.854753
646.50390625 2.2370539999999997 1.139633 -1.097421
647.32421875 2.403926 1.277532 -1.126394
648.30859375 2.399428 1.284473 -1.114955
649.36328125 2.468829 1.343829 -1.125
650.12890625 2.554952 1.474952 -1.08
650.734375 2.574421 1.585671 -0.98875
651.56640625 2.503905 1.618905 -0.885
652.5546875 2.294502 1.70948 -0.585022
653.16015625 1.9494500000000001 1.979554 0.030104
653.953125 1.8496439999999998 1.899789 0.050145
655.015625 2.17854 1.46854 -0.71
656.04296875 2.4330369999999997 1.369672 -1.063365
656.8125 2.2815469999999998 1.437333 -0.844214
657.65625 2.462986 1.433871 -1.029115
658.390625 2.4590810000000003 1.326491 -1.13259
659.03125 2.585972 1.392126 -1.193846
659.71875 2.631753 1.494474 -1.137279
660.453125 2.698113 1.603157 -1.094956
661.0859375 2.686707 1.724779 -0.961928
661.80078125 2.698222 1.698656 -0.999566
662.69921875 2.679076 1.899511 -0.779565
663.48046875 2.18186 2.010285 -0.171575
664.24609375 2.186072 1.836072 -0.35
665.25390625 2.002985 1.70872 -0.294265
666.015625 1.890568 1.562531 -0.328037
666.86328125 2.062222 1.376837 -0.685385
667.75390625 2.2846260000000003 1.226188 -1.058438
668.625 2.51751 1.195 -1.32251
669.390625 2.631537 1.177405 -1.454132
670.265625 2.754144 1.2757 -1.478444
670.98046875 2.409336 1.434981 -0.974355
671.765625 1.8323909999999999 1.517884 -0.314507
672.59375 1.907391 1.317391 -0.59
673.48046875 2.079822 1.189906 -0.889916
674.09375 2.110598 1.36745 -0.743148
674.86328125 2.255622 1.426569 -0.829053
675.64453125 2.515066 1.320291 -1.194775
676.390625 2.580805 1.403642 -1.177163
677.31640625 2.641633 1.611633 -1.03
678.09375 2.7394160000000003 1.730625 -1.008791
678.9296875 2.755824 1.931937 -0.823887
679.6328125 2.764608 2.119608 -0.645
680.33984375 2.5586510000000002 2.236507 -0.322144
681.01953125 2.614519 2.219916 -0.394603
681.953125 2.6420920000000003 2.017177 -0.624915
682.8359375 2.67458 1.90958 -0.765
683.80859375 2.744615 1.754622 -0.989993
684.5546875 2.648642 1.681019 -0.967623
685.4296875 2.592629 1.75 -0.842629
686.53125 2.573709 1.859661 -0.714048
687.23046875 2.532808 1.854916 -0.677892
687.83984375 2.653609 1.94572 -0.707889
688.70703125 2.213197 2.250022 0.036825
689.46875 2.032711 2.163409 0.130698
690.04296875 2.069681 1.895 -0.174681
690.953125 2.323014 1.583407 -0.739607
691.7578125 2.383593 1.497132 -0.886461
692.71875 2.43501 1.423409 -1.011601
693.421875 2.448672 1.286112 -1.16256
694.18359375 2.568931 1.30896 -1.259971
695.12109375 2.599184 1.398873 -1.200311
696.58203125 2.532286 1.412721 -1.119565
697.37890625 2.6471210000000003 1.604298 -1.042823
698.1328125 2.567077 1.71437 -0.852707
699.015625 2.503937 1.846122 -0.657815
699.7109375 2.412899 1.854871 -0.558028
700.35546875 2.218123 2.05 -0.168123
701.21484375 1.6588840000000002 2.029323 0.370439
701.9765625 1.775248 1.586007 -0.189241
702.59765625 1.9704929999999998 1.286371 -0.684122
703.12890625 2.3227320000000002 1.11828 -1.204452
704.1953125 2.342555 1.227555 -1.115
704.7890625 2.424754 1.374801 -1.049953
705.78515625 2.474055 1.64947 -0.824585
706.3671875 2.133722 1.798781 -0.334941
707.00390625 2.0135300000000003 1.844343 -0.169187
707.71875 2.00202 1.81202 -0.19
708.453125 2.14436 1.699505 -0.444855
709.0859375 2.363811 1.569634 -0.794177
709.88671875 2.656269 1.461837 -1.194432
710.59765625 2.747669 1.347669 -1.4
711.41796875 2.816903 1.367861 -1.449042
712.19921875 2.803492 1.545 -1.258492
712.88671875 2.8327720000000003 1.658157 -1.174615
713.54296875 2.759951 1.670219 -1.089732
714.79296875 2.822197 1.833534 -0.988663
715.57421875 2.812844 1.955977 -0.856867
716.1953125 2.877727 2.073411 -0.804316
717.02734375 2.779571 2.077432 -0.702139
717.78125 2.768617 2.15 -0.618617
718.55859375 2.6558859999999997 1.98292 -0.672966
719.20703125 2.704952 1.819952 -0.885
719.9921875 2.825538 1.780538 -1.045
720.56640625 2.611293 1.853793 -0.7575
721.4765625 2.4189570000000002 2.030317 -0.38864
722.15625 2.440409 2.046429 -0.39398
722.95703125 2.480765 1.914265 -0.5665
723.80859375 2.435116 1.799074 -0.636042
724.41796875 2.4854979999999998 1.802543 -0.682955
725.26953125 2.338525 1.759994 -0.578531
725.90234375 2.248919 1.78752 -0.461399
726.84375 2.3797829999999998 1.764783 -0.615
727.75390625 2.41682 1.705987 -0.710833
728.62890625 2.644235 1.734235 -0.91
729.36328125 2.544317 1.721237 -0.82308
730.33984375 2.370891 1.676238 -0.694653
731.22265625 2.464003 1.434003 -1.03
731.80078125 2.522908 1.363774 -1.159134
732.7421875 2.196354 1.722799 -0.473555
733.359375 1.72253 1.892231 0.169701
734.2265625 1.901483 1.687643 -0.21384
734.80078125 2.032074 1.505765 -0.526309
735.67578125 2.315103 1.365374 -0.949729
736.55078125 2.51002 1.227476 -1.282544
737.3984375 2.607174 1.244809 -1.362365
737.95703125 2.603688 1.279853 -1.323835
738.82421875 2.6626440000000002 1.485662 -1.176982
739.47265625 2.588127 1.628251 -0.959876
740.40234375 2.652109 1.921992 -0.730117
741.70703125 1.8803899999999998 2.241649 0.361259
742.33203125 1.9302300000000001 2.073824 0.143594
743.1015625 2.199301 1.747369 -0.451932
743.7578125 2.262245 1.732984 -0.529261
744.515625 1.6652339999999999 1.755234 0.09
745.09375 1.607852 1.462852 -0.145
745.6953125 1.7168109999999999 1.100728 -0.616083
746.6328125 2.140421 0.907775 -1.232646
747.44921875 2.43881 0.995176 -1.443634
748.30859375 2.61842 1.094558 -1.523862
749.08984375 2.496359 1.33712 -1.159239
749.72265625 2.342437 1.63171 -0.710727
750.43359375 2.448991 1.734339 -0.714652
751.3046875 2.751272 1.616315 -1.134957
752.15234375 2.709871 1.52957 -1.180301
752.70703125 2.766712 1.641742 -1.12497
753.67578125 2.538809 1.926387 -0.612422
754.41015625 2.405541 1.910541 -0.495
755.07421875 2.579397 1.932042 -0.647355
755.8828125 2.093499 2.0798 -0.013699
756.48828125 1.941409 2.044742 0.103333
757.3359375 2.232828 1.633942 -0.598886
758.16796875 2.442208 1.329793 -1.112415
758.92578125 2.703275 1.395 -1.308275
759.6640625 2.7974680000000003 1.539412 -1.258056
760.33984375 2.829786 1.587926 -1.24186
761.0 2.745 1.625 -1.12
761.92578125 2.797211 1.773093 -1.024118
762.84765625 2.899238 1.784238 -1.115
763.56640625 2.852126 1.779782 -1.072344
764.4140625 2.786878 1.787554 -0.999324
765.3125 2.681762 1.988684 -0.693078
766.2265625 2.491725 2.061725 -0.43
766.96484375 2.5272769999999998 2.138274 -0.389003
767.640625 2.518434 2.128434 -0.39
768.640625 2.596407 2.065 -0.531407
769.390625 2.261286 2.247531 -0.013755
770.32421875 2.190728 2.020733 -0.169995
770.87109375 2.361349 1.740239 -0.62111
771.8203125 2.591704 1.294759 -1.296945
772.390625 2.603969 1.292547 -1.311422
773.1640625 2.5793749999999998 1.369864 -1.209511
773.89453125 2.673626 1.544883 -1.128743
774.4296875 2.615938 1.652617 -0.963321
775.12109375 2.580716 1.827883 -0.752833
775.73828125 2.047953 2.029105 -0.018848
776.60546875 2.014972 2.059972 0.045
777.3515625 2.124914 1.970696 -0.154218
778.2734375 2.2874980000000003 1.903264 -0.384234
779.10546875 1.945338 2.049937 0.104599
780.19921875 2.276293 1.597272 -0.679021
780.984375 2.686388 1.439299 -1.247089
781.7109375 2.734087 1.464617 -1.26947
782.41796875 2.731095 1.711792 -1.019303
783.48046875 2.659574 1.819573 -0.840001
784.2734375 2.800477 1.800936 -0.999541
785.15234375 2.767232 1.774869 -0.992363
785.9296875 2.815105 1.752092 -1.063013
786.83203125 2.863368 1.763534 -1.099834
787.78125 2.646951 2.168003 -0.478948
788.5078125 2.463682 2.228318 -0.235364
789.05859375 2.4851780000000003 2.154634 -0.330544
789.94921875 2.6667359999999998 2.018611 -0.648125
790.5234375 2.733803 2.026482 -0.707321
791.3984375 2.850952 1.974449 -0.876503
792.20703125 2.574968 2.009776 -0.565192
792.8203125 2.5234360000000002 2.066141 -0.457295
793.375 2.5895200000000003 1.995 -0.59452
794.11328125 2.697458 1.865212 -0.832246
794.86328125 2.83663 1.81189 -1.02474
795.6640625 2.6944470000000003 1.819447 -0.875
796.26953125 2.699296 1.879952 -0.819344
797.06640625 2.699618 1.847379 -0.852239
797.6640625 2.674839 1.849839 -0.825
798.953125 2.612434 1.968187 -0.644247
799.84375 2.664679 1.991609 -0.67307
800.65234375 2.545158 1.927394 -0.617764
801.3203125 2.3520320000000003 2.198856 -0.153176
802.1328125 2.118547 2.223875 0.105328
803.00390625 1.6657800000000003 2.233118 0.567338
803.76171875 1.352357 2.038188 0.685831
804.67578125 1.7269619999999999 1.457326 -0.269636
805.48046875 2.046902 0.97 -1.076902
806.26953125 2.289532 0.759929 -1.529603
807.0 2.4995789999999998 0.685 -1.814579
807.63671875 2.504502 0.771178 -1.733324
808.3984375 2.695719 1.013358 -1.682361
809.23828125 2.7044 1.2394 -1.465
809.87890625 2.5311019999999997 1.456178 -1.074924
810.73828125 2.723394 1.821597 -0.901797
811.59375 2.293954 2.159814 -0.13414
812.53125 2.036288 2.294635 0.258347
813.44921875 2.329804 1.882228 -0.447576
814.4453125 2.563574 1.70447 -0.859104
815.171875 2.6272789999999997 1.699099 -0.92818
815.828125 2.722835 1.76294 -0.959895
816.51171875 2.8660170000000003 1.742983 -1.123034
817.296875 2.817091 1.754916 -1.062175
818.01953125 2.794275 1.745564 -1.048711
818.90234375 2.904006 1.808207 -1.095799
819.81640625 2.798047 1.923061 -0.874986
820.41796875 2.755741 1.997636 -0.758105
821.3203125 2.640179 2.13 -0.510179
822.0625 2.7038770000000003 2.0575 -0.646377
822.9453125 2.785266 2.006122 -0.779144
823.671875 2.04014 2.274701 0.234561
824.35546875 1.7781719999999999 2.124627 0.346455
825.1953125 1.964654 1.769232 -0.195422
825.9921875 2.2667219999999997 1.60821 -0.658512
826.65234375 2.335029 1.464862 -0.870167
827.28515625 2.361624 1.582874 -0.77875
828.015625 1.819221 1.799406 -0.019815
829.453125 2.299913 1.374913 -0.925
830.0546875 2.418953 1.189926 -1.229027
831.1015625 2.748424 1.095759 -1.652665
831.6484375 2.699992 1.045 -1.654992
832.6796875 2.803794 1.099105 -1.704689
833.55859375 2.9098800000000002 1.154901 -1.754979
836.12109375 2.760447 1.853166 -0.907281
837.04296875 2.574543 2.174914 -0.399629
837.7265625 1.9093879999999999 2.645311 0.735923
838.72265625 1.842464 2.422658 0.580194
840.26953125 2.422259 1.679974 -0.742285
841.1015625 2.431035 1.425311 -1.005724
842.0703125 2.612799 1.340152 -1.272647
842.859375 2.57824 1.328434 -1.249806
843.7890625 2.591119 1.476119 -1.115
845.5078125 2.6851760000000002 1.981348 -0.703828
846.33984375 2.536752 1.971752 -0.565
847.1953125 2.47899 1.964562 -0.514428
848.01953125 2.482553 1.984994 -0.497559
848.796875 2.505211 2.081116 -0.424095
850.28515625 2.5579870000000002 2.082987 -0.475
851.171875 2.503882 2.098882 -0.405
852.078125 2.553687 1.953705 -0.599982
852.84375 2.5027369999999998 1.762543 -0.740194
853.67578125 2.3562000000000003 1.6162 -0.74
854.3515625 1.9612150000000002 1.638311 -0.322904
855.10546875 1.904946 1.539946 -0.365
855.84375 2.093781 1.483781 -0.61
856.546875 2.188453 1.373694 -0.814759
857.171875 2.317258 1.304367 -1.012891
857.921875 2.41709 1.168989 -1.248101
858.7578125 2.5647640000000003 1.2031 -1.361664
859.3984375 2.62394 1.328998 -1.294942
860.18359375 2.509763 1.488827 -1.020936
861.00390625 2.5756 1.720397 -0.855203
861.86328125 2.591737 1.89843 -0.693307
862.78125 2.628929 2.059281 -0.569648
863.703125 2.404693 2.249693 -0.155
864.5234375 2.407036 2.129138 -0.277898
865.140625 1.9508420000000002 2.256447 0.305605
865.87109375 1.7987649999999997 2.041498 0.242733
866.50390625 1.9269749999999999 1.746676 -0.180299
867.26171875 2.384107 1.379397 -1.00471
868.08984375 2.36945 0.949339 -1.420111
868.640625 2.4262110000000003 0.856211 -1.57
869.328125 2.544581 0.999689 -1.544892
870.08203125 2.651609 1.203623 -1.447986
870.6640625 2.566176 1.279543 -1.286633
871.51953125 2.491896 1.614918 -0.876978
872.65234375 2.598425 2.038425 -0.56
873.25390625 1.951118 2.163118 0.212
873.953125 1.849145 2.094224 0.245079
874.5859375 2.035255 1.839924 -0.195331
875.45703125 2.220013 1.520877 -0.699136
876.0 2.249868 1.37 -0.879868
876.77734375 2.361858 1.37005 -0.991808
877.546875 1.782929 1.618828 -0.164101
878.1640625 1.815102 1.419883 -0.395219
878.859375 2.091196 1.181016 -0.91018
879.54296875 2.325662 1.052528 -1.273134
880.19921875 2.380561 0.971563 -1.408998
881.0859375 2.581462 1.129196 -1.452266
881.6328125 2.52563 1.044468 -1.481162
882.515625 2.350256 0.88135 -1.468906
883.28515625 2.572431 1.412177 -1.160254
884.0625 2.541378 1.459394 -1.081984
884.7890625 2.579174 1.414507 -1.164667
885.4921875 2.641329 1.411035 -1.230294
886.37109375 2.685117 1.540155 -1.144962
887.0625 2.622338 1.596802 -1.025536
887.87890625 2.682019 1.80818 -0.873839
888.69921875 2.6003249999999998 1.968885 -0.63144
889.44921875 2.566269 2.101597 -0.464672
890.16015625 2.6539230000000003 2.196092 -0.457831
890.8046875 2.376901 2.339472 -0.037429
891.52734375 1.924273 2.374393 0.45012
892.38671875 2.099426 2.050738 -0.048688
893.984375 2.4718340000000003 1.38469 -1.087144
894.8984375 2.510389 1.316523 -1.193866
896.46484375 2.251459 1.345299 -0.90616
897.359375 2.305132 1.428882 -0.87625
898.90625 1.8496800000000002 1.911906 0.062226
899.7421875 2.0228 1.722836 -0.299964
901.3046875 2.4071550000000004 1.386937 -1.020218
902.1171875 2.602328 1.320511 -1.281817
903.62890625 2.690098 1.285239 -1.404859
904.44140625 2.55316 1.244566 -1.308594
905.9140625 2.679586 1.699868 -0.979718
906.8125 2.712256 1.914595 -0.797661
907.609375 2.6491420000000003 1.812062 -0.83708
908.3671875 2.687328 1.790511 -0.896817
909.1171875 2.2147859999999997 2.039792 -0.174994
909.8203125 2.029563 2.074703 0.04514
910.6015625 2.142492 1.822576 -0.319916
911.1953125 2.274769 1.696626 -0.578143
912.01953125 2.408664 1.744995 -0.663669
912.671875 2.269091 1.814034 -0.455057
913.546875 1.425576 2.240933 0.815357
914.296875 1.560533 1.923951 0.363418
914.828125 2.0587 1.565 -0.4937
915.62890625 2.184797 1.382665 -0.802132
916.359375 2.303121 1.278387 -1.024734
917.015625 2.467248 1.232949 -1.234299
917.921875 2.136749 1.475 -0.661749
918.80078125 2.117441 1.4 -0.717441
920.35546875 2.5952539999999997 1.185825 -1.409429
921.2265625 2.771472 1.2408 -1.530672
922.74609375 2.53578 1.195724 -1.340056
923.5703125 2.204365 1.249365 -0.955
925.09765625 2.613064 1.748064 -0.865
925.8984375 2.160095 2.200095 0.04
927.453125 2.204111 1.64377 -0.560341
928.24609375 2.514347 1.322033 -1.192314
929.7265625 2.703239 1.238303 -1.464936
930.55859375 2.549899 1.399899 -1.15
932.0625 2.619091 1.634091 -0.985
932.87890625 2.657641 1.715592 -0.942049
934.3984375 2.271604 2.184045 -0.087559
935.23828125 2.250752 2.175 -0.075752
936.72265625 2.4874359999999998 1.777853 -0.709583
937.55859375 2.465954 1.666595 -0.799359
939.03125 2.501948 1.717551 -0.784397
939.83203125 2.4823 1.6008 -0.8815
941.34375 1.474621 1.859621 0.385
942.140625 1.730372 1.3707 -0.359672
942.95703125 2.01295 0.831581 -1.181369
943.69921875 2.107068 0.532124 -1.574944
945.3515625 2.4417489999999997 1.046749 -1.395
946.21875 2.524931 1.393286 -1.131645
947.78125 2.07207 1.97707 -0.095
948.61328125 2.255252 1.725138 -0.530114
950.1015625 2.3271610000000003 1.457921 -0.86924
950.921875 2.411157 1.637742 -0.773415
952.41015625 2.412895 1.967895 -0.445
953.21484375 2.508127 1.984809 -0.523318
954.68359375 2.6598930000000003 1.889893 -0.77
955.515625 2.704979 1.873398 -0.831581
956.99609375 2.648161 1.648199 -0.999962
957.81640625 2.600014 1.629837 -0.970177
959.31640625 2.46957 2.02957 -0.44
960.08984375 2.252028 1.843624 -0.408404
961.1953125 2.4871429999999997 1.852172 -0.634971
962.734375 1.8256109999999999 2.25 0.424389
963.55859375 1.8757599999999999 1.840817 -0.034943
965.0703125 2.045108 1.499617 -0.545491
965.8984375 2.089557 1.37 -0.719557
967.3515625 2.346418 1.206542 -1.139876
968.9140625 2.564551 1.414551 -1.15
969.71484375 2.6436900000000003 1.4914 -1.15229
971.16796875 2.4541250000000003 1.354586 -1.099539
972.00390625 2.469342 1.472623 -0.996719
973.4765625 1.765265 1.965265 0.2
974.28515625 1.744939 1.817791 0.072852
975.78515625 2.433673 1.523673 -0.91
977.30859375 2.145036 1.670824 -0.474212
978.125 2.270813 1.455 -0.815813
979.61328125 2.528238 1.313629 -1.214609
980.4140625 2.73939 1.518444 -1.220946
981.9140625 2.909775 1.744775 -1.165
983.3984375 2.581771 1.999792 -0.581979
984.24609375 2.76206 1.87206 -0.89
985.703125 2.769273 1.789342 -0.979931
986.54296875 2.8043649999999998 1.701884 -1.102481
988.01171875 2.733894 1.819162 -0.914732
988.83203125 2.18514 2.18514 0.0
990.26171875 1.992813 1.949308 -0.043505
991.0703125 1.7047830000000002 1.735 0.030217
992.51171875 2.373385 0.9936 -1.379785
993.34765625 2.673136 0.878136 -1.795
994.828125 2.6989330000000002 1.119718 -1.579215
995.671875 2.645687 1.224398 -1.421289
997.11328125 2.18504 1.853794 -0.331246
997.96484375 2.4263909999999997 1.682874 -0.743517
999.48046875 2.763884 1.564951 -1.198933
1000.94921875 2.741845 1.574557 -1.167288
1002.44921875 2.733912 2.014405 -0.719507
1003.90234375 2.571684 2.049562 -0.522122
1004.7109375 2.498079 1.943079 -0.555
1006.15625 2.751793 1.86593 -0.885863
1006.9765625 2.832852 1.832852 -1.0
1008.4375 2.786123 1.97 -0.816123
1009.9765625 2.758662 2.218662 -0.54
1010.765625 2.877557 2.139849 -0.737708
1012.22265625 2.809866 2.129866 -0.68
1013.74609375 2.786505 2.152185 -0.63432
1014.29296875 1.645794 0.716086 -0.929708
1015.2734375 2.787555 2.158991 -0.628564
1016.78515625 2.6477120000000003 2.214379 -0.433333
1017.56640625 1.8751160000000002 2.449828 0.574712
1019.015625 1.8502 1.575529 -0.274671
1019.8359375 2.0843990000000003 0.974771 -1.109628
1021.28125 2.4420830000000002 0.818309 -1.623774
1022.10546875 2.407343 0.995768 -1.411575
1023.5625 2.5433339999999998 1.528824 -1.01451
1025.0859375 2.576213 1.972056 -0.604157
1026.58203125 2.5152360000000002 2.170675 -0.344561
1028.078125 2.498929 1.963961 -0.534968
1028.62890625 1.483749 0.719093 -0.764656
1029.59765625 2.538959 2.043959 -0.495
1031.09375 1.7050300000000003 2.377905 0.672875
1031.8984375 1.897275 1.957694 0.060419
1033.37890625 2.366156 1.421156 -0.945
1034.8671875 2.493151 1.148151 -1.345
1036.40625 2.5285140000000004 1.299519 -1.228995
1037.19921875 2.588924 1.448081 -1.140843
1038.625 2.71273 1.72 -0.99273
1039.40234375 2.608521 1.72455 -0.883971
1040.2265625 2.597913 1.847354 -0.750559
1041.03515625 2.585653 1.977961 -0.607692
1041.83984375 2.527425 2.012425 -0.515
1042.68359375 2.5243130000000003 2.034415 -0.489898
1043.53515625 2.463061 1.98811 -0.474951
1045.08203125 2.048248 2.103033 0.054785
1046.6328125 2.321527 1.542449 -0.779078
1048.15234375 2.4174290000000003 1.219718 -1.197711
1049.2421875 2.099592 1.334301 -0.765291
1049.93359375 1.9690120000000002 1.354297 -0.614715
1050.47265625 1.708402 1.514402 -0.194
1051.21484375 1.819601 1.391692 -0.427909
1051.73828125 2.036289 1.354023 -0.682266
1052.3359375 2.1216489999999997 1.254322 -0.867327
1053.08203125 1.7785819999999999 1.501852 -0.27673
1053.76953125 1.8736769999999998 1.564946 -0.308731
1054.46875 2.11 1.375 -0.735
1055.26171875 2.39338 1.208674 -1.184706
1055.90625 2.526071 1.161071 -1.365
1056.6796875 2.505388 1.09 -1.415388
1057.3359375 2.669479 1.299591 -1.369888
1058.00390625 2.706002 1.521214 -1.184788
1059.2578125 2.717223 1.807223 -0.91
1060.18359375 2.657722 1.824333 -0.833389
1061.04296875 2.703345 1.739552 -0.963793
1061.91015625 2.688418 1.689713 -0.998705
1062.76171875 2.733278 1.808458 -0.92482
1063.62890625 2.655629 2.015656 -0.639973
1064.48828125 2.46144 2.13854 -0.3229
1065.32421875 2.45955 2.218885 -0.240665
1066.87109375 2.4038049999999997 2.254098 -0.149707
1067.72265625 2.033614 2.373614 0.34
1068.5625 2.085117 2.119449 0.034332
1069.40625 2.267609 1.802786 -0.464823
1070.26953125 2.419454 1.589973 -0.829481
1071.11328125 2.351443 1.647979 -0.703464
1071.9609375 1.7941250000000002 1.739837 -0.054288
1072.8125 2.073466 1.433466 -0.64
1073.66796875 2.485 1.2 -1.285
1074.54296875 2.6958729999999997 1.121065 -1.574808
1076.03125 2.907757 1.318284 -1.589473
1077.59375 2.7261189999999997 1.541317 -1.184802
1079.09765625 2.878918 1.797965 -1.080953
1079.94140625 2.8029919999999997 1.893905 -0.909087
1080.77734375 2.356424 1.905878 -0.450546
1081.640625 2.28718 1.975154 -0.312026
1083.08984375 2.477724 1.78717 -0.690554
1083.97265625 2.674469 1.728264 -0.946205
1084.8203125 2.691538 1.748233 -0.943305
1085.37109375 2.613778 1.78 -0.833778
1086.1171875 2.383498 2.053498 -0.33
1087.15625 1.962906 2.382047 0.419141
1088.71484375 2.252218 2.02675 -0.225468
1090.2265625 2.5212399999999997 1.670977 -0.850263
1091.78125 2.692121 1.682121 -1.01
1093.27734375 2.32546 1.901382 -0.424078
1094.77734375 2.64 1.57 -1.07
1095.60546875 2.617489 1.589311 -1.028178
1096.40625 2.7170180000000004 1.589215 -1.127803
1097.95703125 2.774267 1.582861 -1.191406
1098.7734375 2.862991 1.653073 -1.209918
1100.20703125 2.8376799999999998 1.967739 -0.869941
1101.046875 2.6908060000000003 2.065706 -0.6251
1102.50390625 2.678281 1.92 -0.758281
1103.33203125 2.630049 1.987624 -0.642425
1104.19140625 2.467459 2.087103 -0.380356
1105.66796875 2.520054 2.003626 -0.516428
1106.50390625 2.5242940000000003 1.962723 -0.561571
1107.97265625 2.334318 2.069318 -0.265
1108.82421875 1.4982449999999998 2.164253 0.666008
1109.65625 1.719 1.774 0.055
1110.46875 2.153656 1.349645 -0.804011
1111.95703125 2.528566 1.171697 -1.356869
1113.46484375 2.7061659999999996 1.397762 -1.308404
1114.9765625 2.755414 1.726449 -1.028965
1116.35546875 1.804979 2.054979 0.25
1117.1875 2.059258 1.485227 -0.574031
1118.12109375 2.430444 1.145592 -1.284852
1118.84765625 2.638904 1.108904 -1.53
1119.48046875 2.793309 1.289858 -1.503451
1120.109375 2.891836 1.442974 -1.448862
1120.80078125 2.840499 1.608893 -1.231606
1121.46875 2.9276590000000002 1.888462 -1.039197
1122.04296875 2.897228 1.986884 -0.910344
1122.86328125 2.539391 2.093582 -0.445809
1123.61328125 2.378344 2.114505 -0.263839
1124.6015625 2.549299 1.91 -0.639299
1125.58984375 2.791081 1.864344 -0.926737
1126.41796875 2.4088100000000003 2.113818 -0.294992
1127.07421875 2.1162579999999998 2.117256 9.98E-4
1127.75 2.295969 1.885 -0.410969
1128.32421875 2.554103 1.828982 -0.725121
1129.0546875 2.282853 1.734559 -0.548294
1129.640625 2.414774 1.619564 -0.79521
1130.3203125 2.708851 1.554929 -1.153922
1131.19921875 2.828068 1.633068 -1.195
1131.9140625 2.8582929999999998 1.624682 -1.233611
1132.54296875 2.88178 1.6536 -1.22818
1133.359375 2.997561 1.829557 -1.168004
1133.921875 2.925093 1.918401 -1.006692
1134.734375 2.938683 1.966786 -0.971897
1135.41796875 2.863947 1.972026 -0.891921
1136.12109375 2.861347 2.125168 -0.736179
1136.96875 2.772497 2.089336 -0.683161
1137.76171875 2.852205 2.05707 -0.795135
1138.578125 2.61492 1.905062 -0.709858
1139.2578125 2.040299 2.06 0.019701
1139.91796875 2.061914 1.876107 -0.185807
1140.78515625 2.324332 1.664332 -0.66
1141.75390625 2.435711 1.653148 -0.782563
1142.6484375 2.4886 1.729598 -0.759002
1143.50390625 2.718321 1.720428 -0.997893
1144.06640625 2.800725 1.825 -0.975725
1145.0390625 2.714528 1.794803 -0.919725
1145.61328125 2.804923 1.864454 -0.940469
1146.5234375 2.848846 1.728358 -1.120488
1148.05078125 2.5792770000000003 1.939735 -0.639542
1148.93359375 2.3131909999999998 2.15 -0.163191
1149.76171875 2.334891 2.17 -0.164891
1150.609375 2.419971 2.134343 -0.285628
1151.42578125 2.107444 2.057634 -0.04981
1152.3125 2.232568 1.868681 -0.363887
1153.1953125 2.5305910000000003 1.670728 -0.859863
1154.05859375 2.679225 1.579225 -1.1
1155.0390625 2.744772 1.684926 -1.059846
1155.87109375 2.729617 1.744034 -0.985583
1156.75 2.705 1.71 -0.995
1157.65234375 2.65207 1.739825 -0.912245
1158.52734375 2.07254 1.874649 -0.197891
1159.4140625 2.1441339999999998 1.764695 -0.379439
1161.0078125 2.565754 1.585754 -0.98
1162.5625 2.425019 1.742237 -0.682782
1163.44140625 2.301999 1.864333 -0.437666
1164.30078125 2.3885389999999997 1.67038 -0.718159
1165.13671875 2.4718340000000003 1.516885 -0.954949
1166.00390625 2.619539 1.452377 -1.167162
1166.859375 2.6802099999999998 1.499651 -1.180559
1167.72265625 2.6877750000000002 1.652775 -1.035
1169.3203125 1.983724 1.804365 -0.179359
1170.89453125 2.3993909999999996 1.199666 -1.199725
1172.41796875 2.4502940000000004 1.286852 -1.163442
1173.953125 2.7350719999999997 1.604118 -1.130954
1175.4453125 2.483016 2.0 -0.483016
1176.2890625 2.514726 1.909825 -0.604901
1177.14453125 2.756875 1.899853 -0.857022
1177.95703125 2.628071 1.915859 -0.712212
1179.43359375 2.01412 1.764867 -0.249253
1180.3046875 1.939647 1.114437 -0.82521
1181.1328125 2.085356 0.95663 -1.128726
1181.984375 2.514672 1.248398 -1.266274
1182.8203125 2.515283 1.446887 -1.068396
1183.6796875 2.676356 1.607491 -1.068865
1184.546875 2.736988 1.738544 -0.998444
1186.0703125 2.531916 1.928019 -0.603897
1187.625 2.647647 1.895 -0.752647
1189.14453125 2.468785 1.599948 -0.868837
1190.69140625 2.518778 1.829836 -0.688942
1191.22265625 1.554119 0.704119 -0.85
1192.1953125 2.495961 1.710961 -0.785
1193.71484375 2.466748 1.670381 -0.796367
1194.53125 2.488752 1.771056 -0.717696
1195.33203125 2.469232 1.808846 -0.660386
1196.15234375 1.9926260000000002 2.039861 0.047235
1196.9921875 1.6894820000000002 2.003045 0.313563
1197.8125 1.990144 1.597187 -0.392957
1198.65625 2.301195 1.321768 -0.979427
1199.5234375 2.341572 1.156572 -1.185
1200.41796875 2.4729 1.239701 -1.233199
1201.30859375 2.571719 1.459891 -1.111828
1202.890625 2.0833690000000002 1.853398 -0.229971
1204.4921875 2.5084790000000003 1.598564 -0.909915
1205.38671875 1.947835 1.768025 -0.17981
1206.23828125 2.045387 1.569686 -0.475701
1207.1015625 2.415159 1.340311 -1.074848
1208.5625 2.738469 1.3175 -1.420969
1209.41796875 2.89259 1.29324 -1.59935
1210.26953125 2.749666 1.519944 -1.229722
1211.1328125 2.520493 1.947737 -0.572756
1212.62109375 2.6045030000000002 1.764809 -0.839694
1214.19140625 2.851248 1.82943 -1.021818
1215.69921875 2.942234 2.002234 -0.94
1216.2421875 1.658941 0.684028 -0.974913
1217.2421875 2.8584389999999997 2.03855 -0.819889
1217.796875 2.684802 1.764802 -0.92
1218.7578125 2.9686470000000003 2.020808 -0.947839
1219.28125 2.579539 1.885 -0.694539
1219.92578125 2.785844 2.070289 -0.715555
1220.55859375 2.885868 2.124773 -0.761095
1221.73828125 2.741575 2.327983 -0.413592
1222.55078125 2.611728 2.212913 -0.398815
1223.1953125 2.629894 2.102418 -0.527476
1223.84375 2.653171 1.963852 -0.689319
1224.6171875 2.838736 1.948764 -0.889972
1225.41796875 2.754931 1.925191 -0.82974
1226.18359375 2.546145 1.826606 -0.719539
1226.79296875 2.511392 1.562331 -0.949061
1227.609375 2.4886559999999998 1.505839 -0.982817
1228.48828125 2.61928 1.655816 -0.963464
1229.2890625 2.634393 1.634954 -0.999439
1230.0234375 2.607374 1.687852 -0.919522
1230.65625 2.4016859999999998 1.742109 -0.659577
1231.53125 2.537624 1.849005 -0.688619
1232.40625 2.606938 1.783328 -0.82361
1233.16796875 2.7070540000000003 1.853031 -0.854023
1233.90234375 2.576023 1.874869 -0.701154
1234.6171875 2.717589 1.97304 -0.744549
1235.46875 2.607959 1.974585 -0.633374
1236.30859375 2.564669 1.85469 -0.709979
1237.14453125 2.693917 1.934995 -0.758922
1238.078125 2.599471 1.904572 -0.694899
1238.7265625 2.508994 1.983994 -0.525
1239.4609375 2.461438 2.004902 -0.456536
1240.08984375 2.462098 1.932754 -0.529344
1240.828125 2.4295999999999998 1.749693 -0.679907
1241.54296875 2.487097 1.818304 -0.668793
1242.390625 2.498129 1.890715 -0.607414
1243.10546875 2.509518 1.849931 -0.659587
1244.08203125 2.678372 1.866247 -0.812125
1244.94140625 2.650037 1.937371 -0.712666
1245.57421875 2.5988860000000003 1.983022 -0.615864
1246.33203125 2.700316 2.025445 -0.674871
1247.2109375 2.63435 2.029872 -0.604478
1248.0859375 1.9017939999999998 2.275527 0.373733
1248.984375 1.7509690000000002 2.008408 0.257439
1249.7734375 1.9983619999999997 1.451523 -0.546839
1250.36328125 2.091786 1.188783 -0.903003
1251.203125 2.3846 1.073871 -1.310729
1251.96875 2.533583 1.203583 -1.33
1253.19921875 2.575368 1.289723 -1.285645
1254.16015625 2.5705289999999996 1.255634 -1.314895
1254.92578125 2.722442 1.332675 -1.389767
1255.5859375 2.891654 1.434929 -1.456725
1256.21875 3.025055 1.54345 -1.481605
1256.9453125 3.0149239999999997 1.689962 -1.324962
1257.50390625 2.911 1.711905 -1.199095
1258.52734375 2.891881 1.777484 -1.114397
1259.40625 2.910192 1.913711 -0.996481
1260.14453125 2.436363 2.124681 -0.311682
1261.0859375 2.065143 1.931322 -0.133821
1262.54296875 2.668665 1.529769 -1.138896
1263.33984375 2.908257 1.509987 -1.39827
1263.87109375 2.764169 1.539175 -1.224994
1264.53515625 2.833803 1.529203 -1.3046
1265.2109375 2.670913 1.488326 -1.182587
1265.80859375 2.487797 1.370851 -1.116946
1266.59765625 2.7787170000000003 1.723964 -1.054753
1267.53125 2.978349 2.013398 -0.964951
1268.16015625 2.934701 2.012846 -0.921855
1268.765625 2.652974 2.097974 -0.555
1269.67578125 2.75866 2.088866 -0.669794
1270.45703125 2.8344389999999997 2.09 -0.744439
1271.2109375 2.37956 2.169506 -0.210054
1272.08984375 2.442241 1.949344 -0.492897
1272.75 2.625 1.72 -0.905
1273.515625 2.8106549999999997 1.663447 -1.147208
1274.3828125 2.608807 1.748107 -0.8607
1275.140625 2.159414 1.887793 -0.271621
1275.83203125 2.270111 1.775 -0.495111
1276.63671875 2.690074 1.601076 -1.088998
1277.52734375 2.751299 1.454707 -1.296592
1278.10546875 2.800688 1.374995 -1.425693
1278.921875 3.010422 1.328765 -1.681657
1279.71484375 2.892947 1.489809 -1.403138
1280.359375 2.8889370000000003 1.76 -1.128937
1281.1953125 2.806341 1.860554 -0.945787
1281.98046875 2.848071 1.889982 -0.958089
1282.68359375 2.910395 1.968764 -0.941631
1283.52734375 2.788008 2.119722 -0.668286
1284.36328125 2.522329 2.179122 -0.343207
1284.9921875 2.4627929999999996 2.08321 -0.379583
1285.7421875 2.676098 2.047426 -0.628672
1286.40234375 2.743919 2.052341 -0.691578
1287.28125 2.7839590000000003 2.014635 -0.769324
1287.99609375 2.663169 1.969559 -0.69361
1288.6171875 2.63827 1.96827 -0.67
1289.40234375 2.6349679999999998 1.913951 -0.721017
1290.09375 2.327927 1.972629 -0.355298
1290.98828125 1.910781 1.813229 -0.097552
1291.90625 2.153601 1.499062 -0.654539
1292.91015625 2.4871 1.476267 -1.010833
1293.9765625 2.5955209999999997 1.519688 -1.075833
1294.80859375 2.10375 1.75 -0.35375
1295.53515625 2.021165 1.801165 -0.22
1296.36328125 2.3445739999999997 1.604105 -0.740469
1297.140625 2.352469 1.546515 -0.805954
1297.75 2.396296 1.48 -0.916296
1298.48046875 2.556444 1.384944 -1.1715
1299.3125 2.6566219999999996 1.380761 -1.275861
1300.08984375 2.690321 1.46803 -1.222291
1300.9609375 2.76403 1.619813 -1.144217
1301.5625 2.738493 1.644274 -1.094219
1302.359375 2.7355270000000003 1.674255 -1.061272
1303.1875 2.76501 1.953688 -0.811322
1304.05078125 2.732037 2.098125 -0.633912
1305.125 2.601763 2.03 -0.571763
1306.03125 2.666994 1.954321 -0.712673
1306.80078125 2.7339700000000002 1.991047 -0.742923
1307.6171875 2.678541 2.051643 -0.626898
1308.234375 2.65238 2.045527 -0.606853
1309.2265625 2.5896589999999997 2.019659 -0.57
1310.1875 2.6599310000000003 2.120263 -0.539668
1311.07421875 2.602433 2.019825 -0.582608
1311.828125 2.622152 1.957152 -0.665
1312.73828125 2.490463 1.956208 -0.534255
1313.4375 2.420426 1.927647 -0.492779
1314.1484375 2.474712 1.895854 -0.578858
1314.7890625 2.084745 1.890566 -0.194179
1315.3984375 2.046895 1.869736 -0.177159
1316.265625 2.258052 1.714516 -0.543536
1316.9921875 2.3285340000000003 1.518534 -0.81
1317.59765625 2.274602 1.463396 -0.811206
1318.6171875 2.492079 1.487079 -1.005
1319.375 2.4938450000000003 1.395 -1.098845
1320.01953125 2.492699 1.344973 -1.147726
1320.84765625 2.58406 1.349184 -1.234876
1321.61328125 2.3683560000000003 1.463502 -0.904854
1322.17578125 2.319582 1.555839 -0.763743
1323.046875 2.463781 1.608781 -0.855
1323.84765625 2.607308 1.687308 -0.92
1324.65234375 2.151061 1.873982 -0.277079
1325.25 2.03293 1.76 -0.27293
1326.26953125 2.186967 1.384973 -0.801994
1327.15234375 2.514188 1.474541 -1.039647
1328.046875 2.645798 1.553493 -1.092305
1328.6015625 2.449172 1.358029 -1.091143
1329.375 2.197321 1.885 -0.312321
1330.21484375 2.2070440000000002 1.907723 -0.299321
1331.08203125 2.515532 1.655687 -0.859845
1331.828125 2.467898 1.658062 -0.809836
1332.46484375 1.986688 1.929813 -0.056875
1333.34375 2.0525219999999997 1.752522 -0.3
1336.421875 2.778716 1.458716 -1.32
1337.33203125 2.875531 1.595666 -1.279865
1338.109375 2.868022 1.691977 -1.176045
1338.921875 2.708685 1.824214 -0.884471
1340.421875 2.894824 1.814824 -1.08
1341.21875 2.9553719999999997 1.827124 -1.128248
1342.6953125 2.834343 1.944343 -0.89
1343.51171875 2.4452249999999998 2.145273 -0.299952
1345.03125 2.589681 1.71 -0.879681
1345.84375 2.715407 1.405145 -1.310262
1347.20703125 2.824744 1.559842 -1.264902
1348.34375 2.875632 1.874426 -1.001206
1349.9375 2.548674 2.113693 -0.434981
1350.7734375 2.6420090000000003 2.179209 -0.4628
1352.265625 2.001576 2.376576 0.375
1353.078125 2.1039239999999997 2.008977 -0.094947
1354.609375 2.7468440000000003 1.4257 -1.321144
1355.4140625 2.904092 1.399605 -1.504487
1356.9296875 2.890779 1.778143 -1.112636
1357.75390625 3.015222 1.984952 -1.03027
1359.23828125 2.9418100000000003 2.312314 -0.629496
1360.0546875 2.7610409999999996 2.237535 -0.523506
1361.578125 2.6445659999999998 2.314583 -0.329983
1362.37890625 2.022972 2.326846 0.303874
1363.85546875 2.571765 1.554894 -1.016871
1364.69140625 2.858203 1.512334 -1.345869
1366.17578125 3.012617 1.844089 -1.168528
1366.98828125 3.0033119999999998 2.014045 -0.989267
1368.49609375 2.924574 2.406209 -0.518365
1370.046875 2.772212 2.288558 -0.483654
1370.890625 2.870989 2.178826 -0.692163
1372.31640625 2.935903 2.179085 -0.756818
1373.15234375 2.906551 2.088103 -0.818448
1374.65234375 2.823057 1.879368 -0.943689
1375.45703125 2.867715 1.938526 -0.929189
1376.9375 1.992627 2.183611 0.190984
1377.77734375 2.2559 1.888772 -0.367128
1379.2109375 2.577135 1.61928 -0.957855
1380.74609375 2.333127 1.483127 -0.85
1381.328125 3.464568 1.194821 -2.269747
1382.30859375 2.839532 1.249626 -1.589906
1382.859375 2.184118 0.604365 -1.579753
1383.85546875 2.806944 1.504995 -1.301949
1385.4296875 2.4370789999999998 2.097079 -0.34
1386.96484375 2.71001 2.04291 -0.6671
1388.5234375 2.58884 1.981072 -0.607768
1390.05078125 2.713735 1.73193 -0.981805
1390.60546875 1.530326 0.430517 -1.099809
1391.6015625 2.6237649999999997 1.69 -0.933765
1392.1171875 1.498188 0.148231 -1.349957
1393.125 2.697138 1.685 -1.012138
1393.66015625 2.670035 1.770035 -0.9
1394.5 2.653887 1.86 -0.793887
1395.13671875 2.581994 2.013664 -0.56833
1395.7890625 2.154126 2.250573 0.096447
1396.609375 1.8351349999999997 2.259171 0.424036
1397.1875 1.931513 1.986667 0.055154
1398.05078125 2.354928 1.665905 -0.689023
1398.84375 2.551177 1.567109 -0.984068
1399.5078125 2.5035439999999998 1.479356 -1.024188
1400.3046875 2.472458 1.677245 -0.795213
1401.18359375 2.374415 1.789415 -0.585
1402.125 2.335 1.805 -0.53
1402.9453125 2.5430580000000003 1.664562 -0.878496
1403.7421875 2.65461 1.658624 -0.995986
1404.88671875 2.643269 1.8386 -0.804669
1405.66015625 2.51962 1.872961 -0.646659
1406.34375 2.596985 1.677917 -0.919068
1406.9921875 2.57425 1.549361 -1.024889
1407.62109375 2.582496 1.403119 -1.179377
1408.3984375 2.526026 1.74252 -0.783506
1409.21484375 2.5360549999999997 1.862985 -0.67307
1410.16796875 2.257465 2.022963 -0.234502
1410.8984375 1.9386079999999999 1.999712 0.061104
1411.609375 2.1270249999999997 1.846172 -0.280853
1412.4609375 2.349466 1.714612 -0.634854
1413.34375 2.3883929999999998 1.648393 -0.74
1414.09375 2.46932 1.64111 -0.82821
1414.75 2.460465 1.64 -0.820465
1415.58984375 2.527084 1.630436 -0.896648
1416.35546875 2.5551530000000002 1.604988 -0.950165
1416.98828125 2.542629 1.682734 -0.859895
1417.65234375 2.5015099999999997 1.753191 -0.748319
1418.36328125 2.578792 1.74189 -0.836902
1419.1484375 2.503375 1.793358 -0.710017
1420.40625 2.151009 1.935139 -0.21587
1421.22265625 2.2195530000000003 1.834553 -0.385
1422.08203125 2.350258 1.641672 -0.708586
1422.6640625 2.373799 1.684951 -0.688848
1423.46484375 2.38969 1.822103 -0.567587
1424.26953125 2.034963 1.869963 -0.165
1424.96875 2.050039 1.69041 -0.359629
1425.66796875 2.2286 1.4636 -0.765
1426.43359375 2.415588 1.291647 -1.123941
1427.24609375 2.520025 1.266065 -1.25396
1428.1640625 2.5244790000000004 1.444479 -1.08
1429.08203125 2.0839 1.707469 -0.376431
1429.7421875 2.138687 1.703123 -0.435564
1430.52734375 2.4156139999999997 1.592639 -0.822975
1431.46484375 2.548465 1.478465 -1.07
1432.36328125 2.6104969999999996 1.549659 -1.060838
1433.08203125 2.669594 1.713465 -0.956129
1433.62890625 2.623825 1.818169 -0.805656
1434.62109375 2.510724 1.860724 -0.65
1435.38671875 2.488487 1.803829 -0.684658
1435.9296875 2.285865 1.956724 -0.329141
1436.83984375 2.086727 1.937691 -0.149036
1437.7890625 2.258421 1.649916 -0.608505
1438.65625 2.323556 1.612705 -0.710851
1439.6484375 2.3667670000000003 1.564575 -0.802192
1440.55859375 2.6246650000000002 1.334366 -1.290299
1441.44921875 2.610094 1.310788 -1.299306
1442.171875 2.525792 1.359156 -1.166636
1442.83984375 2.55679 1.437754 -1.119036
1443.6875 2.5704219999999998 1.610938 -0.959484
1444.6640625 2.3346109999999998 1.864611 -0.47
1445.6015625 2.46418 1.78918 -0.675
1446.4296875 2.592055 1.757084 -0.834971
1447.22265625 2.65382 1.77882 -0.875
1447.890625 2.56326 1.783317 -0.779943
1448.44921875 2.589571 1.864571 -0.725
1449.41015625 2.513176 1.847791 -0.665385
1450.296875 2.387537 1.914237 -0.4733
1451.0234375 2.4633019999999997 1.811605 -0.651697
1451.58203125 2.354907 1.750454 -0.604453
1452.4765625 2.130496 1.85641 -0.274086
1453.26953125 2.377472 1.649913 -0.727559
1454.0546875 2.649562 1.489562 -1.16
1454.86328125 2.647296 1.438457 -1.208839
1455.43359375 2.419837 1.569837 -0.85
1456.1015625 2.442641 1.402641 -1.04
1456.97265625 2.51721 1.82971 -0.6875
1457.65625 2.590102 1.7726 -0.817502
1458.37109375 2.6357559999999998 1.634967 -1.000789
1459.1171875 2.6557120000000003 1.680833 -0.974879
1460.01953125 2.8501149999999997 1.704861 -1.145254
1460.62109375 2.78174 1.724469 -1.057271
1461.2109375 2.909065 1.864365 -1.0447
1462.11328125 2.755 1.96 -0.795
1463.02734375 2.737504 2.003647 -0.733857
1463.921875 2.750792 2.048747 -0.702045
1464.98828125 2.5511880000000002 2.081265 -0.469923
1465.76953125 2.6291640000000003 1.930546 -0.698618
1466.4453125 2.7468310000000002 1.839118 -0.907713
1467.18359375 2.682076 1.846971 -0.835105
1468.0625 2.456532 1.83375 -0.622782
1468.89453125 2.531904 1.729931 -0.801973
1469.57421875 2.5850340000000003 1.606597 -0.978437
1470.27734375 2.714612 1.674036 -1.040576
1471.21875 2.686597 1.788462 -0.898135
1472.12109375 2.534558 1.77 -0.764558
1472.84765625 2.480565 1.847183 -0.633382
1473.4296875 2.535 1.885 -0.65
1474.21484375 2.596661 1.909763 -0.686898
1474.80078125 2.16992 2.037768 -0.132152
1475.62109375 2.129218 1.894482 -0.234736
1476.34765625 2.347979 1.69 -0.657979
1476.99609375 2.5055639999999997 1.565 -0.940564
1477.56640625 2.612922 1.489617 -1.123305
1478.28125 2.549557 1.64 -0.909557
1478.97265625 2.486132 1.65384 -0.832292
1479.90625 2.543902 1.801145 -0.742757
1480.4921875 2.614553 1.934604 -0.679949
1481.26171875 2.578919 1.861237 -0.717682
1481.8671875 2.492426 1.818022 -0.674404
1482.6640625 2.176537 1.949732 -0.226805
1483.6015625 2.375762 1.863895 -0.511867
1484.39453125 2.554535 1.76 -0.794535
1485.1875 2.447839 1.731667 -0.716172
1485.91015625 2.432877 1.597835 -0.835042
1486.4765625 2.53742 1.643591 -0.893829
1487.30078125 2.692788 1.72905 -0.963738
1487.8046875 2.097683 1.16488 -0.932803
1488.828125 2.734612 1.969612 -0.765
1489.578125 2.629591 1.964596 -0.664995
1490.28125 2.488015 2.013957 -0.474058
1491.08984375 2.627207 2.057895 -0.569312
1491.91796875 2.547473 1.965 -0.582473
1492.92578125 2.406489 1.94243 -0.464059
1493.70703125 2.3810919999999998 1.981204 -0.399888
1494.3671875 2.463082 1.903138 -0.559944
1495.203125 2.479736 1.864812 -0.614924
1496.09765625 2.3842280000000002 1.824697 -0.559531
1496.75 2.3 1.72 -0.58
1497.65625 2.536515 1.802109 -0.734406
1498.46875 2.352414 1.812116 -0.540298
1499.23828125 2.3077389999999998 1.698486 -0.609253
1499.9140625 2.449785 1.759785 -0.69
1500.7734375 2.456817 1.850884 -0.605933
1501.62890625 2.478853 1.888853 -0.59
1502.46875 2.451738 1.812974 -0.638764
1503.08203125 2.421025 1.7726 -0.648425
1503.98046875 2.433875 1.739555 -0.69432
1504.82421875 2.435534 1.73 -0.705534
1505.703125 2.374414 1.694467 -0.679947
1506.7109375 2.0054540000000003 1.84 -0.165454
1507.5546875 2.0039499999999997 1.729874 -0.274076
1508.3828125 2.076575 1.611575 -0.465
1509.09375 1.9174410000000002 1.57207 -0.345371
1510.03515625 2.236077 1.351077 -0.885
1510.984375 2.481328 1.256328 -1.225
1511.6953125 2.51208 1.40257 -1.10951
1512.453125 2.344459 1.596116 -0.748343
1513.03515625 2.313283 1.584598 -0.728685
1514.1328125 2.584685 1.547243 -1.037442
1515.12890625 2.560537 1.6 -0.960537
1516.1328125 2.558383 1.738113 -0.82027
1517.0078125 2.5220380000000002 1.858022 -0.664016
1517.7265625 2.36785 1.798319 -0.569531
1518.2578125 2.4297079999999998 1.864809 -0.564899
1518.82421875 2.482704 1.868774 -0.61393
1519.59375 2.3782870000000003 1.865108 -0.513179
1520.42578125 2.3479710000000003 1.814075 -0.533896
1521.0 2.345637 1.805 -0.540637
1521.890625 2.410867 1.728453 -0.682414
1522.8046875 2.321674 1.66818 -0.653494
1523.6796875 2.170701 1.753865 -0.416836
1524.50390625 2.174242 1.681117 -0.493125
1525.48828125 2.218941 1.711776 -0.507165
1526.4375 2.082441 1.659531 -0.42291
1527.1484375 2.24033 1.673016 -0.567314
1527.875 2.338522 1.56 -0.778522
1528.63671875 2.330761 1.494142 -0.836619
1529.26171875 2.341653 1.521597 -0.820056
1530.4453125 2.314223 1.60947 -0.704753
1531.1015625 2.188627 1.676483 -0.512144
1531.6953125 2.2357750000000003 1.641707 -0.594068
1532.59375 2.425573 1.615573 -0.81
1533.4765625 2.372932 1.643016 -0.729916
1534.45703125 2.312478 1.648465 -0.664013
1535.21484375 2.340907 1.665458 -0.675449
1536.23828125 2.4041259999999998 1.538451 -0.865675
1536.80078125 2.429442 1.590825 -0.838617
1537.9453125 2.461806 1.568889 -0.892917
1538.765625 2.3411 1.538447 -0.802653
1539.54296875 2.128398 1.68098 -0.447418
1540.1484375 2.036121 1.687104 -0.349017
1540.76953125 2.107609 1.61 -0.497609
1541.703125 2.2980080000000003 1.554909 -0.743099
1542.24609375 2.418212 1.58828 -0.829932
1542.9921875 2.342138 1.594056 -0.748082
1543.79296875 2.384054 1.590248 -0.793806
1544.6953125 2.359989 1.68724 -0.672749
1545.89453125 2.380877 1.839964 -0.540913
1546.8125 2.2859540000000003 1.753889 -0.532065
1547.57421875 2.22697 1.601236 -0.625734
1548.25390625 2.429527 1.61976 -0.809767
1548.95703125 2.512836 1.63463 -0.878206
1549.51171875 2.286884 1.69703 -0.589854
1550.4609375 2.103829 1.725 -0.378829
1551.0078125 2.135473 1.597737 -0.537736
1551.87109375 2.379642 1.446439 -0.933203
1552.6171875 2.4858520000000004 1.47751 -1.008342
1553.3203125 2.351369 1.55447 -0.796899
1554.0234375 2.2905100000000003 1.506528 -0.783982
1554.75 2.1547549999999998 1.615 -0.539755
1555.6953125 2.082854 1.620317 -0.462537
1556.55078125 2.362951 1.266525 -1.096426
1557.2578125 2.4006559999999997 1.025 -1.375656
1558.19140625 2.6839519999999997 1.364952 -1.319
1559.0859375 2.7597769999999997 1.644737 -1.11504
1559.75390625 2.654206 1.794134 -0.860072
1560.6328125 2.431112 1.747449 -0.683663
1561.5078125 2.245151 1.679068 -0.566083
1562.140625 2.5665329999999997 1.88615 -0.680383
1562.84765625 2.688993 1.813993 -0.875
1563.63671875 2.764392 1.815385 -0.949007
1564.75390625 2.805396 1.835724 -0.969672
1565.59375 2.823744 1.924159 -0.899585
1566.5234375 2.808301 1.968768 -0.839533
1567.453125 2.664954 1.99 -0.674954
1568.359375 2.667981 2.034227 -0.633754
1569.1796875 2.6739170000000003 2.100423 -0.573494
1569.79296875 2.431114 2.137062 -0.294052
1570.3515625 2.3523549999999998 1.993272 -0.359083
1570.9609375 2.481788 1.854763 -0.627025
1571.67578125 2.594227 1.769543 -0.824684
1572.41015625 2.687934 1.817934 -0.87
1573.28125 2.7939819999999997 1.909443 -0.884539
1574.3828125 2.636303 2.031508 -0.604795
1575.30859375 2.656514 2.172993 -0.483521
1576.0859375 2.6052649999999997 2.129504 -0.475761
1576.765625 2.5962989999999997 2.092961 -0.503338
1577.53125 2.5191429999999997 2.0271 -0.492043
1578.296875 2.503906 1.914487 -0.589419
1579.2578125 2.457459 1.914785 -0.542674
1580.16796875 2.4776 1.7476 -0.73
1581.1484375 2.5287110000000004 1.708719 -0.819992
1581.8125 2.4331300000000002 1.653894 -0.779236
1582.4765625 2.4844239999999997 1.698591 -0.785833
1583.3046875 2.485652 1.74848 -0.737172
1584.03125 2.491037 1.714375 -0.776662
1584.87109375 2.490233 1.70203 -0.788203
1585.80078125 2.412559 1.674011 -0.738548
1586.484375 2.397482 1.768066 -0.629416
1587.24609375 2.2387040000000002 1.768742 -0.469962
1587.9140625 2.321314 1.969924 -0.35139
1588.69921875 2.164322 1.931161 -0.233161
1589.57421875 2.037758 1.697846 -0.339912
1590.45703125 2.326701 1.68188 -0.644821
1591.328125 2.337642 1.637647 -0.699995
1592.2421875 2.434798 1.724798 -0.71
1592.93359375 2.4461049999999998 1.729542 -0.716563
1593.69921875 2.4254990000000003 1.784569 -0.64093
1594.34375 2.446878 1.813375 -0.633503
1595.16796875 2.479026 1.763223 -0.715803
1595.8515625 2.403756 1.77252 -0.631236
1596.9375 2.416205 1.792283 -0.623922
1597.92578125 2.410097 1.75102 -0.659077
1598.63671875 2.278152 1.628152 -0.65
1599.484375 2.356837 1.595527 -0.76131
1600.3125 2.299074 1.609593 -0.689481
1601.03515625 2.0692 1.58 -0.4892
1601.609375 2.206766 1.494077 -0.712689
1602.3984375 2.142513 1.47418 -0.668333
1603.59765625 1.929448 1.564448 -0.365
1604.50390625 2.0646079999999998 1.376723 -0.687885
1605.15625 2.186668 1.202281 -0.984387
1605.984375 2.42292 1.237292 -1.185628
1607.02734375 2.556153 1.346842 -1.209311
1607.79296875 2.4849370000000004 1.36 -1.124937
1608.6875 2.54479 1.468929 -1.075861
1609.421875 2.5036050000000003 1.503605 -1.0
1610.14453125 2.579975 1.559975 -1.02
1610.84375 2.55201 1.59507 -0.95694
1611.65625 2.539324 1.605 -0.934324
1612.5859375 2.498101 1.744599 -0.753502
1613.3359375 2.4370089999999998 1.809955 -0.627054
1614.21484375 2.4726209999999997 2.040119 -0.432502
1614.92578125 1.8984480000000001 2.153448 0.255
1615.921875 1.9166850000000002 1.683804 -0.232881
1616.52734375 2.101446 1.434864 -0.666582
1617.55078125 2.4185030000000003 1.281921 -1.136582
1618.140625 2.5349630000000003 1.33797 -1.196993
1618.91015625 2.604813 1.354813 -1.25
1619.66796875 2.613518 1.408837 -1.204681
1620.53515625 2.517551 1.692551 -0.825
1621.078125 2.586197 1.825 -0.761197
1621.984375 2.504477 1.748513 -0.755964
1622.8515625 2.439854 1.706749 -0.733105
1623.4921875 2.488671 1.815562 -0.673109
1624.1953125 2.5461720000000003 1.741953 -0.804219
1624.93359375 2.694653 1.789697 -0.904956
1625.5546875 2.595443 1.752599 -0.842844
1626.2734375 2.459167 1.800483 -0.658684
1626.8984375 2.530015 1.771158 -0.758857
1627.7578125 2.709763 1.798113 -0.91165
1628.6328125 2.657793 1.852793 -0.805
1629.55078125 2.426543 1.926869 -0.499674
1630.5859375 2.492887 1.75 -0.742887
1631.19921875 2.546823 1.616823 -0.93
1631.87890625 2.637777 1.536159 -1.101618
1632.5234375 2.5919410000000003 1.502669 -1.089272
1633.60546875 2.348611 1.789995 -0.558616
1634.19140625 1.989473 1.969473 -0.02
1635.078125 2.213495 1.778607 -0.434888
1635.84375 2.313232 1.56503 -0.748202
1636.51171875 2.471522 1.561903 -0.909619
1637.40625 2.6406330000000002 1.686056 -0.954577
1638.17578125 2.642623 1.744095 -0.898528
1638.79296875 2.715394 1.786342 -0.929052
1639.59375 2.655021 1.850145 -0.804876
1640.40625 2.604842 1.86611 -0.738732
1641.25 2.423906 2.075 -0.348906
1641.98046875 1.8534959999999998 2.259889 0.406393
1642.75390625 1.9285839999999999 1.906521 -0.022063
1643.35546875 2.330914 1.529347 -0.801567
1644.26953125 2.617745 1.454581 -1.163164
1645.26953125 2.642878 1.349901 -1.292977
1646.203125 2.654175 1.399214 -1.254961
1647.03125 2.6646419999999997 1.528787 -1.135855
1647.87109375 2.586509 1.826214 -0.760295
1648.69140625 2.5918419999999998 1.889186 -0.702656
1649.6875 2.64286 1.84 -0.80286
1650.5078125 2.453741 2.020664 -0.433077
1651.234375 2.362373 1.893337 -0.469036
1652.046875 2.493159 1.698159 -0.795
1652.89453125 2.504822 1.770292 -0.73453
1653.87109375 2.6134399999999998 1.813142 -0.800298
1654.73046875 2.799608 1.814989 -0.984619
1655.4296875 2.791731 1.813896 -0.977835
1656.25390625 2.6854329999999997 1.776214 -0.909219
1657.21484375 2.805076 1.910509 -0.894567
1658.09375 2.786105 1.958047 -0.828058
1658.80859375 2.5749589999999998 1.593386 -0.981573
1659.81640625 2.750747 1.954952 -0.795795
1660.5703125 2.6649700000000003 1.932433 -0.732537
1661.28515625 2.6647130000000003 2.004713 -0.66
1661.88671875 2.678304 2.063698 -0.614606
1662.60546875 2.449164 2.110281 -0.338883
1663.3828125 2.025833 2.115833 0.09
1663.99609375 2.103155 1.874109 -0.229046
1664.76171875 2.362339 1.551757 -0.810582
1665.46875 2.409967 1.428879 -0.981088
1666.2578125 2.457157 1.482157 -0.975
1666.84765625 2.40599 1.395126 -1.010864
1667.62109375 2.5047420000000002 1.704754 -0.799988
1668.77734375 2.594751 1.77678 -0.817971
1669.71484375 2.478137 1.71003 -0.768107
1670.5546875 2.537584 1.701707 -0.835877
1671.359375 2.221657 1.883483 -0.338174
1672.10546875 2.156346 1.689941 -0.466405
1673.0234375 2.34848 1.446528 -0.901952
1673.7578125 2.225544 1.479805 -0.745739
1674.51953125 2.440017 1.495817 -0.9442
1675.3203125 2.6803290000000004 1.440738 -1.239591
1675.8984375 2.659311 1.45687 -1.202441
1676.8359375 2.727516 1.675 -1.052516
1677.70703125 2.659971 1.698565 -0.961406
1678.484375 2.7742899999999997 1.766286 -1.008004
1679.42578125 2.801085 1.84732 -0.953765
1680.171875 2.687191 1.912191 -0.775
1681.34765625 2.473959 2.098959 -0.375
1682.125 2.079968 2.14 0.060032
1682.9453125 2.212447 1.812559 -0.399888
1683.80078125 2.479094 1.61032 -0.868774
1684.41015625 2.6078390000000002 1.637839 -0.97
1685.1796875 2.7488919999999997 1.675031 -1.073861
1685.90625 2.696993 1.7071 -0.989893
1687.2265625 2.645874 1.76 -0.885874
1688.30078125 2.502515 1.842515 -0.66
1689.1484375 2.520449 1.845438 -0.675011
1690.0625 2.539213 1.700385 -0.838828
1690.6640625 2.564364 1.744799 -0.819565
1691.54296875 2.683445 1.749384 -0.934061
1692.75 2.608196 1.7 -0.908196
1693.61328125 2.5625280000000004 1.631903 -0.930625
1694.34375 2.518201 1.672105 -0.846096
1695.12890625 2.550465 1.780874 -0.769591
1696.046875 2.534886 1.848859 -0.686027
1696.84765625 2.394546 1.709546 -0.685
1697.77734375 2.451492 1.804712 -0.64678
1698.4921875 2.558475 1.89855 -0.659925
1699.33203125 2.511359 1.934757 -0.576602
1700.25 2.498634 1.92 -0.578634
1701.01953125 2.474733 1.880295 -0.594438
1702.08203125 2.475823 1.792529 -0.683294
1702.68359375 2.449416 1.819764 -0.629652
1703.40234375 2.441414 1.776758 -0.664656
1704.16796875 2.452783 1.764832 -0.687951
1705.0078125 2.448811 1.823811 -0.625
1705.8125 2.4058859999999997 1.847448 -0.558438
1706.62109375 2.464296 1.936139 -0.528157
1707.44921875 2.418317 1.91 -0.508317
1708.4765625 2.416344 1.906414 -0.50993
1709.34375 2.338513 1.891992 -0.446521
1710.0390625 2.309698 1.879797 -0.429901
1710.62890625 2.342993 1.830828 -0.512165
1711.38671875 2.386641 1.711859 -0.674782
1712.17578125 2.37073 1.562312 -0.808418
1713.0078125 2.350639 1.497202 -0.853437
1713.859375 2.446736 1.578826 -0.86791
1714.6484375 2.378945 1.608945 -0.77
1715.390625 2.359786 1.669391 -0.690395
1716.09765625 2.287924 1.697924 -0.59
1717.32421875 2.289977 1.718494 -0.571483
1718.015625 2.314857 1.795593 -0.519264
1718.6796875 2.325169 1.787034 -0.538135
1719.515625 2.157661 1.892451 -0.26521
1720.33984375 1.847186 1.971026 0.12384
1721.171875 1.9998049999999998 1.734805 -0.265
1721.91796875 2.26606 1.60818 -0.65788
1722.8828125 2.417565 1.481934 -0.935631
1723.73828125 2.3214509999999997 1.611508 -0.709943
1724.34375 2.406024 1.53 -0.876024
1725.1953125 2.281978 1.359375 -0.922603
1725.80078125 2.6033530000000003 1.534825 -1.068528
1726.55859375 2.555761 1.553753 -1.002008
1727.1484375 2.5171710000000003 1.569287 -0.947884
1727.8515625 2.554514 1.612258 -0.942256
1728.58203125 2.6345520000000002 1.638728 -0.995824
1729.203125 2.668825 1.738849 -0.929976
1729.98828125 2.632753 1.777753 -0.855
1730.6875 2.543263 1.71233 -0.830933
1731.45703125 2.51513 1.746204 -0.768926
1732.35546875 2.57312 1.769995 -0.803125
1733.109375 2.485266 1.788848 -0.696418
1733.93359375 2.502221 1.784396 -0.717825
1734.73828125 2.5026349999999997 1.711865 -0.79077
1735.59765625 2.438598 1.648598 -0.79
1736.41015625 2.449658 1.684658 -0.765
1737.19140625 2.490499 1.730834 -0.759665
1738.07421875 2.344209 1.663774 -0.680435
1738.6640625 2.303359 1.634902 -0.668457
1739.5078125 2.3150079999999997 1.742157 -0.572851
1740.3203125 2.4349920000000003 1.724992 -0.71
1741.125 2.449912 1.63 -0.819912
1741.97265625 2.4582230000000003 1.623223 -0.835
1742.5859375 2.382624 1.614496 -0.768128
1743.49609375 2.124544 1.701093 -0.423451
1744.41796875 2.021614 1.67 -0.351614
1744.95703125 2.12407 1.487266 -0.636804
1746.04296875 2.238356 1.525889 -0.712467
1746.58984375 2.254889 1.590299 -0.66459
1747.3515625 2.461825 1.558492 -0.903333
1748.12890625 2.464117 1.524117 -0.94
1748.8984375 2.401348 1.545 -0.856348
1749.53515625 2.1848579999999997 1.647652 -0.537206
1750.1328125 2.140476 1.691808 -0.448668
1750.97265625 2.231776 1.504276 -0.7275
1751.84765625 2.42102 1.44109 -0.97993
1752.671875 2.458567 1.472177 -0.98639
1753.46875 2.56507 1.61007 -0.955
1754.29296875 2.587116 1.629552 -0.957564
1755.12109375 2.494927 1.640322 -0.854605
1755.96484375 2.599415 1.800119 -0.799296
1756.76953125 2.552562 1.839057 -0.713505
1757.578125 2.4400399999999998 1.769185 -0.670855
1758.42578125 2.581936 1.90393 -0.678006
1759.23046875 2.5397410000000002 1.924935 -0.614806
1760.0390625 2.5096600000000002 1.905583 -0.604077
1760.859375 2.5045010000000003 1.895671 -0.60883
1761.66015625 2.470447 1.895447 -0.575
1762.296875 2.507465 1.918421 -0.589044
1763.09375 2.480172 1.824663 -0.655509
1763.86328125 2.528142 1.830486 -0.697656
1765.03515625 2.200897 1.915897 -0.285
1765.87109375 2.072005 1.835997 -0.236008
1766.4765625 2.2016289999999996 1.677871 -0.523758
1767.20703125 2.353621 1.481727 -0.871894
1767.95703125 2.336486 1.407624 -0.928862
1768.8515625 2.419238 1.335442 -1.083796
1769.62890625 2.546768 1.34 -1.206768
1770.83984375 2.48854 1.437624 -1.050916
1771.6875 2.4919070000000003 1.57 -0.921907
1772.5234375 2.570156 1.708341 -0.861815
1773.23046875 2.624092 1.799919 -0.824173
1774.30859375 2.5033060000000003 1.874339 -0.628967
1774.97265625 1.7928430000000002 2.077843 0.285
1775.5859375 1.5931870000000001 1.964976 0.371789
1776.60546875 2.068834 1.529994 -0.53884
1777.234375 2.37249 1.351463 -1.021027
1778.25 2.572025 1.325 -1.247025
1779.078125 2.6662239999999997 1.468297 -1.197927
1779.97265625 2.818873 1.553873 -1.265
1780.78515625 2.705 1.63 -1.075
1781.37890625 2.708548 1.688548 -1.02
1782.41015625 2.772405 1.764645 -1.00776
1783.26953125 2.833274 1.874561 -0.958713
1784.19921875 2.874746 2.079579 -0.795167
1785.015625 2.813429 2.201447 -0.611982
1785.6796875 2.905976 2.28814 -0.617836
1786.66796875 2.918078 2.289552 -0.628526
1787.29296875 2.884582 2.313519 -0.571063
1787.921875 2.7984150000000003 2.247161 -0.551254
1788.83984375 2.579065 2.334763 -0.244302
1789.828125 2.258716 2.294258 0.035542
1790.6875 2.439218 2.000658 -0.43856
1791.4765625 2.5129919999999997 1.684659 -0.828333
1792.296875 2.623878 1.609503 -1.014375
1792.91015625 2.691694 1.600304 -1.09139
1793.77734375 2.778794 1.633794 -1.145
1794.625 2.759056 1.66 -1.099056
1795.19921875 2.67389 1.459735 -1.214155
1796.0 2.575 1.715 -0.86
1796.7578125 2.597697 1.801151 -0.796546
1797.62109375 2.654238 1.886156 -0.768082
1798.44140625 2.598042 1.949644 -0.648398
1799.66796875 2.458548 1.99 -0.468548
1800.35546875 1.919906 2.369906 0.45
1801.1015625 1.6159240000000001 2.218966 0.603042
1801.91796875 1.899299 1.754299 -0.145
1802.3203125 2.8687199999999997 1.588779 -1.279941
1803.26171875 2.372219 1.275 -1.097219
1804.0234375 2.326084 1.446523 -0.879561
