234 
513 
806 
1107 
1393 
1668 
1946 
2238 
2538 
2834 
3114 
3398 
3683 
3977 
4262 
4541 
4820 
5099 
5395 
5703 
6002 
6284 
6571 
6867 
7174 
7347 
7737 
8014 
8292 
8581 
8871 
9149 
9429 
9710 
10009 
10314 
10616 
10903 
11190 
11488 
11796 
12091 
12365 
12638 
12923 
13221 
13501 
13781 
14058 
14343 
14642 
14944 
15246 
15530 
15812 
16114 
16418 
16718 
17003 
17287 
17590 
17892 
18184 
18464 
18741 
19028 
19328 
19624 
19918 
20198 
20482 
20782 
21088 
21383 
21666 
21949 
22261 
22565 
22847 
23120 
23394 
23671 
23956 
24239 
24521 
24796 
25072 
25366 
25665 
25958 
26232 
26504 
26795 
27090 
27380 
27665 
27944 
28237 
28539 
28837 
29125 
29403 
29680 
29971 
30265 
30559 
30838 
31117 
31408 
31713 
32007 
32288 
32568 
32859 
33165 
33464 
33756 
34041 
34328 
34622 
34924 
35214 
35496 
35774 
36063 
36370 
36663 
36941 
37219 
37511 
37822 
38126 
38416 
38709 
39007 
39311 
39612 
39896 
40175 
40454 
40745 
41046 
41333 
41610 
41892 
42192 
42501 
42799 
43077 
43361 
43651 
43951 
44247 
44533 
44818 
45107 
45405 
45709 
45997 
46270 
46543 
46832 
47137 
47427 
47703 
47985 
48286 
48593 
48889 
49173 
49456 
49749 
50047 
50345 
50636 
50912 
51195 
51491 
51798 
52092 
52373 
52658 
52969 
53278 
53578 
53865 
54156 
54460 
54759 
55057 
55334 
55607 
55891 
56194 
56493 
56778 
57050 
57332 
57631 
57926 
58213 
58403 
58761 
59053 
59348 
59639 
59921 
60199 
60488 
60790 
61092 
61381 
61661 
61940 
62246 
62547 
62743 
63097 
63368 
63656 
63940 
64222 
64504 
64779 
65064 
65365 
65667 
65961 
66240 
66514 
66808 
67114 
67404 
67687 
67963 
68130 
68536 
68822 
69091 
69360 
69636 
69926 
70216 
70505 
70789 
71066 
71357 
71662 
71963 
72242 
72526 
72819 
73129 
73430 
73714 
74000 
74290 
74588 
74889 
75175 
75458 
75739 
76037 
76345 
76643 
76924 
77203 
77496 
77795 
78084 
78354 
78627 
78921 
79220 
79509 
79798 
80083 
80375 
80679 
80990 
81289 
81574 
81860 
82161 
82469 
82763 
83045 
83331 
83637 
83941 
84242 
84533 
84825 
85127 
85434 
85646 
86034 
86319 
86612 
86919 
87224 
87513 
87794 
88089 
88396 
88693 
88985 
89264 
89550 
89846 
90143 
90441 
90723 
91002 
91296 
91601 
91903 
92182 
92455 
92742 
93043 
93335 
93620 
93896 
94185 
94494 
94797 
95097 
95383 
95668 
95967 
96272 
96569 
96848 
97118 
97409 
97700 
97985 
98258 
98531 
98818 
99128 
99435 
99737 
100032 
100322 
100621 
100924 
101220 
101502 
101780 
102070 
102376 
102671 
102953 
103145 
103444 
103762 
104079 
104380 
104686 
104991 
105299 
105605 
105905 
106179 
106441 
106711 
106994 
107282 
107564 
107846 
108138 
108450 
108752 
109036 
109319 
109610 
109911 
110213 
110504 
110665 
111061 
111354 
111645 
111931 
112203 
112474 
112759 
113061 
113358 
113640 
113921 
114215 
114517 
114814 
115103 
115384 
115667 
115963 
116263 
116556 
116834 
117111 
117403 
117710 
118013 
118298 
118581 
118882 
119190 
119484 
119766 
120041 
120322 
120614 
120901 
121083 
121453 
121717 
121990 
122265 
122542 
122809 
123071 
123341 
123632 
123919 
124204 
124475 
124750 
125032 
125323 
125617 
125906 
126183 
126463 
126759 
127065 
127359 
127640 
127921 
128221 
128521 
128806 
129082 
129359 
129650 
129942 
130235 
130523 
130803 
131083 
131383 
131685 
131982 
132262 
132543 
132847 
133151 
133442 
133723 
134000 
134289 
134578 
134866 
135150 
135423 
135700 
135994 
136294 
136586 
136866 
137141 
137429 
137728 
138017 
138288 
138562 
138845 
139145 
139439 
139724 
140007 
140290 
140580 
140877 
141165 
141444 
141718 
141994 
142283 
142562 
142818 
143072 
143330 
143600 
143875 
144138 
144387 
144645 
144913 
145201 
145497 
145784 
146064 
146342 
146628 
146929 
147227 
147505 
147780 
148059 
148343 
148616 
148881 
149137 
149396 
149664 
149930 
150190 
150433 
150674 
150910 
151156 
151403 
151651 
151892 
152121 
152348 
152583 
152829 
153083 
153328 
153564 
153797 
154035 
154280 
154519 
154756 
154988 
155218 
155670 
155910 
156150 
156392 
156619 
156840 
157063 
157300 
157542 
157783 
158018 
158471 
158713 
158954 
159198 
159439 
159639 
159902 
160142 
160382 
160631 
160878 
161089 
161357 
161588 
161823 
162065 
162315 
162798 
163022 
163253 
163500 
163745 
163983 
164216 
164439 
164663 
164893 
165129 
165306 
165608 
165845 
166068 
166289 
166520 
166759 
167001 
167247 
167476 
167704 
167936 
168186 
168433 
168674 
168909 
169138 
169368 
169537 
169845 
170092 
170329 
170558 
170779 
171001 
171232 
171468 
171697 
171924 
172142 
172360 
172589 
172826 
173070 
173303 
173525 
173684 
173963 
174200 
174443 
174678 
174905 
175130 
175357 
175586 
175822 
176070 
176310 
176551 
176788 
177018 
177264 
177519 
177792 
178033 
178275 
178518 
178782 
179049 
179317 
179578 
179836 
180094 
180367 
180639 
180916 
181178 
181445 
181704 
181978 
182264 
182544 
182808 
183071 
183342 
183629 
183918 
184191 
184460 
184727 
185012 
185293 
185574 
185846 
186116 
186388 
186667 
186960 
187234 
187496 
187757 
188029 
188314 
188443 
188545 
189021 
189281 
189550 
189818 
190086 
190358 
190478 
190786 
191052 
191179 
191508 
191776 
191899 
192202 
192458 
192723 
192937 
193266 
193525 
193784 
194059 
194189 
194525 
194807 
194930 
195251 
195525 
195671 
195867 
196263 
196539 
196807 
196948 
197253 
197549 
197839 
197964 
198282 
198561 
198849 
199138 
199422 
199549 
199874 
200150 
200438 
200569 
200907 
201190 
201312 
201629 
201911 
202194 
202480 
202745 
203005 
203272 
203563 
203850 
204128 
204396 
204669 
204954 
205243 
205371 
205709 
205987 
206260 
206389 
206735 
207021 
207302 
207564 
207831 
208117 
208403 
208681 
208947 
209209 
209488 
209780 
210060 
210337 
210605 
210874 
211152 
211432 
211717 
211991 
212249 
212520 
212806 
213096 
213366 
213630 
213896 
214173 
214469 
214749 
215023 
215147 
215465 
215748 
216030 
216312 
216582 
216845 
217113 
217401 
217694 
217975 
218243 
218506 
218785 
219074 
219352 
219614 
219883 
220149 
220437 
220726 
221010 
221284 
221554 
221829 
222123 
222416 
222692 
222965 
223244 
223535 
223830 
224113 
224386 
224661 
224945 
225235 
225520 
225799 
226063 
226338 
226620 
226914 
227193 
227460 
227734 
228013 
228308 
228590 
228862 
229135 
229412 
229697 
229989 
230276 
230547 
230825 
231106 
231406 
231696 
231975 
232244 
232524 
232817 
233116 
233397 
233669 
233952 
234245 
234537 
234827 
235099 
235378 
235659 
235950 
236239 
236513 
236781 
237047 
237327 
237619 
237896 
238166 
238433 
238721 
239011 
239296 
239570 
239835 
240111 
240395 
240681 
240965 
241240 
241507 
241786 
242078 
242370 
242649 
242917 
243191 
243498 
243793 
244071 
244344 
244622 
244914 
245207 
245496 
245780 
246053 
246333 
246622 
246915 
247198 
247470 
247745 
248040 
248328 
248609 
248876 
249139 
249410 
249689 
249962 
250232 
250493 
250755 
251024 
251308 
251589 
251867 
252132 
252396 
252688 
252972 
253247 
253514 
253771 
254036 
254315 
254582 
254841 
255104 
255357 
255624 
255912 
256187 
256468 
256737 
257010 
257311 
257606 
257884 
258165 
258442 
258740 
259038 
259333 
259618 
259900 
260190 
260485 
260783 
261076 
261349 
261629 
261926 
262230 
262520 
262794 
263074 
263370 
263668 
263963 
264250 
264531 
264821 
265118 
265417 
265706 
265988 
266276 
266576 
266880 
267178 
267455 
267741 
268042 
268355 
268653 
268938 
269236 
269539 
269847 
270144 
270435 
270723 
271019 
271329 
271633 
271923 
272206 
272498 
272810 
273121 
273409 
273699 
274004 
274317 
274626 
274921 
275215 
275513 
275824 
276137 
276435 
276715 
277004 
277306 
277613 
277906 
278184 
278474 
278781 
279089 
279391 
279678 
279972 
280271 
280575 
280885 
281175 
281461 
281763 
282063 
282374 
282666 
282949 
283259 
283575 
283874 
284166 
284449 
284752 
285061 
285366 
285665 
285950 
286243 
286548 
286858 
287157 
287442 
287570 
287941 
288084 
288190 
288457 
288589 
288934 
289068 
289421 
289565 
289925 
290067 
290169 
290418 
290548 
290895 
291037 
291142 
291413 
291549 
291654 
291911 
292038 
292388 
292531 
292640 
292754 
292878 
293027 
293193 
293332 
293462 
293585 
293701 
293855 
294009 
294138 
294251 
294438 
294614 
294756 
294887 
295009 
295156 
295275 
295385 
295545 
295689 
295853 
295994 
296131 
296300 
296629 
296930 
297061 
297175 
297480 
297614 
297724 
297998 
298122 
298226 
298500 
298634 
298754 
299035 
299164 
299532 
299661 
300022 
300149 
300256 
300533 
300662 
300776 
301039 
301164 
301271 
301460 
301598 
301735 
301853 
302090 
302262 
302395 
302553 
302776 
302923 
303092 
303220 
303350 
303501 
303624 
303744 
303870 
303991 
304112 
304254 
304391 
304617 
304756 
304915 
305065 
305190 
305317 
305438 
305564 
305686 
305818 
305940 
306062 
306185 
306306 
306440 
306570 
306701 
306824 
306954 
307123 
307248 
307370 
307538 
307697 
307838 
308017 
308156 
308285 
308409 
308530 
308643 
308759 
308876 
308992 
309106 
309262 
309420 
309543 
309668 
309789 
309915 
310049 
310167 
310283 
310396 
310514 
310619 
310737 
310867 
310983 
311107 
311231 
311358 
311479 
311608 
311729 
311892 
312020 
312180 
312337 
312458 
312584 
312705 
312827 
312951 
313077 
313197 
313345 
313455 
313573 
313684 
313807 
313927 
314108 
314226 
314357 
314509 
314635 
314799 
314947 
315092 
315240 
315373 
315553 
315703 
315868 
316017 
316175 
316339 
316449 
316620 
316730 
316842 
316951 
317066 
317186 
317306 
317421 
317549 
317664 
317829 
317944 
318058 
318223 
318351 
318505 
318685 
318810 
318934 
319145 
319265 
319376 
319484 
319594 
319704 
319814 
319925 
320037 
320149 
320266 
320383 
320499 
320627 
320747 
320856 
320968 
321077 
321192 
321313 
321462 
321587 
321737 
321860 
321981 
322100 
322214 
322327 
322441 
322551 
322659 
322818 
323050 
323207 
323329 
323446 
323560 
323678 
323793 
323909 
324018 
324127 
324244 
324366 
324468 
324577 
324699 
324820 
324942 
325164 
325288 
325503 
325613 
325725 
325827 
325932 
326035 
326153 
326367 
326486 
326605 
326720 
326849 
326967 
327150 
327280 
327385 
327498 
327710 
327833 
327948 
328067 
328178 
328291 
328402 
328515 
328625 
328733 
328839 
328949 
329055 
329181 
329294 
329411 
329520 
329634 
329743 
329859 
329974 
330085 
330199 
330307 
330409 
330555 
330825 
331233 
331588 
331704 
332114 
332241 
332371 
332693 
332816 
333215 
333336 
333450 
333676 
333839 
334043 
334197 
334321 
334456 
334636 
334966 
335145 
335283 
335433 
335642 
335768 
335881 
336099 
336322 
336448 
336653 
336847 
336988 
337104 
337340 
337527 
337645 
337759 
337860 
338054 
338216 
338345 
338494 
338646 
338780 
338931 
339043 
339163 
339354 
339494 
339590 
339706 
339855 
340027 
340215 
340330 
340483 
340594 
340765 
340875 
341114 
341265 
341451 
341635 
341844 
341989 
342155 
342282 
342442 
342574 
342675 
342779 
342919 
343151 
343295 
343577 
343723 
343820 
343969 
344127 
344305 
344498 
344690 
344895 
345078 
345193 
345376 
345534 
345723 
345866 
346041 
346247 
346448 
346650 
346779 
346981 
347221 
347363 
347503 
347733 
347884 
348056 
348202 
348391 
348555 
348700 
348883 
349009 
349124 
349339 
349503 
349643 
349810 
349927 
350071 
350272 
350457 
350620 
350768 
350939 
351131 
351283 
351428 
351546 
351709 
351899 
352199 
352390 
352604 
352799 
352985 
353148 
353355 
353551 
353701 
353931 
354075 
354242 
354359 
354537 
354668 
354821 
354973 
355160 
355317 
355553 
355862 
356085 
356242 
356430 
356641 
356765 
356970 
357113 
357268 
357449 
357582 
357759 
357871 
357984 
358145 
358313 
358435 
358597 
358866 
359007 
359202 
359332 
359461 
359570 
359716 
359832 
359984 
360187 
360400 
360564 
360726 
360894 
361102 
361233 
361403 
361554 
361745 
361917 
362046 
362207 
362432 
362592 
362767 
362878 
363053 
363227 
363349 
363499 
363645 
363801 
363958 
364074 
364224 
364374 
364488 
364676 
364796 
364971 
365157 
365376 
365583 
365757 
365954 
366111 
366271 
366499 
366698 
366848 
367007 
367211 
367377 
367552 
367712 
367879 
368046 
368256 
368485 
368651 
368765 
368944 
369085 
369249 
369443 
369655 
369816 
369978 
370111 
370277 
370453 
370666 
370855 
371017 
371191 
371376 
371541 
371665 
371850 
372089 
372226 
372477 
372621 
372786 
372945 
373054 
373217 
373359 
373519 
373642 
373793 
373962 
374124 
374240 
374375 
374491 
374717 
374897 
375040 
375158 
375269 
375434 
375569 
375670 
375839 
376005 
376149 
376341 
376447 
376571 
376750 
376970 
377161 
377367 
377521 
377744 
377865 
378020 
378209 
378488 
378715 
378868 
379063 
379211 
379427 
379589 
379692 
379805 
379973 
380106 
380304 
380430 
380606 
380837 
381072 
381205 
381316 
381441 
381663 
381840 
381997 
382138 
382332 
382516 
382631 
382778 
382910 
383088 
383262 
383474 
383692 
383873 
384023 
384125 
384345 
384547 
384793 
384960 
385177 
385374 
385581 
385713 
385974 
386145 
386321 
386452 
386598 
386757 
386908 
387070 
387261 
387433 
387542 
387755 
387938 
388100 
388285 
388456 
388630 
388803 
389014 
389212 
389339 
389531 
389741 
389863 
390071 
390215 
390391 
390510 
390674 
390869 
391054 
391206 
391330 
391455 
391601 
391714 
391831 
391947 
392060 
392175 
392296 
392417 
392542 
392658 
392778 
392892 
393008 
393124 
393239 
393356 
393472 
393590 
393712 
393832 
393956 
394082 
394206 
394339 
394512 
394666 
394786 
394896 
395010 
395125 
395236 
395351 
395472 
395594 
395719 
395842 
395959 
396077 
396190 
396300 
396412 
396523 
396636 
396747 
396863 
396983 
397103 
397227 
397345 
397461 
397579 
397691 
397802 
397913 
398024 
398138 
398251 
398368 
398489 
398605 
398724 
398841 
398959 
399076 
399189 
399303 
399414 
399525 
399637 
399747 
399861 
399976 
400083 
400200 
400316 
400435 
400554 
400666 
400778 
400885 
400991 
401100 
401209 
401321 
401430 
401544 
401661 
401781 
401901 
402018 
402131 
402245 
402354 
402463 
402570 
402681 
402791 
402903 
403014 
403129 
403295 
403457 
403640 
403799 
403948 
404147 
404312 
404445 
404654 
404829 
404967 
405242 
405432 
405648 
405830 
405965 
406202 
406397 
406595 
406776 
406923 
407030 
407188 
407337 
407601 
407753 
407926 
408106 
408250 
408419 
408581 
408763 
408944 
409084 
409206 
409374 
409572 
409754 
409861 
410087 
410256 
410380 
410574 
410750 
410930 
411174 
411351 
411563 
411699 
411832 
412030 
412252 
412487 
412671 
412847 
412947 
413140 
413272 
413425 
413636 
413798 
413994 
414118 
414227 
414325 
414446 
414605 
414754 
414909 
415056 
415312 
415500 
415713 
415898 
416042 
416205 
416318 
416426 
416566 
416725 
416880 
417068 
417196 
417317 
417503 
417618 
417828 
417975 
418151 
418396 
418629 
418859 
419053 
419216 
419365 
419520 
419764 
419947 
420103 
420287 
420407 
420633 
420789 
420953 
421129 
421404 
421597 
421776 
421974 
422149 
422286 
422456 
422575 
422723 
422894 
423136 
423295 
423437 
423673 
423821 
424006 
424166 
424315 
424412 
424621 
424812 
424990 
425198 
425393 
425537 
425714 
425835 
426079 
426217 
426386 
426507 
426700 
426905 
427086 
427241 
427428 
427694 
427879 
428044 
428225 
428338 
428547 
428709 
428895 
429112 
429254 
429499 
429647 
429785 
429971 
430130 
430238 
430392 
430514 
430697 
430887 
431078 
431320 
431471 
431662 
431821 
431961 
432098 
432238 
432472 
432596 
432735 
432932 
433102 
433242 
433427 
433585 
433696 
433874 
434046 
434256 
434534 
434685 
434812 
434989 
435172 
435299 
435457 
435676 
435890 
436025 
436182 
436308 
436466 
436634 
436756 
436970 
437196 
437399 
437607 
437807 
437983 
438210 
438393 
438568 
438729 
438860 
439062 
439267 
439481 
439607 
439823 
439940 
440167 
440408 
440548 
440761 
440934 
441097 
441315 
441465 
441606 
441832 
442025 
442233 
442399 
442613 
442787 
442909 
443067 
443247 
443430 
443614 
443742 
443986 
444109 
444256 
444357 
444457 
444572 
444747 
444881 
445082 
445265 
445533 
445678 
445822 
445962 
446115 
446310 
446468 
446632 
446781 
446926 
447120 
447292 
447523 
447675 
447877 
448124 
448290 
448476 
448608 
448792 
448921 
449033 
449191 
449330 
449450 
449633 
449749 
449847 
449992 
450203 
450373 
450556 
450789 
450941 
451130 
451298 
451495 
451689 
451850 
452078 
452345 
452479 
452686 
452843 
452938 
453135 
453299 
453432 
453542 
453731 
453933 
454131 
454331 
454444 
454598 
454844 
455006 
455194 
455426 
455619 
455774 
455958 
456062 
456251 
456413 
456569 
456715 
456931 
457155 
457305 
457505 
457681 
457825 
457953 
458161 
458314 
458453 
458670 
458859 
459082 
459289 
459582 
459691 
459783 
459972 
460099 
460293 
460525 
460686 
460874 
461031 
461181 
461299 
461562 
461740 
461934 
462120 
