4.41015625 1.199775 0.775 -0.424775
5.01953125 1.2669700000000002 0.22497 -1.042
5.4375 0.587486 -0.3275 -0.914986
5.6875 0.206751 -0.1685 -0.375251
6.0390625 0.029211999999999988 -0.155038 -0.18425
6.50390625 1.159214 0.748161 -0.411053
7.12109375 1.31259 0.192871 -1.119719
7.50390625 0.30740600000000007 -0.422129 -0.729535
8.640625 1.123732 0.743732 -0.38
9.23828125 1.292581 0.242847 -1.049734
10.71484375 1.085439 0.775439 -0.31
11.26953125 1.238227 0.239986 -0.998241
12.8828125 1.069901 0.809355 -0.260546
13.48828125 1.239604 0.264636 -0.974968
15.0234375 1.051607 0.803935 -0.247672
15.60546875 1.126003 0.259986 -0.866017
17.109375 1.080289 0.806122 -0.274167
17.71484375 1.125 0.275 -0.85
19.2734375 1.081926 0.828349 -0.253577
19.8828125 1.1961650000000001 0.319187 -0.876978
21.390625 0.98014 0.834515 -0.145625
21.96484375 1.0995089999999998 0.369509 -0.73
23.43359375 0.974945 0.869945 -0.105
24.0625 1.214844 0.545 -0.669844
25.59765625 0.98027 0.669087 -0.311183
26.234375 1.1103 0.742257 -0.368043
27.6328125 0.875515 0.711875 -0.16364
28.23046875 1.184994 0.284994 -0.9
29.69140625 0.9410000000000001 0.748178 -0.192822
30.296875 1.186572 0.335 -0.851572
31.80859375 0.883508 0.664585 -0.218923
32.390625 1.0754299999999999 0.23043 -0.845
33.87890625 0.803033 0.639471 -0.163562
34.49609375 1.0936970000000001 0.405393 -0.688304
35.93359375 0.90469 0.759766 -0.144924
36.609375 1.181706 0.31 -0.871706
37.0703125 0.7683040000000001 0.498304 -0.27
38.17578125 1.0332919999999999 -0.06 -1.093292
38.79296875 0.9984299999999999 0.387727 -0.610703
39.234375 1.281653 0.783281 -0.498372
39.62109375 1.817617 1.208107 -0.60951
40.42578125 1.117999 0.028754 -1.089245
40.95703125 0.9616229999999999 0.302004 -0.659619
41.421875 0.664601 -0.005919 -0.67052
41.625 1.234215 0.155 -1.079215
41.95703125 1.343492 0.403368 -0.940124
42.30078125 1.418088 0.595 -0.823088
42.55078125 0.184561 -0.022037 -0.206598
43.04296875 0.5197339999999999 0.20159 -0.318144
43.51953125 1.099964 0.159964 -0.94
43.91796875 0.9699960000000001 0.211235 -0.758761
44.30859375 0.339351 0.545455 0.206104
44.671875 0.372885 0.619854 0.246969
45.0078125 1.1847530000000002 0.524753 -0.66
45.31640625 0.405043 0.397318 -0.007725
45.6328125 1.060755 0.310755 -0.75
46.05859375 1.191042 0.284392 -0.90665
46.2890625 1.4067059999999998 0.500056 -0.90665
46.65625 1.883616 0.64 -1.243616
46.98828125 1.676614 0.636614 -1.04
47.3203125 1.424986 0.605 -0.819986
47.79296875 0.817948 -0.036654 -0.854602
48.05859375 1.644531 0.444531 -1.2
48.38671875 1.160637 0.384387 -0.77625
48.734375 1.306156 0.576309 -0.729847
49.0859375 1.029747 0.724824 -0.304923
49.3046875 0.12793299999999996 -0.659544 -0.787477
49.859375 0.198272 -0.065234 -0.263506
50.10546875 0.14979599999999998 0.154942 0.005146
50.6875 1.647089 1.162187 -0.484902
52.29296875 1.001501 0.667176 -0.334325
53.0546875 1.185605 0.239288 -0.946317
54.38671875 0.9340200000000001 0.419355 -0.514665
55.01171875 1.7559989999999999 -0.049001 -1.805
55.31640625 0.046751000000000015 0.284258 0.237507
55.921875 1.904895 0.549895 -1.355
56.265625 1.005018 0.549171 -0.455847
56.91796875 1.8554599999999999 0.915203 -0.940257
57.25 1.5567060000000001 0.755 -0.801706
57.484375 0.2564 -0.026569 -0.282969
57.7734375 0.15552400000000002 -0.124476 -0.28
58.078125 0.22220299999999998 -0.118002 -0.340205
58.46484375 1.09602 0.527551 -0.568469
58.921875 1.380781 0.168906 -1.211875
59.3984375 0.612895 0.755452 0.142557
59.94140625 1.876862 0.366885 -1.509977
61.44140625 0.966952 0.480808 -0.486144
62.078125 1.507979 0.209325 -1.298654
62.94921875 1.7182970000000002 1.064523 -0.653774
63.6484375 1.166555 0.025913 -1.140642
64.4609375 1.340679 -0.275361 -1.61604
65.3671875 1.413523 -0.470461 -1.883984
65.953125 2.214121 1.409346 -0.804775
67.16015625 1.127129 0.681077 -0.446052
68.234375 1.4223729999999999 -0.042197 -1.46457
69.16015625 1.391766 -0.047034 -1.4388
70.046875 1.458161 -0.235388 -1.693549
70.91015625 1.4494799999999999 -0.192935 -1.642415
71.53515625 1.832709 0.991319 -0.84139
72.765625 1.340905 -0.186582 -1.527487
73.33203125 1.462554 0.553557 -0.908997
74.47265625 1.081375 0.651375 -0.43
75.1484375 2.451451 1.61232 -0.839131
76.2734375 1.0931899999999999 0.613591 -0.479599
77.26953125 1.3427289999999998 -0.124721 -1.46745
77.8828125 2.164539 1.429539 -0.735
78.27734375 1.629258 0.869258 -0.76
79.76953125 1.178305 0.919972 -0.258333
80.45703125 1.5270480000000002 0.77361 -0.753438
80.875 0.6309640000000001 0.055 -0.575964
81.8203125 1.15947 0.65447 -0.505
82.9921875 1.452172 -0.092069 -1.544241
83.5703125 2.4787549999999996 1.463755 -1.015
84.90625 1.1792880000000001 0.854645 -0.324643
85.63671875 2.169021 1.435 -0.734021
86.8359375 1.198071 0.829433 -0.368638
87.90234375 1.487528 -0.052116 -1.539644
88.8203125 1.48424 -0.105656 -1.589896
89.75390625 1.444508 -0.25724 -1.701748
90.74609375 1.449151 -0.20413 -1.653281
91.703125 1.4248539999999998 -0.205146 -1.63
92.68359375 1.403327 -0.115 -1.518327
93.3359375 1.966904 1.274778 -0.692126
94.43359375 1.1369829999999999 0.747392 -0.389591
95.484375 1.390977 0.003164 -1.387813
96.484375 1.380202 -0.06 -1.440202
97.515625 1.335921 -0.073428 -1.409349
98.4765625 1.335248 -0.158381 -1.493629
99.41796875 1.301246 -0.083754 -1.385
100.3671875 1.3747070000000001 -0.080271 -1.454978
101.296875 1.358155 -0.065818 -1.423973
102.28125 1.3032009999999998 -0.023281 -1.326482
103.26953125 1.304708 -0.025 -1.329708
104.24609375 1.307355 -0.102434 -1.409789
105.21484375 1.317086 -0.062216 -1.379302
106.14453125 1.2441309999999999 -0.07501 -1.319141
107.05859375 1.290597 -0.113309 -1.403906
108.046875 1.309895 -0.185 -1.494895
109.06640625 1.2049999999999998 -0.215 -1.42
110.01171875 1.1423910000000002 -0.19 -1.332391
110.9765625 1.225478 -0.239809 -1.465287
111.91015625 1.2569 -0.215746 -1.472646
112.859375 1.222724 -0.197246 -1.41997
113.83984375 1.307106 -0.222894 -1.53
114.80859375 1.179182 -0.22 -1.399182
115.7890625 1.168895 -0.155 -1.323895
116.75390625 1.2727899999999999 -0.157129 -1.429919
117.67578125 1.1140759999999998 -0.13 -1.244076
118.58984375 1.097353 -0.087647 -1.185
119.48828125 1.0331890000000001 -0.108221 -1.14141
120.453125 0.992564 -0.085 -1.077564
121.421875 1.058548 -0.104147 -1.162695
122.359375 1.0355539999999999 -0.073428 -1.108982
123.2890625 1.078828 -0.075088 -1.153916
124.21875 1.091157 -0.11043 -1.201587
125.10546875 1.004019 -0.145 -1.149019
126.05078125 1.063582 -0.107825 -1.171407
126.99609375 1.034781 -0.140219 -1.175
127.93359375 0.662341 -0.068705 -0.731046
128.5859375 1.6155270000000002 1.005527 -0.61
129.75390625 1.005562 -0.049239 -1.054801
130.28515625 1.145 0.555 -0.59
131.41015625 0.7671749999999999 0.452231 -0.314944
132.203125 1.6094519999999999 1.079902 -0.52955
132.62109375 1.5204680000000002 0.87 -0.650468
133.46875 1.085253 0.001875 -1.083378
134.01953125 1.059244 0.594964 -0.46428
135.19140625 0.904399 0.594406 -0.309993
135.71484375 1.190331 0.09 -1.100331
137.03125 0.978067 0.558814 -0.419253
137.57421875 0.944747 -0.004008 -0.948755
138.9609375 0.8845149999999999 0.48995 -0.394565
139.53125 0.78267 -0.107083 -0.889753
140.90234375 0.716071 0.456282 -0.259789
141.43359375 0.678651 -0.076333 -0.754984
141.64453125 0.8149839999999999 0.06 -0.754984
142.73046875 0.8160000000000001 0.449972 -0.366028
143.2734375 0.6208859999999999 -0.204114 -0.825
144.69140625 0.8588290000000001 0.459115 -0.399714
145.37109375 0.36346599999999996 -0.586534 -0.95
146.625 0.969278 0.565 -0.404278
147.34375 0.963711 0.012656 -0.951055
148.53125 0.978802 0.632 -0.346802
149.23046875 1.0631220000000001 0.064986 -0.998136
150.4453125 1.02812 0.627886 -0.400234
151.203125 1.0215779999999999 0.076578 -0.945
152.41015625 1.0232189999999999 0.623365 -0.399854
153.14453125 0.945553 0.074971 -0.870582
154.328125 1.05854 0.665 -0.39354
156.296875 1.037559 0.737559 -0.3
157.0546875 1.105812 0.162144 -0.943668
158.26171875 1.094415 0.774415 -0.32
158.9921875 1.424111 0.266384 -1.157727
160.18359375 1.076858 0.647988 -0.42887
160.90234375 1.322396 0.182396 -1.14
162.140625 0.8450500000000001 0.460361 -0.384689
162.88671875 1.313947 0.096508 -1.217439
164.13671875 0.856267 0.456267 -0.4
164.86328125 1.610047 0.178718 -1.431329
166.0703125 0.8969480000000001 0.413856 -0.483092
166.76953125 1.404978 0.144978 -1.26
168.03125 0.7556620000000001 0.334609 -0.421053
168.78515625 1.7925840000000002 0.14 -1.652584
170.05078125 0.912334 0.507233 -0.405101
170.75390625 1.3777039999999998 0.02778 -1.349924
171.98046875 0.963883 0.539994 -0.423889
172.68359375 1.312939 0.074689 -1.23825
173.89453125 1.089918 0.594918 -0.495
174.6171875 1.2067750000000002 -0.083203 -1.289978
175.8984375 1.1129760000000002 0.578431 -0.534545
176.609375 1.2106180000000002 -0.017656 -1.228274
177.8671875 1.041604 0.576604 -0.465
178.55859375 1.1902620000000002 0.005937 -1.184325
179.8046875 1.001674 0.52116 -0.480514
180.39453125 0.775469 -0.421166 -1.196635
181.828125 1.081287 0.583384 -0.497903
182.51953125 0.7731680000000001 -0.258832 -1.032
183.76953125 1.0252780000000001 0.485278 -0.54
184.4609375 0.9723419999999999 -0.207658 -1.18
185.72265625 0.8892869999999999 0.355 -0.534287
186.44140625 0.7819049999999999 -0.348095 -1.13
187.75390625 0.78257 0.32893 -0.45364
188.4609375 0.748549 -0.231204 -0.979753
189.7265625 0.890561 0.474936 -0.415625
190.2578125 0.6747289999999999 -0.285271 -0.96
191.65625 0.990306 0.502132 -0.488174
192.23046875 0.6699999999999999 -0.305 -0.975
192.44140625 0.8398319999999999 -0.135168 -0.975
193.703125 1.116544 0.615 -0.501544
194.2578125 0.6126910000000001 -0.26558 -0.878271
195.6484375 1.135156 0.688303 -0.446853
196.2109375 0.765449 -0.135106 -0.900555
197.58984375 1.133008 0.662267 -0.470741
198.16796875 0.6648750000000001 -0.17139 -0.836265
199.625 1.1357490000000001 0.65 -0.485749
200.19140625 0.6147910000000001 -0.135152 -0.749943
201.61328125 0.937854 0.538181 -0.399673
202.15234375 0.608129 -0.211147 -0.819276
203.5546875 0.5940920000000001 0.27364 -0.320452
204.13671875 0.519763 -0.265 -0.784763
205.60546875 1.063437 0.604573 -0.458864
206.15234375 0.69482 -0.170151 -0.864971
207.5703125 0.6740440000000001 0.319736 -0.354308
208.1015625 0.44085899999999995 -0.216316 -0.657175
209.51953125 0.569201 0.229971 -0.33923
210.1015625 0.660195 -0.196859 -0.857054
211.58984375 1.050213 0.61043 -0.439783
212.1640625 0.726618 -0.145063 -0.871681
213.57421875 1.1068259999999999 0.62788 -0.478946
214.10546875 0.779396 -0.175057 -0.954453
215.51171875 1.0841749999999999 0.674372 -0.409803
216.08203125 0.748262 -0.131682 -0.879944
217.5859375 1.1099999999999999 0.6 -0.51
218.1328125 0.694435 -0.225208 -0.919643
219.57421875 1.079681 0.527075 -0.552606
220.1328125 0.729576 -0.235 -0.964576
221.51953125 1.094959 0.624959 -0.47
222.1015625 0.873513 -0.10613 -0.979643
223.5859375 1.06512 0.541054 -0.524066
224.15625 0.7258659999999999 -0.27043 -0.996296
225.58984375 0.9935729999999999 0.525345 -0.468228
226.12890625 0.858368 -0.135 -0.993368
227.52734375 0.966011 0.45 -0.516011
228.109375 0.76 -0.215 -0.975
229.56640625 1.011447 0.499545 -0.511902
230.11328125 0.7835369999999999 -0.186092 -0.969629
231.54296875 0.991642 0.496697 -0.494945
232.09375 0.6780379999999999 -0.255937 -0.933975
233.5078125 0.9358770000000001 0.598404 -0.337473
234.07421875 0.846145 -0.072593 -0.918738
235.57421875 0.885187 0.552407 -0.33278
236.14453125 0.882449 -0.015022 -0.897471
237.54296875 0.852663 0.566074 -0.286589
238.08984375 0.838028 0.012477 -0.825551
239.48828125 0.9046210000000001 0.545 -0.359621
240.0625 0.7784380000000001 -0.031562 -0.81
240.71484375 0.65971 0.32471 -0.335
241.85546875 1.1679549999999999 -0.055017 -1.222972
242.35546875 1.105292 0.295441 -0.809851
242.703125 0.6197849999999999 -0.210215 -0.83
242.9375 0.6696089999999999 -0.160391 -0.83
243.38671875 1.5184189999999997 0.508774 -1.009645
243.72265625 1.458769 0.519844 -0.938925
244.0546875 1.125939 0.409377 -0.716562
244.5390625 0.07275399999999999 -0.59 -0.662754
245.05859375 0.963689 0.644779 -0.31891
245.2890625 0.050495999999999985 -0.439504 -0.49
245.57421875 0.029876000000000014 -0.53 -0.559876
245.8046875 0.934496 0.558352 -0.376144
246.296875 0.8371959999999999 -0.165439 -1.002635
249.66796875 0.547282 0.052927 -0.494355
250.75 0.46493700000000004 -0.225 -0.689937
251.22265625 0.566541 -0.200959 -0.7675
251.640625 1.1038540000000001 0.017252 -1.086602
252.00390625 0.947423 0.027566 -0.919857
252.359375 0.7668240000000001 0.032803 -0.734021
252.66796875 0.7315159999999999 0.166516 -0.565
253.02734375 0.606123 0.163575 -0.442548
253.5078125 0.334275 0.060923 -0.273352
253.82421875 0.235135 0.150791 -0.084344
254.1484375 0.191332 0.316332 0.125
254.58984375 0.8714729999999999 0.618169 -0.253304
254.90234375 1.043531 0.608531 -0.435
255.20703125 1.161241 0.691241 -0.47
255.5234375 0.45833300000000005 0.62665 0.168317
255.828125 1.274623 0.679785 -0.594838
256.1328125 0.368354 0.609105 0.240751
256.43359375 0.41052200000000005 0.55 0.139478
256.68359375 0.644964 0.221892 -0.423072
256.98828125 0.275084 0.295 0.019916
257.45703125 0.09339000000000003 -0.398754 -0.492144
257.765625 0.11945500000000003 -0.353093 -0.472548
258.19921875 0.778292 0.322961 -0.455331
258.50390625 0.816503 0.36 -0.456503
258.72265625 0.129506 -0.238925 -0.368431
259.12109375 0.05998600000000001 0.22 0.160014
259.48828125 0.904011 0.514667 -0.389344
259.734375 0.04559400000000002 -0.207285 -0.252879
259.984375 0.114689 0.0050 -0.109689
260.31640625 1.624259 0.279259 -1.345
260.703125 1.6966780000000001 0.419734 -1.276944
262.23046875 1.171674 -0.195063 -1.366737
262.9921875 0.52883 -0.015 -0.54383
264.53515625 1.2602119999999999 -0.238634 -1.498846
265.546875 1.389976 -0.210904 -1.60088
266.53125 1.388916 -0.025781 -1.414697
267.1171875 2.055108 1.214777 -0.840331
267.49609375 2.043316 1.109066 -0.93425
269.265625 1.135655 0.12415 -1.011505
269.70703125 2.317078 0.807078 -1.51
270.125 0.7843680000000001 -0.1 -0.884368
270.35546875 1.575 0.6 -0.975
270.68359375 0.14046400000000003 0.804689 0.664225
271.01953125 1.9214639999999998 0.994964 -0.9265
271.36328125 0.67499 0.869148 0.194158
271.6640625 1.177446 0.590845 -0.586601
271.88671875 0.11010899999999998 -0.093644 -0.203753
272.2109375 0.142536 0.143871 0.001335
272.5234375 0.06254699999999999 0.085742 0.023195
272.8203125 0.042932000000000005 -0.037319 -0.080251
273.03125 0.13544699999999998 -0.150795 -0.286242
273.41015625 0.202395 -0.176168 -0.378563
273.74609375 0.743192 0.183979 -0.559213
274.0 1.0273700000000001 0.23 -0.79737
274.296875 0.267587 0.262587 -0.0050
274.59375 0.491283 0.372025 -0.119258
274.94921875 0.21885099999999996 -0.251149 -0.47
275.18359375 0.172154 -0.005168 -0.177322
275.4921875 0.082748 0.056493 -0.026255
275.94140625 0.389822 -0.048042 -0.437864
276.234375 0.203835 -0.067178 -0.271013
276.546875 0.20622300000000002 0.14 -0.066223
276.94140625 1.614002 0.889725 -0.724277
277.2421875 1.278168 0.589681 -0.688487
277.6484375 0.12893500000000002 -0.716065 -0.845
278.08203125 1.5649830000000002 0.535 -1.029983
278.53125 0.16718 -0.783328 -0.950508
278.82421875 0.18612499999999998 -0.737221 -0.923346
279.296875 1.3319649999999998 0.80377 -0.528195
279.7265625 1.345529 0.196091 -1.149438
280.43359375 1.017426 0.154766 -0.86266
281.8046875 0.9793050000000001 1.044445 0.06514
0.0 2.951562 -1.0 -3.951562
0.0 2.082257 -1.0 -3.082257
285.59375 1.1987230000000002 -0.787179 -1.985902
286.4375 1.224171 -0.341563 -1.565734
287.2578125 1.0479079999999998 -0.07861 -1.126518
288.1328125 1.114731 0.334753 -0.779978
288.46484375 0.907678 1.333753 0.426075
288.98046875 1.0284900000000001 0.334978 -0.693512
289.8203125 1.215699 -0.057445 -1.273144
290.4609375 1.216939 0.919978 -0.296961
291.44140625 1.1949969999999999 -0.133085 -1.328082
292.2265625 1.1387079999999998 -0.601136 -1.739844
293.0 1.2832059999999998 -0.35 -1.633206
293.79296875 1.380111 0.181086 -1.199025
294.47265625 1.326013 0.451481 -0.874532
295.47265625 1.123231 -0.43 -1.553231
296.12109375 1.3614789999999999 -0.217896 -1.579375
297.06640625 1.4159570000000001 0.749779 -0.666178
297.8515625 1.157022 -0.351708 -1.50873
298.61328125 1.258354 -0.289142 -1.547496
299.25390625 1.178474 -0.606899 -1.785373
300.15234375 1.008295 -0.83155 -1.839845
300.9375 0.7854019999999999 -0.943214 -1.728616
301.69140625 0.6730370000000001 -0.595124 -1.268161
302.44921875 0.8397699999999999 -0.166652 -1.006422
303.1875 1.068952 0.2235 -0.845452
303.9375 1.006084 0.093437 -0.912647
304.67578125 1.137827 0.192108 -0.945719
305.3984375 1.193187 0.313187 -0.88
306.15234375 1.315698 0.431348 -0.88435
306.94921875 1.352354 0.345994 -1.00636
307.5703125 1.288576 0.273576 -1.015
308.46875 1.3599999999999999 0.015 -1.345
309.2109375 1.334962 -0.075992 -1.410954
309.91796875 1.3818780000000002 0.131296 -1.250582
310.65234375 1.3544200000000002 -0.255 -1.60942
311.3671875 1.383753 -0.415247 -1.799
312.140625 1.2923879999999999 -0.327319 -1.619707
312.9296875 1.399719 -0.110711 -1.51043
313.66796875 1.5272240000000001 0.44361 -1.083614
314.421875 1.388461 0.697131 -0.69133
315.16015625 1.3744109999999998 0.574892 -0.799519
315.90625 1.3857789999999999 0.281094 -1.104685
316.6484375 1.4588700000000001 0.21387 -1.245
317.20703125 1.444588 -0.030397 -1.474985
318.11328125 1.423769 -0.290852 -1.714621
318.8984375 1.514634 -0.284067 -1.798701
319.67578125 1.445939 -0.401328 -1.847267
320.4140625 1.4696040000000001 -0.23006 -1.699664
321.15234375 1.485957 -0.370552 -1.856509
321.74609375 1.590126 -0.279098 -1.869224
322.609375 1.580422 -0.43457 -2.014992
323.3359375 2.31574 0.402296 -1.913444
324.06640625 1.517642 0.116688 -1.400954
324.86328125 1.785545 0.089208 -1.696337
325.63671875 1.636772 0.301526 -1.335246
326.34375 1.623206 0.348206 -1.275
327.078125 1.608046 0.153046 -1.455
327.63671875 1.619855 -0.017998 -1.637853
328.3046875 1.750056 0.025673 -1.724383
328.94140625 1.557077 0.089389 -1.467688
329.61328125 1.498586 -0.008883 -1.507469
329.83984375 1.588048 0.080579 -1.507469
330.4609375 1.602517 0.144379 -1.458138
331.05078125 1.710633 0.352155 -1.358478
331.87890625 1.6776140000000002 0.013125 -1.664489
332.578125 1.431982 -0.10543 -1.537412
333.12109375 1.5509970000000002 -0.059003 -1.61
333.74609375 1.562935 -7.33E-4 -1.563668
334.46484375 1.509104 -0.161289 -1.670393
335.15234375 1.4488729999999999 -0.326038 -1.774911
335.984375 1.246785 -0.717197 -1.963982
336.75390625 1.265492 -0.717479 -1.982971
337.47265625 1.258706 -0.645984 -1.90469
338.16796875 1.3067799999999998 -0.227996 -1.534776
338.91015625 1.325887 -0.123634 -1.449521
339.5859375 1.374811 -0.085189 -1.46
340.33203125 1.305607 -0.144393 -1.45
341.05078125 1.257038 0.175964 -1.081074
341.80078125 1.302918 -0.291269 -1.594187
342.62109375 1.150499 -0.39172 -1.542219
343.42578125 1.153344 -0.165964 -1.319308
344.21484375 1.157343 -0.056138 -1.213481
344.97265625 1.158857 -0.48 -1.638857
345.73046875 1.2370329999999998 -0.280528 -1.517561
346.48828125 1.1461629999999998 -0.163774 -1.309937
347.25 1.20593 -0.155 -1.36093
348.03515625 1.164008 -0.035746 -1.199754
348.81640625 1.2472029999999998 -0.065317 -1.31252
349.44921875 1.2077680000000002 0.752407 -0.455361
350.21484375 1.210613 -0.302216 -1.512829
351.1171875 1.222014 -0.490923 -1.712937
351.8828125 1.2984120000000001 -0.175447 -1.473859
352.484375 1.1717140000000001 0.245293 -0.926421
353.3671875 1.24193 -0.162782 -1.404712
354.1484375 1.2598820000000002 -0.24178 -1.501662
354.953125 1.21637 -0.23543 -1.4518
355.73046875 1.269842 0.159946 -1.109896
356.484375 1.2163840000000001 -0.223496 -1.43988
357.1015625 1.155197 -0.316859 -1.472056
357.984375 1.206772 -0.485996 -1.692768
358.71484375 1.179559 -0.317523 -1.497082
359.484375 1.275781 -0.079219 -1.355
360.27734375 1.222507 0.174826 -1.047681
361.078125 1.215818 -0.003375 -1.219193
361.6640625 1.198816 -0.220324 -1.41914
361.8828125 1.263932 -0.155208 -1.41914
362.4296875 1.270464 -0.456029 -1.726493
363.3515625 1.1982490000000001 -0.43613 -1.634379
364.1328125 1.260702 -0.35392 -1.614622
364.8359375 1.3351169999999999 -0.005146 -1.340263
365.61328125 1.289008 -0.041226 -1.330234
366.4140625 1.384138 0.464751 -0.919387
367.04296875 1.32765 0.004532 -1.323118
367.98046875 1.357046 -0.125024 -1.48207
368.609375 1.340277 -0.072441 -1.412718
369.51171875 1.413041 -0.205692 -1.618733
370.2578125 1.461234 0.109105 -1.352129
371.01171875 1.428812 -0.165333 -1.594145
371.79296875 1.403362 -0.086218 -1.48958
372.59375 1.395 -0.04 -1.435
373.375 1.434918 -0.01 -1.444918
374.15625 1.40568 0.07368 -1.332
374.92578125 1.432699 -0.026928 -1.459627
375.69140625 1.454561 -0.135401 -1.589962
376.44140625 1.3831229999999999 -0.160057 -1.54318
377.2109375 1.4245400000000001 -0.190027 -1.614567
377.99609375 1.3995980000000001 -0.257121 -1.656719
378.80859375 1.3488699999999998 -0.39 -1.73887
379.62890625 1.455829 -0.369239 -1.825068
380.421875 1.445909 -0.077275 -1.523184
381.17578125 1.4328020000000001 -0.137103 -1.569905
381.94140625 1.448509 -0.10006 -1.548569
382.69140625 1.453792 -0.055251 -1.509043
383.44140625 1.43234 -0.025586 -1.457926
384.27734375 1.467934 0.274276 -1.193658
384.9609375 1.439823 -0.420143 -1.859966
385.89453125 1.428668 -0.950038 -2.378706
386.69140625 1.2462749999999998 -0.605128 -1.851403
387.5078125 1.3499180000000002 -0.15 -1.499918
388.13671875 1.328476 0.007635 -1.320841
389.0234375 1.3336839999999999 -0.116316 -1.45
389.83984375 1.368003 -0.066997 -1.435
390.65234375 1.451867 0.253145 -1.198722
391.50390625 1.42427 0.217951 -1.206319
392.3203125 1.434742 0.140754 -1.293988
393.1015625 1.4413 0.237368 -1.203932
393.875 1.4198110000000002 0.13 -1.289811
394.6640625 1.463714 0.046562 -1.417152
395.45703125 1.4224770000000002 -0.082569 -1.505046
396.29296875 1.4241789999999999 -0.225397 -1.649576
397.1171875 1.336793 -0.110956 -1.447749
397.92578125 1.333208 -0.171135 -1.504343
398.73828125 1.371758 -0.231455 -1.603213
399.52734375 1.331723 -0.176474 -1.508197
400.3359375 1.339945 -0.225055 -1.565
401.1171875 1.366914 -0.165233 -1.532147
401.90234375 1.28448 -0.185409 -1.469889
402.75 1.294795 -0.195 -1.489795
403.60546875 1.2755269999999999 -0.185043 -1.46057
404.4140625 1.280457 -0.445057 -1.725514
405.21875 1.3372 -0.405 -1.7422
406.0234375 1.30132 -0.242966 -1.544286
406.7890625 1.329303 -0.140281 -1.469584
407.59375 1.314942 -0.125 -1.439942
408.45703125 1.3487310000000001 0.066119 -1.282612
409.3046875 1.323845 0.028725 -1.29512
410.12109375 1.383484 -0.091167 -1.474651
410.9375 1.369068 -0.130156 -1.499224
411.7421875 1.37627 -0.070895 -1.447165
412.5390625 1.376327 -0.155076 -1.531403
413.3125 1.311332 -0.141119 -1.452451
414.1171875 1.3247120000000001 -0.24 -1.564712
414.94921875 1.310505 0.031599 -1.278906
415.6171875 1.4755669999999999 0.515 -0.960567
416.43359375 1.299804 -0.009363 -1.309167
417.3671875 1.236141 -0.26 -1.496141
418.1328125 1.250753 -0.075895 -1.326648
418.9140625 1.466155 -0.00687 -1.473025
419.15625 2.276371 2.035024 -0.241347
419.55078125 1.234418 -0.686698 -1.921116
419.76953125 1.3111160000000002 -0.61 -1.921116
420.3984375 1.3136960000000002 0.675 -0.638696
0.0 1.4819079999999998 -1.0 -2.481908
422.14453125 1.311596 -0.719533 -2.031129
422.91796875 1.3104080000000002 -0.488131 -1.798539
423.69921875 1.419713 -0.193098 -1.612811
424.47265625 1.330133 -0.21 -1.540133
425.21484375 1.32568 -0.122647 -1.448327
426.01171875 1.3485260000000001 -0.055 -1.403526
426.84765625 1.367736 -0.007861 -1.375597
427.66015625 1.345567 0.020721 -1.324846
428.43359375 1.406728 -0.035371 -1.442099
429.19921875 1.4269370000000001 0.062108 -1.364829
429.96484375 1.360528 0.024706 -1.335822
430.69921875 1.358714 0.03 -1.328714
431.484375 1.370153 -0.069746 -1.439899
432.30078125 1.337076 -9.64E-4 -1.33804
433.09765625 1.3040939999999999 0.009844 -1.29425
433.89453125 1.313078 -0.054737 -1.367815
434.6796875 1.307801 0.012528 -1.295273
435.46484375 1.337257 -0.02 -1.357257
436.2265625 1.2900070000000001 0.020191 -1.269816
436.96484375 1.348335 -0.065 -1.413335
437.73046875 1.2899 -0.085014 -1.374914
438.53125 1.2681310000000001 -0.045469 -1.3136
439.34765625 1.310957 -0.096147 -1.407104
440.1484375 1.3664049999999999 -0.146495 -1.5129
440.92578125 1.3612140000000001 -0.146272 -1.507486
441.67578125 1.403242 -0.101135 -1.504377
442.4296875 1.299028 -0.04616 -1.345188
443.2109375 1.3638560000000002 -0.145112 -1.508968
444.015625 1.928275 0.806543 -1.121732
444.640625 1.337409 -0.841992 -2.179401
445.42578125 1.2764560000000003 -0.920186 -2.196642
446.36328125 1.3667669999999998 -0.328135 -1.694902
447.10546875 1.370932 -0.125022 -1.495954
447.875 1.364282 0.025 -1.339282
448.625 1.2827849999999998 0.025 -1.257785
449.375 1.234626 0.05 -1.184626
450.1640625 1.249079 -0.059486 -1.308565
450.99609375 1.23449 0.190866 -1.043624
451.76953125 1.208626 0.15995 -1.048676
452.53125 1.338775 0.144063 -1.194712
453.14453125 1.229847 0.004942 -1.224905
454.02734375 1.3496679999999999 0.084865 -1.264803
454.77734375 1.274861 -1.39E-4 -1.275
455.578125 1.305355 -0.025495 -1.33085
456.37890625 1.3199889999999999 -0.225567 -1.545556
457.16796875 1.338034 -0.006942 -1.344976
457.94921875 1.329431 -0.02049 -1.349921
458.7265625 1.322456 -0.061526 -1.383982
459.4921875 1.300914 -0.042164 -1.343078
460.2421875 1.3144289999999998 -0.33 -1.644429
460.95703125 1.297025 -0.262975 -1.56
461.6015625 1.404585 -0.015879 -1.420464
462.55078125 1.37171 0.17 -1.20171
463.3359375 1.324134 0.13 -1.194134
464.12109375 1.4832969999999999 0.213142 -1.270155
464.8828125 1.422161 0.117161 -1.305
465.51953125 1.459189 0.174855 -1.284334
466.390625 1.6022210000000001 0.067172 -1.535049
467.140625 1.510121 -0.028239 -1.53836
467.94140625 1.4966599999999999 -0.221546 -1.718206
468.7109375 1.477655 -0.363936 -1.841591
469.50390625 1.429594 -0.338907 -1.768501
470.25390625 1.534022 0.366789 -1.167233
471.01953125 1.517852 0.329667 -1.188185
471.640625 1.371739 -0.002441 -1.37418
472.3828125 1.5057770000000001 -0.161274 -1.667051
473.0859375 1.463109 -0.2605 -1.723609
474.0390625 1.621946 -0.160143 -1.782089
474.703125 1.4294689999999999 0.074469 -1.355
475.640625 1.9392710000000002 0.485561 -1.45371
476.40625 1.640578 -0.024273 -1.664851
477.125 1.5236809999999998 0.595 -0.928681
477.875 1.6296059999999999 -0.09 -1.719606
478.6328125 1.767029 -0.048345 -1.815374
479.21875 1.851212 0.030192 -1.82102
480.16796875 1.62209 -0.143578 -1.765668
480.94921875 1.64868 -0.214234 -1.862914
481.73046875 1.712781 -0.110622 -1.823403
482.5 1.72 -0.05 -1.77
483.11328125 1.734529 -0.066391 -1.80092
484.03125 1.7420660000000001 -0.485781 -2.227847
484.734375 1.6800540000000002 -0.422319 -2.102373
485.51953125 1.624142 -0.330043 -1.954185
486.3203125 1.573523 -0.333479 -1.907002
487.1171875 1.559498 -0.40058 -1.960078
487.9140625 1.559343 -0.345 -1.904343
488.68359375 1.546803 -0.100084 -1.646887
489.43359375 1.573268 0.204806 -1.368462
490.19921875 1.642731 0.289002 -1.353729
490.9296875 1.616489 0.844873 -0.771616
491.5625 1.972014 0.20125 -1.770764
492.53125 1.6304260000000002 -0.693281 -2.323707
493.30859375 1.5426230000000003 -0.690282 -2.232905
494.09375 1.602031 -0.312969 -1.915
494.6953125 1.917017 0.562144 -1.354873
495.64453125 1.6231550000000001 -0.985038 -2.608193
496.39453125 1.6438469999999998 -0.405022 -2.048869
497.140625 1.594992 -0.327806 -1.922798
497.94140625 1.619314 1.466575 -0.152739
498.59375 1.4864920000000001 0.674 -0.812492
498.8125 1.502492 0.69 -0.812492
499.40234375 1.502723 0.41 -1.092723
0.0 2.409536 -1.0 -3.409536
0.0 1.8958339999999998 -1.0 -2.895834
501.83984375 1.556539 -0.683945 -2.240484
502.60546875 1.536203 -0.305878 -1.842081
503.35546875 1.518968 -0.06006 -1.579028
504.16796875 1.598325 0.229278 -1.369047
504.9765625 1.535981 -0.341226 -1.877207
505.7578125 1.4543629999999999 -0.390637 -1.845
506.5546875 1.434215 -0.156978 -1.591193
507.32421875 1.464922 -0.135 -1.599922
508.07421875 1.422026 -0.12049 -1.542516
508.80078125 1.423592 -0.06 -1.483592
509.60546875 1.475528 -0.030017 -1.505545
510.40234375 1.412553 -0.026038 -1.438591
511.2109375 1.3848319999999998 -0.190168 -1.575
512.0078125 1.3993149999999999 0.015 -1.384315
512.78125 1.4032999999999998 -0.2025 -1.6058
513.53515625 1.463469 0.004276 -1.459193
514.3046875 1.3564559999999999 0.002144 -1.354312
515.0625 1.367208 -0.335 -1.702208
515.8515625 1.3566660000000001 -0.03815 -1.394816
516.65234375 1.3566850000000001 0.039263 -1.317422
517.45703125 1.51861 0.15861 -1.36
518.06640625 1.444875 1.66 0.215125
518.27734375 0.02994399999999997 1.8 1.770056
0.0 1.4249999999999998 -1.0 -2.425
519.8046875 1.3515130000000002 -0.757856 -2.109369
520.56640625 1.3691399999999998 -0.385552 -1.754692
521.31640625 1.423255 -0.149491 -1.572746
522.1328125 1.3864859999999999 0.228616 -1.15787
522.94921875 1.329116 -0.05 -1.379116
523.74609375 1.384848 0.037566 -1.347282
524.51171875 1.431425 0.14 -1.291425
525.28125 1.407551 0.48 -0.927551
526.0625 1.447386 0.046667 -1.400719
526.81640625 1.465887 -0.135 -1.600887
527.59765625 1.3966399999999999 -0.118745 -1.515385
528.4140625 1.4226199999999998 -0.38 -1.80262
529.2265625 1.4694280000000002 -0.41315 -1.882578
530.0234375 1.470196 0.035847 -1.434349
530.828125 1.419349 0.27957 -1.139779
531.609375 1.3888509999999998 0.222681 -1.16617
532.36328125 1.378053 0.149148 -1.228905
533.12890625 1.3931930000000001 0.180042 -1.213151
533.77734375 1.4066679999999998 -0.111792 -1.51846
534.765625 1.4267530000000002 -0.200254 -1.627007
535.59765625 1.445577 -0.060191 -1.505768
536.36328125 1.3925740000000002 0.068774 -1.3238
537.14453125 1.402641 -0.165051 -1.567692
537.92578125 1.3751689999999999 -0.202946 -1.578115
538.7109375 1.434205 -0.050125 -1.48433
539.4921875 1.3534110000000001 -0.075 -1.428411
540.3203125 1.402428 -0.25158 -1.654008
541.140625 1.381885 -0.241328 -1.623213
541.94140625 1.3880730000000001 -0.235442 -1.623515
542.7421875 1.3800510000000001 -0.187069 -1.56712
543.54296875 1.394657 -0.168365 -1.563022
544.30859375 1.328411 -0.130371 -1.458782
545.07421875 1.363876 -0.088072 -1.451948
545.890625 1.301449 -0.127197 -1.428646
546.73828125 1.329186 -0.126954 -1.45614
547.5703125 1.334073 -0.277733 -1.611806
548.35546875 1.403369 -0.135322 -1.538691
549.140625 1.339557 0.122559 -1.216998
549.92578125 1.2931329999999999 0.074415 -1.218718
550.703125 1.264084 0.039355 -1.224729
551.515625 1.3133920000000001 -0.025 -1.338392
552.35546875 1.2901449999999999 -0.109766 -1.399911
553.18359375 1.28251 -0.172966 -1.455476
553.9921875 1.239568 -0.225247 -1.464815
554.83203125 1.301688 -0.381994 -1.683682
555.609375 1.270566 -0.365 -1.635566
556.3828125 1.2826170000000001 -0.001672 -1.284289
557.16796875 1.24509 -0.139532 -1.384622
558.00390625 1.2693919999999999 -0.25361 -1.523002
558.8515625 1.2663929999999999 -0.171226 -1.437619
559.66796875 1.210437 -0.128754 -1.339191
560.484375 1.293991 -0.125879 -1.41987
561.28125 1.241379 -0.1 -1.341379
562.08203125 1.25283 -0.092925 -1.345755
562.86328125 1.201791 -0.230645 -1.432436
563.6640625 1.237766 -0.205025 -1.442791
564.515625 1.182255 -0.13 -1.312255
565.328125 1.175808 -0.100215 -1.276023
566.015625 1.2698589999999998 0.045737 -1.224122
566.96484375 1.2594500000000002 -0.062733 -1.322183
567.75 1.17915 -0.04 -1.21915
568.515625 1.23579 -0.054219 -1.290009
569.296875 1.18808 -0.045742 -1.233822
570.15234375 1.19876 -0.061038 -1.259798
571.0078125 1.2440950000000002 -0.109406 -1.353501
571.6640625 1.2 -0.23 -1.43
572.61328125 1.209442 -0.216839 -1.426281
573.4140625 1.2095029999999998 -0.200168 -1.409671
574.2109375 1.210672 -0.23 -1.440672
574.9921875 1.264561 -0.200247 -1.464808
575.8046875 1.247431 0.144736 -1.102695
576.62890625 1.3009819999999999 -0.44361 -1.744592
577.4609375 1.272433 -0.500032 -1.772465
578.28515625 1.29121 -0.293634 -1.584844
579.078125 1.319244 -0.374307 -1.693551
579.84375 1.30782 -0.374286 -1.682106
580.625 1.309413 -0.175 -1.484413
581.41015625 1.342002 -0.367733 -1.709735
582.24609375 1.280084 -0.33361 -1.613694
583.1015625 1.3155169999999998 -0.118135 -1.433652
583.91015625 1.331936 -0.242894 -1.57483
584.70703125 1.353044 -0.271682 -1.624726
585.5078125 1.3302209999999999 -0.111617 -1.441838
586.3046875 1.352801 -0.286872 -1.639673
587.1015625 1.404582 -0.285981 -1.690563
587.921875 1.409354 -0.160339 -1.569693
588.60546875 1.3845290000000001 -0.13001 -1.514539
589.58203125 1.443134 -0.174636 -1.61777
590.40234375 1.453638 -0.230737 -1.684375
591.1875 1.422673 -0.029 -1.451673
592.0 1.443527 -0.275 -1.718527
592.75390625 1.4381709999999999 -0.176152 -1.614323
593.5859375 1.44166 -0.010088 -1.451748
594.44140625 1.524748 0.145 -1.379748
595.1328125 1.523703 0.104239 -1.419464
596.0859375 1.4307709999999998 -0.619229 -2.05
596.9140625 1.428788 -0.474937 -1.903725
597.7109375 1.5141120000000001 -2.81E-4 -1.514393
598.515625 1.515686 -0.459141 -1.974827
599.30078125 1.4607139999999998 -0.359036 -1.81975
600.13671875 1.4517060000000002 -0.187153 -1.638859
600.984375 1.440858 -0.11 -1.550858
601.84765625 1.507468 -0.273838 -1.781306
602.6640625 1.486571 -0.24 -1.726571
603.44921875 1.486739 -0.235 -1.721739
604.24609375 1.480279 -0.183456 -1.663735
605.046875 1.49347 -0.235098 -1.728568
605.89453125 1.469986 -0.140014 -1.61
606.77734375 1.4622810000000002 -0.151406 -1.613687
607.61328125 1.46774 -0.136226 -1.603966
608.44140625 1.463802 -0.125494 -1.589296
609.26953125 1.449927 -0.070014 -1.519941
610.09375 1.496094 -0.048906 -1.545
610.890625 1.481763 -0.090748 -1.572511
611.7109375 1.4649320000000001 -0.085068 -1.55
612.5625 1.464343 -0.131667 -1.59601
613.42578125 1.4488379999999998 -0.133067 -1.581905
614.2578125 1.453368 -0.171042 -1.62441
615.09375 1.436549 -0.194219 -1.630768
615.91015625 1.485152 -0.21 -1.695152
616.69140625 1.437941 -0.160371 -1.598312
617.5390625 1.45325 -0.005063 -1.458313
618.41796875 1.4719950000000002 -0.059659 -1.531654
619.2734375 1.490071 -0.357034 -1.847105
620.109375 1.4698989999999998 -0.275 -1.744899
620.9453125 1.480216 -0.089639 -1.569855
621.75390625 1.439424 -0.075 -1.514424
622.58984375 1.4326699999999999 -0.328634 -1.761304
623.40234375 1.39789 -0.330959 -1.728849
624.26953125 1.4299950000000001 -0.18 -1.609995
625.140625 1.407389 1.79E-4 -1.40721
625.85546875 1.3721670000000001 -0.145017 -1.517184
626.8359375 1.4448750000000001 -0.210125 -1.655
627.66015625 1.4014250000000001 -0.106733 -1.508158
628.47265625 1.416467 -0.03164 -1.448107
629.2890625 1.384801 -0.180141 -1.564942
630.16796875 1.405 -0.22 -1.625
631.05078125 1.434958 -0.14 -1.574958
631.90625 1.396699 -0.156562 -1.553261
632.73828125 1.457999 -0.136866 -1.594865
633.56640625 1.390741 -0.2 -1.590741
634.390625 1.366933 -0.262686 -1.629619
635.19921875 1.3707319999999998 -0.079036 -1.449768
636.046875 1.535563 0.338792 -1.196771
636.9296875 1.3836549999999999 -0.310656 -1.694311
637.78125 1.375538 -0.143437 -1.518975
638.62890625 1.36569 -0.223171 -1.588861
639.44921875 1.3945450000000001 -0.2 -1.594545
640.26953125 1.370898 -0.114957 -1.485855
641.08203125 1.427972 -0.213881 -1.641853
641.96484375 1.365984 -0.24 -1.605984
642.84375 1.424539 -0.168625 -1.593164
643.68359375 1.3085259999999999 -0.119299 -1.427825
644.5234375 1.330361 0.018187 -1.312174
645.34375 1.332333 0.057969 -1.274364
646.18359375 1.3449170000000001 0.059749 -1.285168
647.01171875 1.348793 -0.076559 -1.425352
647.8515625 1.3790060000000002 -0.166065 -1.545071
648.74609375 1.354482 -0.265 -1.619482
649.6484375 1.344683 -0.214067 -1.55875
650.48046875 1.388577 -0.135 -1.523577
651.32421875 1.394088 -0.14583 -1.539918
652.125 1.4431019999999999 -0.145 -1.588102
652.9296875 1.380696 -0.115 -1.495696
653.80859375 1.451265 -0.150247 -1.601512
654.69140625 1.3912110000000002 -0.180168 -1.571379
655.55859375 1.476586 -0.155275 -1.631861
656.390625 1.435715 -0.117686 -1.553401
657.22265625 1.428674 -0.105 -1.533674
658.04296875 1.369952 -0.187781 -1.557733
658.87109375 1.347056 -0.025831 -1.372887
659.70703125 1.380414 -0.142266 -1.52268
660.58984375 1.3841510000000001 -0.050849 -1.435
661.453125 1.284074 -0.110215 -1.394289
662.3203125 1.372933 -0.092548 -1.465481
663.15234375 1.332752 -0.040519 -1.373271
663.9609375 1.36944 0.220537 -1.148903
664.76953125 1.332198 0.225278 -1.10692
665.65234375 1.28985 0.328136 -0.961714
666.3671875 1.243686 -0.095 -1.338686
667.3984375 1.298834 -0.40678 -1.705614
668.0859375 1.223708 -0.390237 -1.613945
669.08203125 1.258394 -0.339797 -1.598191
669.93359375 1.29075 -0.170084 -1.460834
670.75 1.253727 -0.05 -1.303727
671.6015625 1.4240080000000002 -0.060992 -1.485
672.34765625 1.311655 0.349318 -0.962337
673.24609375 1.33268 -0.281315 -1.613995
674.26171875 1.336028 -0.508972 -1.845
675.09765625 1.291162 -0.243838 -1.535
675.93359375 1.315188 -0.415124 -1.730312
676.7578125 1.3424 -0.287441 -1.629841
677.6171875 1.273392 -0.126846 -1.400238
678.3671875 1.3380990000000001 0.044458 -1.293641
679.41015625 1.366668 -0.091772 -1.45844
680.24609375 1.34534 -0.181152 -1.526492
681.109375 1.354994 -0.205 -1.559994
681.9609375 1.399359 -0.155114 -1.554473
682.7578125 1.402646 -0.096274 -1.49892
683.62890625 1.355208 0.001805 -1.353403
684.52734375 1.444844 -0.045156 -1.49
685.41796875 1.339443 -0.109532 -1.448975
686.30859375 1.421478 -0.089491 -1.510969
687.140625 1.405 -0.09 -1.495
687.97265625 1.3898139999999999 -0.05 -1.439814
688.80859375 1.390049 -0.095 -1.485049
689.69140625 1.3978220000000001 -0.120194 -1.518016
690.57421875 1.383173 -0.00568 -1.388853
691.30859375 1.4549299999999998 0.17993 -1.275
692.32421875 1.474895 -0.112946 -1.587841
693.19140625 1.479686 -0.153726 -1.633412
694.0546875 1.454394 -0.154639 -1.609033
694.8828125 1.4872859999999999 -0.272691 -1.759977
695.75390625 1.5129620000000001 -0.211315 -1.724277
696.671875 1.4723410000000001 0.014612 -1.457729
697.58203125 1.500799 0.087266 -1.413533
698.46875 1.520617 0.086875 -1.433742
699.30078125 1.531234 0.014523 -1.516711
700.15625 1.4955129999999999 -0.10043 -1.595943
701.00390625 1.555408 -0.119342 -1.67475
701.8984375 1.4994150000000002 -0.195266 -1.694681
702.8125 1.453877 -0.23 -1.683877
703.68359375 1.458123 -0.100168 -1.558291
704.546875 1.400515 -0.060556 -1.461071
705.44921875 1.4545029999999999 -0.086918 -1.541421
706.3125 1.395336 -0.061563 -1.456899
707.140625 1.367327 -0.102109 -1.469436
708.05859375 1.420457 -0.123829 -1.544286
708.94921875 1.484999 -0.053947 -1.538946
709.86328125 1.398256 -0.176622 -1.574878
710.73046875 1.4699490000000002 0.014968 -1.454981
711.55859375 1.496391 -0.04 -1.536391
712.4453125 1.343688 -0.071312 -1.415
713.31640625 1.457746 0.07 -1.387746
714.21484375 1.4608750000000001 0.100875 -1.36
714.9609375 1.429764 0.089911 -1.339853
715.98828125 1.428615 -0.195778 -1.624393
716.8671875 1.3756950000000001 -0.270956 -1.646651
717.7421875 1.40872 -0.250923 -1.659643
718.58984375 1.4645089999999998 -0.165491 -1.63
719.46484375 1.394306 -0.036366 -1.430672
720.37109375 1.4149729999999998 0.041791 -1.373182
721.2890625 1.379278 -0.075 -1.454278
722.171875 1.3704649999999998 -0.14 -1.510465
723.0234375 1.3089140000000001 -0.154548 -1.463462
723.8671875 1.321082 -0.192427 -1.513509
724.70703125 1.273908 -0.36329 -1.637198
725.59375 1.237234 -0.080938 -1.318172
726.515625 1.298949 -0.050996 -1.349945
727.421875 1.301751 -0.113988 -1.415739
728.30078125 1.2155129999999998 -0.109207 -1.32472
729.1875 1.29587 -0.045 -1.34087
730.0390625 1.274971 -0.025029 -1.3
730.88671875 1.2356129999999999 -0.066812 -1.302425
731.78125 1.225501 -0.081602 -1.307103
732.6875 1.2593619999999999 -0.043333 -1.302695
733.59765625 1.24961 -0.0050 -1.25461
734.5 1.314789 -0.095 -1.409789
735.3515625 1.328104 -0.076813 -1.404917
736.21875 1.280531 -0.130469 -1.411
737.09765625 1.348341 -0.090409 -1.43875
737.99609375 1.2897699999999999 -0.065914 -1.355684
738.9296875 1.3536629999999998 -0.053147 -1.40681
739.8046875 1.346898 -0.058102 -1.405
740.69921875 1.273884 -0.021116 -1.295
741.578125 1.358249 -0.115645 -1.473894
742.4453125 1.331739 -0.16116 -1.492899
743.27734375 1.298946 -0.010319 -1.309265
744.20703125 1.3299500000000002 -0.137595 -1.467545
745.13671875 1.347007 -0.265 -1.612007
746.02734375 1.364369 -0.170156 -1.534525
746.875 1.3586349999999998 0.0050 -1.353635
747.734375 1.344773 0.205 -1.139773
748.45703125 1.385491 -0.007734 -1.393225
749.49609375 1.451626 -0.217436 -1.669062
750.42578125 1.461643 -0.153067 -1.61471
751.33984375 1.5026350000000002 -0.067365 -1.57
752.2265625 1.389258 0.3 -1.089258
753.12109375 1.5416999999999998 0.08286 -1.45884
754.0078125 1.554436 -0.155542 -1.709978
754.8515625 1.424638 0.152646 -1.271992
755.58984375 1.444062 -0.065 -1.509062
756.65625 1.515947 -0.20625 -1.722197
757.5859375 1.501373 -0.135032 -1.636405
758.48828125 1.46 0.085 -1.375
759.37109375 1.421316 0.077879 -1.343437
760.25390625 1.4631370000000001 -0.29724 -1.760377
761.15234375 1.459309 -0.255409 -1.714718
762.09765625 1.4346420000000002 -0.126791 -1.561433
763.01953125 1.425984 -0.115 -1.540984
763.93359375 1.423226 -0.110247 -1.533473
764.83203125 1.42097 -0.079609 -1.500579
765.71875 1.420463 -0.051359 -1.471822
766.61328125 1.456855 -0.028065 -1.48492
767.484375 1.4223919999999999 -0.062197 -1.484589
768.44921875 1.415496 -0.06636 -1.481856
769.38671875 1.379307 -0.200426 -1.579733
770.30078125 1.367437 0.073072 -1.294365
771.18359375 1.353351 -0.180865 -1.534216
772.078125 1.405592 -0.193422 -1.599014
772.94921875 1.371453 -0.17068 -1.542133
773.91015625 1.291328 -0.018672 -1.31
774.84765625 1.326651 -0.290191 -1.616842
775.76171875 1.3686690000000001 -0.216279 -1.584948
776.73046875 1.3628170000000002 -0.055 -1.417817
777.61328125 1.325762 -0.240314 -1.566076
778.5078125 1.358708 -0.205 -1.563708
779.41015625 1.359526 -0.096802 -1.456328
780.375 1.359612 0.055 -1.304612
781.34375 1.231799 0.135 -1.096799
782.2578125 1.283154 -0.366465 -1.649619
783.1875 1.3097720000000002 -0.292857 -1.602629
784.125 1.279601 -0.25 -1.529601
785.02734375 1.286925 -0.25545 -1.542375
786.0078125 1.242582 -0.225233 -1.467815
786.97265625 1.2094509999999998 -0.205 -1.414451
787.9375 1.260727 -0.169167 -1.429894
788.89453125 1.2169780000000001 -0.080029 -1.297007
789.8203125 1.213798 -0.012659 -1.226457
790.72265625 1.215587 -0.174116 -1.389703
791.65625 1.217805 0.151763 -1.066042
792.6875 1.2934040000000002 -0.141563 -1.434967
793.65625 1.2974130000000001 -0.246562 -1.543975
794.5703125 1.23 0.08 -1.15
795.53125 1.298885 -0.17 -1.468885
796.44140625 1.269559 -0.190141 -1.4597
797.40234375 1.2793370000000002 -0.010163 -1.2895
798.37109375 1.292269 -0.182479 -1.474748
799.3359375 1.334857 -0.165143 -1.5
800.30078125 1.349479 -0.14 -1.489479
801.234375 1.372717 -0.087197 -1.459914
802.14453125 1.3819780000000002 -0.065057 -1.447035
803.08203125 1.3917259999999998 -0.043365 -1.435091
804.03515625 1.391154 -0.046569 -1.437723
805.05078125 1.442148 -0.02136 -1.463508
806.0 1.463676 -0.095 -1.558676
806.94921875 1.4798419999999999 -0.155 -1.634842
807.875 1.47 0.22 -1.25
808.78125 1.507266 0.2575 -1.249766
809.6171875 1.580949 -0.201384 -1.782333
810.734375 1.530723 -0.498164 -2.028887
811.69921875 1.4962369999999998 -0.245 -1.741237
812.6484375 1.445312 -0.03 -1.475312
813.59765625 1.5143469999999999 -0.160552 -1.674899
814.52734375 1.503546 -0.155552 -1.659098
815.4609375 1.5018459999999998 -0.11 -1.611846
816.4765625 1.45962 -0.079255 -1.538875
817.4609375 1.45396 -0.080281 -1.534241
818.4140625 1.4794779999999998 -0.12 -1.599478
819.359375 1.493741 -0.177319 -1.67106
820.29296875 1.513919 -0.144532 -1.658451
821.23828125 1.475764 -0.143842 -1.619606
822.20703125 1.44664 0.03361 -1.41303
823.04296875 1.4477449999999998 -0.286742 -1.734487
824.1640625 1.414888 -0.395112 -1.81
825.109375 1.4083610000000002 -0.152686 -1.561047
826.0390625 1.398975 -0.245 -1.643975
826.9609375 1.415637 -0.2 -1.615637
827.94140625 1.407704 -0.110388 -1.518092
828.94140625 1.384729 -0.155141 -1.53987
829.90625 1.427354 -0.136992 -1.564346
830.8671875 1.435566 -0.155 -1.590566
831.640625 1.310918 0.007559 -1.303359
832.734375 1.431683 -0.353271 -1.784954
833.6875 1.437421 -0.326875 -1.764296
834.671875 1.42239 6.93E-4 -1.421697
835.48828125 1.447025 -0.205 -1.652025
836.59375 1.44372 -0.310547 -1.754267
837.5546875 1.47905 -0.125656 -1.604706
838.46875 1.4317630000000001 0.046763 -1.385
839.4140625 1.4206779999999999 -0.304556 -1.725234
840.43359375 1.433316 -0.198983 -1.632299
841.4140625 1.42535 -0.099409 -1.524759
842.3515625 1.467007 -0.016289 -1.483296
843.28515625 1.4229729999999998 0.039254 -1.383719
844.21875 1.383096 -0.177083 -1.560179
845.16796875 1.3688 -0.172073 -1.540873
846.13671875 1.363064 -0.100852 -1.463916
847.10546875 1.332522 -0.125014 -1.457536
848.1015625 1.346453 -0.103955 -1.450408
849.05078125 1.300651 -0.173856 -1.474507
849.98046875 1.365522 -0.175153 -1.540675
850.89453125 1.37126 -0.175029 -1.546289
851.8671875 1.3197530000000002 -0.155247 -1.475
852.8671875 1.37274 -0.121672 -1.494412
853.83203125 1.3822029999999998 -0.181742 -1.563945
854.765625 1.394671 -0.139743 -1.534414
855.7109375 1.4251939999999998 -0.130894 -1.556088
856.6328125 1.428807 -0.135 -1.563807
857.578125 1.420102 -0.175 -1.595102
858.578125 1.379425 -0.174147 -1.553572
859.54296875 1.334348 -0.055 -1.389348
860.52734375 1.388698 -0.26 -1.648698
861.4765625 1.373305 -0.300294 -1.673599
862.39453125 1.419716 -0.195017 -1.614733
863.32421875 1.335955 -0.207103 -1.543058
864.34375 1.364209 -0.203281 -1.56749
865.33984375 1.368946 -0.226054 -1.595
866.265625 1.351458 -0.123496 -1.474954
867.22265625 1.336046 -0.125328 -1.461374
868.16015625 1.34524 -0.257894 -1.603134
869.08984375 1.3480429999999999 -0.176957 -1.525
870.07421875 1.30376 -0.034384 -1.338144
871.0546875 1.302485 -0.037328 -1.339813
872.05859375 1.3113320000000002 -0.190152 -1.501484
872.98828125 1.2682 -0.221622 -1.489822
873.92578125 1.299224 0.04932 -1.249904
874.83984375 1.305894 -0.025785 -1.331679
875.65234375 1.257083 -0.256038 -1.513121
876.8203125 1.310788 -0.277733 -1.588521
877.78515625 1.21108 -0.135785 -1.346865
878.71875 1.330255 -0.40375 -1.734005
879.6875 1.342821 -0.146563 -1.489384
880.6015625 1.320035 -0.252273 -1.572308
881.5546875 1.352926 -0.350824 -1.70375
882.55078125 1.372286 -0.177103 -1.549389
883.515625 1.329479 -0.007178 -1.336657
884.5 1.329451 -0.27 -1.599451
885.44140625 1.2861630000000002 -0.300247 -1.58641
886.359375 1.299814 -0.060762 -1.360576
887.28125 1.2601049999999998 -0.1 -1.360105
888.296875 1.2541019999999998 -0.284785 -1.538887
889.25 1.214889 -0.25 -1.464889
890.19921875 1.216643 -0.18721 -1.403853
891.1484375 1.202713 -0.141928 -1.344641
892.08203125 1.15 -0.105 -1.255
893.015625 1.191367 -0.135 -1.326367
893.99609375 1.178286 -0.09 -1.268286
894.98046875 1.216842 -0.075 -1.291842
895.96484375 1.2483009999999999 -0.131699 -1.38
896.9140625 1.257604 -0.095 -1.352604
897.82421875 1.2877830000000001 -0.072328 -1.360111
898.71484375 1.268629 -0.098168 -1.366797
899.69140625 1.291235 -0.090084 -1.381319
900.6953125 1.369932 -0.153743 -1.523675
901.6640625 1.3208769999999999 -0.13 -1.450877
902.609375 1.38279 -0.102109 -1.484899
903.57421875 1.351848 -0.195784 -1.547632
904.5078125 1.390945 -0.189077 -1.580022
905.44140625 1.39989 -0.21 -1.60989
906.44140625 1.415655 -0.130204 -1.545859
907.421875 1.412671 -0.165818 -1.578489
908.40625 1.4538410000000002 -0.135938 -1.589779
909.33984375 1.464151 -0.080849 -1.545
910.2578125 1.456228 -0.077839 -1.534067
911.20703125 1.405 -0.055 -1.46
912.203125 1.3986450000000001 -0.055 -1.453645
913.1875 1.394455 -0.1285 -1.522955
914.13671875 1.414557 -0.01 -1.424557
915.08984375 1.391562 -0.065 -1.456562
916.03515625 1.3878409999999999 -0.006957 -1.394798
916.96875 1.441787 0.056973 -1.384814
917.93359375 1.434895 -0.05 -1.484895
918.9140625 1.44858 0.085 -1.36358
919.9140625 1.506454 -0.16889 -1.675344
920.8359375 1.376241 0.119971 -1.25627
921.765625 1.465801 -0.356846 -1.822647
922.68359375 1.465096 -2.21E-4 -1.465317
923.48828125 1.412308 -0.070613 -1.482921
924.66015625 1.459823 -0.404628 -1.864451
925.62109375 1.429009 0.04639 -1.382619
926.578125 1.476885 -0.31402 -1.790905
927.546875 1.4524210000000002 -0.245 -1.697421
928.46875 1.369807 -0.013281 -1.383088
929.4140625 1.429678 -0.265 -1.694678
930.3984375 1.373223 -0.032991 -1.406214
931.37890625 1.357951 -0.147049 -1.505
932.359375 1.4006679999999998 -0.178716 -1.579384
933.28125 1.340753 0.026094 -1.314659
934.2109375 1.355759 -0.165306 -1.521065
935.1484375 1.289532 -0.125 -1.414532
936.12890625 1.318108 -0.14763 -1.465738
937.11328125 1.306503 -0.213497 -1.52
938.078125 1.270746 -0.160146 -1.430892
939.02734375 1.3238619999999999 -0.181038 -1.5049
939.9765625 1.355775 -0.186172 -1.541947
940.89453125 1.299394 -0.155 -1.454394
941.86328125 1.2813210000000002 -0.128774 -1.410095
942.859375 1.282197 -0.107686 -1.389883
943.84375 1.297639 -0.080391 -1.37803
944.79296875 1.3120450000000001 -0.07639 -1.388435
945.7109375 1.2647229999999998 -0.115088 -1.379811
946.625 1.254917 -0.145 -1.399917
947.609375 1.239219 -0.135 -1.374219
948.640625 1.2484479999999998 -0.14 -1.388448
949.60546875 1.2648949999999999 -0.090057 -1.354952
950.57421875 1.2482280000000001 -0.111549 -1.359777
951.54296875 1.267317 -0.043754 -1.311071
952.4765625 1.2520190000000002 -0.05001 -1.302029
953.41796875 1.292376 -0.076742 -1.369118
954.40625 1.2683849999999999 -0.03543 -1.303815
955.41796875 1.245992 -0.062215 -1.308207
956.390625 1.2566460000000002 -0.065 -1.321646
957.3359375 1.222784 -0.085076 -1.30786
958.265625 1.2279270000000002 -0.111846 -1.339773
959.25 1.244407 -0.085 -1.329407
960.25 1.248558 -0.13 -1.378558
961.25 1.285 -0.095 -1.38
962.23046875 1.275684 -0.105092 -1.380776
963.1875 1.26 -0.16 -1.42
964.14453125 1.244285 -0.194785 -1.43907
965.08203125 1.2964220000000002 -0.173131 -1.469553
966.0625 1.2854670000000001 -0.186 -1.471467
967.0859375 1.282834 -0.055056 -1.33789
968.05078125 1.350608 -0.01982 -1.370428
969.01171875 1.369985 -0.118497 -1.488482
969.9609375 1.399591 0.055 -1.344591
970.73046875 1.355589 -0.01 -1.365589
971.6953125 1.414506 -0.190413 -1.604919
972.7109375 1.3580510000000001 -0.085076 -1.443127
973.546875 1.305294 -0.145215 -1.450509
974.6953125 1.361122 -0.318102 -1.679224
975.66015625 1.377414 -0.07142 -1.448834
976.578125 1.346595 -0.195645 -1.54224
977.546875 1.334795 -0.365215 -1.70001
978.5546875 1.246874 -0.141634 -1.388508
979.57421875 1.354491 -0.295509 -1.65
980.5390625 1.3050000000000002 -0.305 -1.61
981.4765625 1.2678939999999999 -0.197043 -1.464937
982.421875 1.34659 -0.27548 -1.62207
983.41015625 1.319296 -0.170491 -1.489787
984.40625 1.3383019999999999 -0.240547 -1.578849
985.375 1.308546 -0.315 -1.623546
986.33984375 1.290499 -0.115785 -1.406284
987.30078125 1.355883 -0.148446 -1.504329
988.25390625 1.405881 -0.13 -1.535881
989.171875 1.329097 -0.06048 -1.389577
990.18359375 1.361094 -0.12 -1.481094
991.203125 1.331214 -0.1 -1.431214
992.171875 1.394808 -0.035124 -1.429932
993.1328125 1.353824 -0.041176 -1.395
994.06640625 1.354684 -0.050311 -1.404995
995.015625 1.360376 -0.023691 -1.384067
996.01953125 1.319826 -0.050057 -1.369883
997.015625 1.285036 -0.066992 -1.352028
998.0 1.303699 -0.125 -1.428699
998.96875 1.29337 -0.125 -1.41837
999.91796875 1.272908 -0.166798 -1.439706
1000.84375 1.314945 -0.138125 -1.45307
1001.83203125 1.288375 -0.086682 -1.375057
1002.84765625 1.284235 -0.10545 -1.389685
1003.8515625 1.3041099999999999 -0.146495 -1.450605
1004.828125 1.3252659999999998 -0.132891 -1.458157
1005.76171875 1.287617 -0.16 -1.447617
1006.73046875 1.305164 -0.139776 -1.44494
1007.7265625 1.322326 -0.120981 -1.443307
1008.71484375 1.349295 -0.095979 -1.445274
1009.6953125 1.3231620000000002 -0.087975 -1.411137
1010.67578125 1.354006 -0.132946 -1.486952
1011.640625 1.344878 -0.133086 -1.477964
1012.55859375 1.32572 -0.135 -1.46072
1013.5390625 1.3595080000000002 -0.17 -1.529508
1014.578125 1.331157 -0.22543 -1.556587
1015.55859375 1.355701 -0.204299 -1.56
1016.5390625 1.366581 -0.210168 -1.576749
1017.48828125 1.37222 -0.302741 -1.674961
1018.421875 1.374847 -0.22575 -1.600597
1019.390625 1.445028 -0.250859 -1.695887
1020.390625 1.415919 -0.125923 -1.541842
1021.22265625 1.403494 -0.205737 -1.609231
1022.35546875 1.450952 -0.424839 -1.875791
1023.3046875 1.4208729999999998 -0.139539 -1.560412
1024.23828125 1.4522140000000001 -0.39 -1.842214
1025.18359375 1.4488150000000002 -0.393474 -1.842289
1026.18359375 1.361677 -0.158479 -1.520156
1027.203125 1.502421 -0.265 -1.767421
1028.16796875 1.442701 -0.15721 -1.599911
1029.1015625 1.383764 -0.136226 -1.51999
1030.0546875 1.43013 -0.257659 -1.687789
1031.0 1.405735 -0.105 -1.510735
1031.96875 1.3800000000000001 -0.18 -1.56
1032.97265625 1.415624 -0.226312 -1.641936
1033.91796875 1.325764 -0.115 -1.440764
1034.8984375 1.4600520000000001 -0.234548 -1.6946
1035.84765625 1.446768 -0.135 -1.581768
1036.74609375 1.378725 -0.145989 -1.524714
1037.76171875 1.454557 -0.227439 -1.681996
1038.77734375 1.374726 -0.22083 -1.595556
1039.734375 1.395563 -0.241582 -1.637145
1040.6953125 1.395467 -0.177856 -1.573323
1041.62890625 1.355915 -0.217121 -1.573036
1042.5703125 1.3362770000000002 -0.198605 -1.534882
1043.54296875 1.327173 -0.153704 -1.480877
1044.546875 1.339494 -0.145105 -1.484599
1045.53125 1.3004989999999998 -0.166781 -1.46728
1046.5234375 1.377594 -0.191823 -1.569417
1047.4765625 1.341437 -0.152991 -1.494428
1048.40625 1.349483 -0.173406 -1.522889
1049.37109375 1.3384580000000001 -0.207107 -1.545565
1050.37890625 1.348382 -0.191315 -1.539697
1051.375 1.3648189999999998 -0.13 -1.494819
1052.35546875 1.35988 -0.150064 -1.509944
1053.2890625 1.355 -0.17 -1.525
1054.2734375 1.361373 -0.111316 -1.472689
1055.20703125 1.321416 -0.131615 -1.453031
1056.1875 1.29859 -0.228333 -1.526923
1057.20703125 1.304844 -0.232734 -1.537578
1058.171875 1.219719 -0.265124 -1.484843
1059.15234375 1.196584 -0.235328 -1.431912
1060.0703125 1.1693440000000002 -0.255656 -1.425
1061.03515625 1.172285 -0.315 -1.487285
1062.06640625 1.174111 -0.120889 -1.295
1063.05078125 1.2729620000000001 -0.212791 -1.485753
1064.0 1.158321 0.02 -1.138321
1064.80078125 1.018898 0.392508 -0.62639
1065.953125 1.256194 -0.721384 -1.977578
1066.8984375 1.256318 -0.456316 -1.712634
1067.73046875 1.148892 -0.160017 -1.308909
1068.8828125 1.177154 -0.37117 -1.548324
1069.86328125 1.122909 -0.071198 -1.194107
1070.86328125 1.209245 -0.344387 -1.553632
1071.796875 1.177073 -0.040124 -1.217197
1072.578125 1.227506 -0.305217 -1.532723
1073.70703125 1.2619289999999999 -0.226682 -1.488611
1074.7109375 1.224805 -0.120195 -1.345
1075.6953125 1.306804 -0.295712 -1.602516
1076.64453125 1.298754 0.004994 -1.29376
1077.61328125 1.348717 -0.266226 -1.614943
1078.546875 1.373286 -0.200215 -1.573501
1079.51171875 1.303908 -0.055 -1.358908
1080.52734375 1.3058750000000001 -0.319672 -1.625547
1081.5078125 1.3184369999999999 -0.295732 -1.614169
1082.4921875 1.2743829999999998 -0.060372 -1.334755
1083.44140625 1.279713 -0.230152 -1.509865
1084.375 1.294978 -0.21 -1.504978
1085.32421875 1.296085 -0.208067 -1.504152
1086.33984375 1.3004980000000002 -0.18 -1.480498
1087.35546875 1.308395 -0.155064 -1.463459
1088.29296875 1.301474 -0.158365 -1.459839
1089.25390625 1.316814 -0.127491 -1.444305
1090.203125 1.2990359999999999 -0.1325 -1.431536
1091.15625 1.272804 -0.081562 -1.354366
1092.15234375 1.2515779999999999 -0.105409 -1.356987
1093.1640625 1.2378209999999998 -0.124578 -1.362399
1094.16796875 1.2884559999999998 -0.146632 -1.435088
1095.1328125 1.3387 -0.062607 -1.401307
1096.06640625 1.308674 0.124612 -1.184062
1097.0 1.292584 0.06 -1.232584
1098.015625 1.2892569999999999 -0.008555 -1.297812
1099.03125 1.255626 -0.093164 -1.34879
1100.01171875 1.2969119999999998 -0.09 -1.386912
1100.96484375 1.317948 -0.05 -1.367948
1101.94921875 1.304553 -0.115 -1.419553
1102.8984375 1.3217240000000001 -0.075 -1.396724
1103.89453125 1.265577 -0.075008 -1.340585
1104.8984375 1.256775 -0.09335 -1.350125
1105.87890625 1.251645 -0.117957 -1.369602
1106.859375 1.173569 -0.125078 -1.298647
1107.8125 1.2199419999999999 0.0050 -1.214942
1108.74609375 1.1976559999999998 -0.08 -1.277656
1109.74609375 1.180795 -0.136805 -1.3176
1110.76171875 1.162882 0.02 -1.142882
1111.7265625 1.187021 -0.012991 -1.200012
1112.69140625 1.1904610000000002 -0.060064 -1.250525
1113.4921875 1.229052 0.039485 -1.189567
1114.57421875 1.310155 -0.125 -1.435155
1115.5546875 1.20463 0.1 -1.10463
1116.5546875 1.287622 -0.217975 -1.505597
1117.5546875 1.312453 -0.078102 -1.390555
1118.5234375 1.2550000000000001 -0.085 -1.34
1119.453125 1.3426680000000002 -0.310542 -1.65321
1120.38671875 1.2978349999999998 -0.058386 -1.356221
1121.3359375 1.338016 -0.250106 -1.588122
1122.3515625 1.370651 -0.161495 -1.532146
1123.3359375 1.359886 -0.110114 -1.47
1124.296875 1.3810280000000001 -0.222441 -1.603469
1125.265625 1.340721 -0.032109 -1.37283
1126.203125 1.369876 -0.045124 -1.415
1127.0 1.3962050000000001 -0.16 -1.556205
1128.1328125 1.3887049999999999 -0.041211 -1.429916
1129.1328125 1.39748 -0.016465 -1.413945
1130.1171875 1.421171 -0.050461 -1.471632
1131.05078125 1.374933 -0.12221 -1.497143
1131.984375 1.3991209999999998 -0.058418 -1.457539
1132.9296875 1.4252639999999999 -0.129539 -1.554803
1133.9296875 1.418219 -0.171424 -1.589643
1134.9296875 1.4383899999999998 -0.071514 -1.509904
1135.89453125 1.3716890000000002 -0.079678 -1.451367
1136.84765625 1.37068 -0.126147 -1.496827
1137.796875 1.3475929999999998 -0.205 -1.552593
1138.73046875 1.349949 -0.17 -1.519949
1139.7109375 1.384719 -0.150281 -1.535
1140.7109375 1.395491 -0.120088 -1.515579
1141.71484375 1.390901 -0.174099 -1.565
1142.6796875 1.3939620000000001 -0.16884 -1.562802
1143.609375 1.4099819999999998 -0.172441 -1.582423
1144.54296875 1.4110260000000001 -0.14 -1.551026
1145.52734375 1.397308 -0.175 -1.572308
1146.55859375 1.3909520000000002 -0.09926 -1.490212
1147.52734375 1.35257 -0.105 -1.45757
1148.5078125 1.35224 -0.056593 -1.408833
1149.48828125 1.34991 -0.04 -1.38991
1150.41015625 1.371571 -0.066957 -1.438528
1151.375 1.324374 -0.08 -1.404374
1152.375 1.3052 -0.01 -1.3152
1153.37109375 1.291659 -0.015541 -1.3072
1154.3515625 1.2462909999999998 -0.080294 -1.326585
1155.2890625 1.2647750000000002 -0.085225 -1.35
1156.22265625 1.274789 -0.145191 -1.41998
1157.1875 1.2358500000000001 -0.2 -1.43585
1158.20703125 1.202734 -0.132266 -1.335
1159.203125 1.24 -0.135 -1.375
1160.171875 1.175052 -0.268203 -1.443255
1161.12109375 1.2196360000000002 -0.16607 -1.385706
1162.08203125 1.2466730000000001 -0.2 -1.446673
1163.0 1.160395 -0.21 -1.370395
1163.984375 1.21564 -0.090879 -1.306519
1165.01953125 1.279547 -0.160014 -1.439561
1165.98046875 1.224957 -0.150636 -1.375593
1166.93359375 1.299248 -8.4E-5 -1.299332
1167.8828125 1.318433 -0.075217 -1.39365
1168.80078125 1.2870380000000001 0.109415 -1.177623
1169.81640625 1.294691 -0.029876 -1.324567
1170.81640625 1.339714 -0.120275 -1.459989
1171.78515625 1.309846 -0.045 -1.354846
1172.765625 1.398686 -0.110923 -1.509609
1173.69921875 1.3262139999999998 -0.13617 -1.462384
1174.62890625 1.3798469999999998 -0.064958 -1.444805
1175.58203125 1.3771849999999999 -0.155 -1.532185
1176.58203125 1.303512 -0.176488 -1.48
1177.58203125 1.315458 -0.105 -1.420458
1178.546875 1.343663 -0.200146 -1.543809
1179.49609375 1.314168 -0.281437 -1.595605
1180.42578125 1.306376 -0.215 -1.521376
1181.4140625 1.33682 -0.23506 -1.57188
1182.41015625 1.2980260000000001 -0.336464 -1.63449
1183.37890625 1.338545 -0.22 -1.558545
1184.34765625 1.393058 -0.220984 -1.614042
1185.29296875 1.374962 -0.242266 -1.617228
1186.24609375 1.410605 -0.136315 -1.54692
1187.19140625 1.445215 -0.155141 -1.600356
1188.17578125 1.396212 -0.230538 -1.62675
1189.20703125 1.4538030000000002 -0.104013 -1.557816
1190.16015625 1.478937 -0.085979 -1.564916
1191.125 1.486547 -0.105 -1.591547
1192.0703125 1.485251 -0.094749 -1.58
1193.0078125 1.437679 -0.135732 -1.573411
1194.02734375 1.433764 -0.180328 -1.614092
1195.0234375 1.4625849999999998 -0.162238 -1.624823
1195.9921875 1.415003 -0.195732 -1.610735
1196.97265625 1.419589 -0.195225 -1.614814
1197.921875 1.404181 -0.230112 -1.634293
1198.85546875 1.377259 -0.255 -1.632259
1199.8515625 1.337936 -0.234486 -1.572422
1200.8828125 1.367596 -0.230923 -1.598519
1201.87109375 1.345474 -0.226805 -1.572279
1202.8515625 1.377094 -0.14835 -1.525444
1203.80078125 1.3353279999999998 -0.191135 -1.526463
1204.765625 1.318921 -0.239238 -1.558159
1205.76953125 1.3448799999999999 -0.175 -1.51988
1206.76953125 1.2938720000000001 -0.21501 -1.508882
1207.75 1.273447 -0.21 -1.483447
1208.734375 1.344887 -0.115 -1.459887
1209.703125 1.2993549999999998 -0.130645 -1.43
1210.625 1.2332219999999998 -0.09 -1.323222
1211.61328125 1.322305 -0.143065 -1.46537
1212.6328125 1.218132 -0.116042 -1.334174
1213.64453125 1.259814 -0.054748 -1.314562
1214.59765625 1.299734 -0.195191 -1.494925
1215.55078125 1.228407 -0.221549 -1.449956
1216.484375 1.255254 -0.159746 -1.415
1217.4765625 1.269965 -0.311147 -1.581112
1218.46484375 1.1427800000000001 -0.245 -1.38778
1219.4609375 1.218846 -0.205306 -1.424152
1220.4296875 1.2128679999999998 -0.270623 -1.483491
1221.37890625 1.1385299999999998 -0.235 -1.37353
1222.328125 1.273657 -0.195215 -1.468872
1223.28125 1.222405 -0.243516 -1.465921
1224.29296875 1.250205 -0.193881 -1.444086
1225.296875 1.274807 -0.333988 -1.608795
1226.2734375 1.241436 -0.229548 -1.470984
1227.2265625 1.335756 -0.193135 -1.528891
1228.16015625 1.348415 -0.195 -1.543415
1229.13671875 1.349974 -0.150613 -1.500587
1230.125 1.389961 -0.27 -1.659961
1231.12109375 1.375182 -0.298867 -1.674049
1232.09375 1.389416 -0.213281 -1.602697
1233.04296875 1.373202 -0.281798 -1.655
1234.01953125 1.389346 -0.239385 -1.628731
1234.94140625 1.39 -0.225 -1.615
1235.97265625 1.395984 -0.294016 -1.69
1236.97265625 1.354451 -0.295191 -1.649642
1237.95703125 1.35 -0.285 -1.635
1238.921875 1.396058 -0.325146 -1.721204
1239.8671875 1.35289 -0.343182 -1.696072
1240.8203125 1.37399 -0.325908 -1.699898
1241.8203125 1.367264 -0.293752 -1.661016
1242.8359375 1.359932 -0.310176 -1.670108
1243.8203125 1.36081 -0.295 -1.65581
1244.8046875 1.324391 -0.290711 -1.615102
1245.76953125 1.327022 -0.270057 -1.597079
1246.69921875 1.297954 -0.25068 -1.548634
1247.703125 1.346304 -0.220542 -1.566846
1248.71875 1.295225 -0.234219 -1.529444
1249.71484375 1.32706 -0.21794 -1.545
1250.66796875 1.355394 -0.136676 -1.49207
1251.6328125 1.330051 -0.066145 -1.396196
1252.58203125 1.302985 -0.047734 -1.350719
1253.578125 1.3351220000000001 -0.084056 -1.419178
1254.578125 1.289196 -0.059215 -1.348411
1255.56640625 1.3123690000000001 -0.045 -1.357369
1256.546875 1.310357 -0.09575 -1.406107
1257.515625 1.317522 -0.045 -1.362522
1258.4453125 1.304125 -0.116651 -1.420776
1259.41796875 1.22733 -0.161488 -1.388818
1260.4609375 1.2669510000000002 -0.066137 -1.333088
1261.4453125 1.273393 -0.095824 -1.369217
1262.41015625 1.25254 -0.121625 -1.374165
1263.359375 1.162539 -0.066719 -1.229258
1264.3125 1.229063 -0.100625 -1.329688
1265.26953125 1.170156 -0.139844 -1.31
1266.27734375 1.204394 -0.005163 -1.209557
1267.26171875 1.168343 -0.090613 -1.258956
1268.2421875 1.1644349999999999 -0.005271 -1.169706
1269.2109375 1.182612 0.0 -1.182612
1270.140625 1.182368 -0.052285 -1.234653
1271.09375 1.11957 0.01457 -1.105
1272.08984375 1.146405 -0.045047 -1.191452
1273.08984375 1.154138 -0.0050 -1.159138
1274.07421875 1.177757 0.026691 -1.151066
1275.00390625 1.17687 -0.085732 -1.262602
1275.96875 1.1425530000000002 -0.001094 -1.143647
1276.90625 1.172572 -0.025781 -1.198353
1277.90625 1.188097 -0.155469 -1.343566
1278.90234375 1.146911 -0.110362 -1.257273
1279.890625 1.17983 -0.027441 -1.207271
1280.8671875 1.153942 -0.152345 -1.306287
1281.8046875 1.153775 -0.171204 -1.324979
1282.71484375 1.1307710000000002 -0.087365 -1.218136
1283.734375 1.177604 -0.122285 -1.299889
1284.734375 1.196092 -0.184746 -1.380838
1285.69921875 1.220013 -0.192882 -1.412895
1286.6484375 1.1965119999999998 -0.152238 -1.34875
1287.6015625 1.2073990000000001 -0.08835 -1.295749
1288.55078125 1.18 -0.06 -1.24
1289.52734375 1.17242 -0.048726 -1.221146
1290.53125 1.21405 -0.050781 -1.264831
1291.51953125 1.244382 -0.045032 -1.289414
1292.5 1.275132 -0.02 -1.295132
1293.44921875 1.2860010000000002 -0.01636 -1.302361
1294.36328125 1.307643 -0.005852 -1.313495
1295.359375 1.327561 -0.03 -1.357561
1296.36328125 1.372329 -0.08 -1.452329
1297.37890625 1.3974339999999998 -0.062121 -1.459555
1298.34375 1.4328130000000001 -0.062187 -1.495
1299.30859375 1.434299 -0.083479 -1.517778
1300.26171875 1.432413 -0.095852 -1.528265
1301.2421875 1.4687379999999999 -0.095461 -1.564199
1302.2578125 1.464184 -0.100956 -1.56514
1303.26171875 1.4649260000000002 -0.130364 -1.59529
1304.2421875 1.419809 -0.15 -1.569809
1305.2265625 1.417252 -0.084832 -1.502084
1306.17578125 1.420491 -0.115996 -1.536487
1307.125 1.385 -0.135 -1.52
1308.16015625 1.3788259999999999 -0.044791 -1.423617
1309.19140625 1.418292 -0.065057 -1.483349
1310.140625 1.384282 -0.125 -1.509282
1311.125 1.36 -0.085 -1.445
1312.09375 1.410277 -0.04 -1.450277
1313.0546875 1.429154 -0.176872 -1.606026
1314.0546875 1.383796 -0.10636 -1.490156
1315.0703125 1.471684 -0.027659 -1.499343
1316.07421875 1.436717 -0.185 -1.621717
1317.03515625 1.418594 -0.111699 -1.530293
1317.98828125 1.497549 -0.182439 -1.679988
1318.921875 1.434803 -0.255101 -1.689904
1319.92578125 1.373797 -0.222892 -1.596689
1320.953125 1.491215 -0.244307 -1.735522
1321.91796875 1.388882 -0.290702 -1.679584
1322.8828125 1.453541 -0.246405 -1.699946
1323.85546875 1.425736 -0.364986 -1.790722
1324.76953125 1.3241390000000002 -0.29479 -1.618929
1325.76953125 1.41968 -0.285043 -1.704723
1326.765625 1.331761 -0.408098 -1.739859
1327.765625 1.303321 -0.26 -1.563321
1328.734375 1.37188 -0.328418 -1.700298
1329.68359375 1.336159 -0.34924 -1.685399
1330.6015625 1.345302 -0.22501 -1.570312
1331.6171875 1.350764 -0.289539 -1.640303
1332.6171875 1.2869579999999998 -0.266042 -1.553
1333.59765625 1.349156 -0.14045 -1.489606
1334.56640625 1.3149030000000002 -0.2 -1.514903
1335.515625 1.293461 -0.243057 -1.536518
1336.46875 1.27 -0.185 -1.455
1337.46484375 1.305901 -0.199099 -1.505
1338.4609375 1.291121 -0.250088 -1.541209
1339.48046875 1.334681 -0.205007 -1.539688
1340.46484375 1.383381 -0.246831 -1.630212
1341.40625 1.258951 -0.316049 -1.575
1342.34375 1.351362 -0.29 -1.641362
1343.328125 1.371316 -0.285 -1.656316
1344.36328125 1.367413 -0.345 -1.712413
1345.36328125 1.372291 -0.340613 -1.712904
1346.34375 1.4113989999999998 -0.33 -1.741399
1347.328125 1.359785 -0.365215 -1.725
1348.27734375 1.3595620000000002 -0.299672 -1.659234
1349.2421875 1.306335 -0.337839 -1.644174
1350.2578125 1.267023 -0.290637 -1.55766
1351.2734375 1.334311 -0.215 -1.549311
1352.26953125 1.2673240000000001 -0.194605 -1.461929
1353.22265625 1.293946 -0.190191 -1.484137
1354.171875 1.2211949999999998 -0.18077 -1.401965
1355.15625 1.190593 -0.180469 -1.371062
1356.1875 1.239994 -0.165 -1.404994
1357.1875 1.190758 -0.19 -1.380758
1358.18359375 1.151112 -0.224299 -1.375411
1359.15234375 1.208848 -0.245225 -1.454073
1360.1171875 1.2287130000000002 -0.280271 -1.508984
1361.0703125 1.235022 -0.25 -1.485022
1362.0859375 1.264054 -0.245076 -1.50913
1363.1171875 1.2455949999999998 -0.272309 -1.517904
1364.1015625 1.223505 -0.251495 -1.475
1365.06640625 1.2591489999999999 -0.315552 -1.574701
1366.01953125 1.1850170000000002 -0.38 -1.565017
1366.96875 1.119365 -0.343164 -1.462529
1368.0 1.1949999999999998 -0.38 -1.575
1369.0078125 1.093558 -0.42639 -1.519948
1369.98046875 1.138086 -0.310292 -1.448378
1370.94921875 1.175902 -0.375 -1.550902
1371.8984375 1.128378 -0.300933 -1.429311
1372.83203125 1.174633 -0.29867 -1.473303
1373.828125 1.217009 -0.340124 -1.557133
1374.828125 1.118458 -0.22 -1.338458
1375.83203125 1.1679430000000002 -0.260468 -1.428411
1376.77734375 1.163933 -0.260225 -1.424158
1377.73046875 1.203608 -0.180036 -1.383644
1378.6796875 1.201152 -0.218102 -1.419254
1379.67578125 1.094604 -0.24068 -1.335284
1380.6796875 1.1673470000000001 -0.222319 -1.389666
1381.67578125 1.2194 -0.265538 -1.484938
1382.62890625 1.213606 -0.280415 -1.494021
1383.59375 1.1691960000000001 -0.18 -1.349196
1384.52734375 1.109162 -0.275519 -1.384681
1385.4921875 1.228961 -0.350637 -1.579598
1386.5390625 1.297075 -0.274192 -1.571267
1387.5234375 1.309583 -0.312043 -1.621626
1388.50390625 1.254445 -0.310324 -1.564769
1389.45703125 1.290719 -0.314586 -1.605305
1390.390625 1.2799999999999998 -0.265 -1.545
1391.40625 1.354022 -0.238164 -1.592186
1392.42578125 1.308195 -0.252466 -1.560661
1393.40234375 1.3138319999999999 -0.28 -1.593832
1394.40234375 1.359508 -0.227165 -1.586673
1395.37109375 1.3633549999999999 -0.245 -1.608355
1396.3046875 1.3399999999999999 -0.175 -1.515
1397.26953125 1.339486 -0.19 -1.529486
1398.26953125 1.335177 -0.210019 -1.545196
1399.2890625 1.346155 -0.235281 -1.581436
1400.28125 1.3690309999999999 -0.225969 -1.595
1401.25 1.3626 -0.205 -1.5676
1402.19921875 1.286027 -0.253098 -1.539125
1403.1796875 1.194469 -0.238781 -1.43325
1404.19921875 1.303195 -0.244036 -1.547231
1405.19921875 1.2404190000000002 -0.265 -1.505419
1406.18359375 1.248729 -0.240194 -1.488923
1407.1640625 1.239888 -0.300112 -1.54
1408.1328125 1.182047 -0.365461 -1.547508
1409.09765625 1.129362 -0.334116 -1.463478
1410.1484375 1.210571 -0.364067 -1.574638
1411.1796875 1.2785600000000001 -0.35 -1.62856
1412.1640625 1.3733179999999998 -0.27025 -1.643568
1413.14453125 1.369796 -0.315 -1.684796
1414.1015625 1.342161 -0.37335 -1.715511
1415.078125 1.34 -0.27 -1.61
1416.125 1.3515899999999998 -0.32 -1.67159
1417.12890625 1.305887 -0.343945 -1.649832
1418.125 1.247938 -0.19 -1.437938
1419.125 1.329629 -0.145 -1.474629
1420.05859375 1.209711 -0.17426 -1.383971
1421.0234375 1.205845 -0.115 -1.320845
1422.04296875 1.212129 -0.222734 -1.434863
1423.0703125 1.139947 -0.25 -1.389947
1424.0546875 1.131036 -0.178296 -1.309332
1425.0234375 1.0459180000000001 -0.21 -1.255918
1425.96875 0.9765159999999999 -0.288237 -1.264753
1426.9375 1.028697 -0.2 -1.228697
1427.94140625 1.0448060000000001 -0.275194 -1.32
1428.94140625 0.980322 -0.35 -1.330322
1429.921875 1.1061619999999999 -0.205105 -1.311267
1430.89453125 1.1449070000000001 -0.265029 -1.409936
1431.85546875 1.1024100000000001 -0.255007 -1.357417
1432.80078125 1.180599 -0.174928 -1.355527
1433.8203125 1.169221 -0.245712 -1.414933
1434.8359375 1.209849 -0.185151 -1.395
1435.82421875 1.2596610000000001 -0.230964 -1.490625
1436.78515625 1.229712 -0.260785 -1.490497
1437.734375 1.313983 -0.130996 -1.444979
1438.6875 1.290414 -0.186 -1.476414
1439.68359375 1.269973 -0.165 -1.434973
1440.703125 1.324355 -0.040645 -1.365
1441.703125 1.338704 -0.055266 -1.39397
1442.68359375 1.3477130000000002 -0.055 -1.402713
1443.6328125 1.321437 0.00942 -1.312017
1444.578125 1.293511 -0.074067 -1.367578
1445.58203125 1.208258 -0.136742 -1.345
1446.59765625 1.191489 -0.085 -1.276489
1447.6015625 1.1749660000000002 -0.10001 -1.274976
1448.56640625 1.153996 -0.144363 -1.298359
1449.53125 1.2591999999999999 -0.185 -1.4442
1450.49609375 1.358645 -0.12607 -1.484715
1451.48046875 1.3228149999999999 -0.190007 -1.512822
1452.49609375 1.256117 -0.240914 -1.497031
1453.484375 1.319279 -0.15 -1.469279
1454.48046875 1.329964 -0.125 -1.454964
1455.45703125 1.3624200000000002 -0.196384 -1.558804
1456.38671875 1.286763 -0.265 -1.551763
1457.3984375 1.298377 -0.231495 -1.529872
1458.42578125 1.2915269999999999 -0.242874 -1.534401
1459.41015625 1.260674 -0.151802 -1.412476
1460.40625 1.333668 -0.168594 -1.502262
1461.35546875 1.262194 -0.210337 -1.472531
1462.30859375 1.280907 -0.12507 -1.405977
1463.30859375 1.3183880000000001 -0.140084 -1.458472
1464.32421875 1.243377 -0.17636 -1.419737
1465.33984375 1.195 -0.055 -1.25
1466.33984375 1.26 -0.09 -1.35
1467.3046875 1.1559059999999999 -0.185 -1.340906
1468.23828125 1.082635 -0.147365 -1.23
1469.2421875 1.159681 -0.150319 -1.31
1470.2578125 1.199363 -0.180637 -1.38
1471.2734375 1.24979 -0.14 -1.38979
1472.25 1.152729 -0.235 -1.387729
1473.1875 1.169346 -0.296563 -1.465909
1474.15625 1.1904919999999999 -0.241562 -1.432054
1475.1171875 1.306138 -0.295 -1.601138
1476.11328125 1.160977 -0.261559 -1.422536
1477.13671875 1.213436 -0.200613 -1.414049
1478.12109375 1.1770319999999999 -0.302521 -1.479553
1479.08203125 1.063647 -0.262975 -1.326622
1480.03515625 1.188274 -0.247523 -1.435797
1480.98046875 1.1325859999999999 -0.270067 -1.402653
1482.015625 1.109637 -0.18875 -1.298387
1483.01953125 1.049928 -0.220008 -1.269936
1483.984375 1.054929 -0.238164 -1.293093
1484.94921875 1.0602610000000001 -0.128067 -1.188328
1485.9296875 1.054691 -0.156395 -1.211086
1486.87890625 0.9563039999999999 -0.173601 -1.129905
1487.89453125 0.945337 -0.079678 -1.025015
1488.9140625 0.958636 -0.105032 -1.063668
1489.9140625 0.9817279999999999 -0.200112 -1.18184
1490.89453125 0.9967919999999999 -0.11501 -1.111802
1491.82421875 0.9725339999999999 -0.207466 -1.18
1492.77734375 0.9738100000000001 -0.245959 -1.219769
1493.796875 0.974178 -0.190625 -1.164803
1494.8125 1.021692 -0.241875 -1.263567
1495.8125 1.052268 -0.311563 -1.363831
1496.77734375 1.054469 -0.260656 -1.315125
1497.76171875 1.1049829999999998 -0.216279 -1.321262
1498.70703125 1.153047 -0.235397 -1.388444
1499.7109375 1.145919 -0.175068 -1.320987
1500.7265625 1.080972 -0.214067 -1.295039
1501.7265625 1.045117 -0.23 -1.275117
1502.70703125 1.019271 -0.169797 -1.189068
1503.67578125 0.9863440000000001 -0.161619 -1.147963
1504.609375 0.974621 -0.095 -1.069621
1505.625 0.9920070000000001 -0.145 -1.137007
1506.65625 1.031243 -0.275781 -1.307024
1507.640625 1.080189 -0.322319 -1.402508
1508.62109375 1.0606710000000001 -0.271399 -1.33207
1509.60546875 1.047241 -0.250155 -1.297396
1510.54296875 1.069042 -0.30313 -1.372172
1511.56640625 1.110508 -0.26 -1.370508
1512.58984375 1.225465 -0.199535 -1.425
1513.6015625 1.218539 -0.270847 -1.489386
1514.58203125 1.1281050000000001 -0.266296 -1.394401
1515.5390625 1.049005 -0.285225 -1.33423
1516.48828125 0.924862 -0.38 -1.304862
1517.48828125 0.918902 -0.365692 -1.284594
1518.546875 0.8341999999999998 -0.30075 -1.13495
1519.53515625 0.9618319999999999 -0.323168 -1.285
1520.51953125 0.999688 -0.225 -1.224688
1521.5390625 1.11 -0.125 -1.235
1522.484375 1.084927 -0.195 -1.279927
1523.48828125 1.0292800000000002 -0.110426 -1.139706
1524.53515625 1.084895 -0.09 -1.174895
1525.53515625 0.988629 -0.075785 -1.064414
1526.53515625 1.022137 0.284151 -0.737986
1527.4921875 0.9675360000000001 0.025 -0.942536
1528.44921875 1.1236609999999998 -0.096116 -1.219777
1529.3671875 1.199303 -0.225637 -1.42494
1530.46484375 1.275612 -0.190393 -1.466005
1531.4296875 1.187426 -0.037574 -1.225
1532.4921875 1.212408 -0.132592 -1.345
1533.12890625 2.176338 1.592871 -0.583467
1534.49609375 0.37142200000000003 -0.173578 -0.545
1534.98046875 1.46473 -0.688887 -2.153617
1536.54296875 1.24694 -0.151852 -1.398792
1538.62109375 1.2066299999999999 0.047021 -1.159609
1540.578125 1.354477 0.174734 -1.179743
1541.09375 1.658813 1.013813 -0.645
1541.52734375 0.9704689999999999 0.170669 -0.7998
1541.796875 0.14425 0.719458 0.575208
1542.171875 1.9545910000000002 0.715 -1.239591
1542.51171875 1.7336939999999998 0.748721 -0.984973
1542.734375 0.24886799999999998 -0.262266 -0.511134
1543.08203125 0.40343799999999996 -0.204785 -0.608223
1543.41015625 0.191081 0.162265 -0.028816
1543.80859375 1.074876 0.504876 -0.57
1544.16015625 0.9883219999999999 0.345532 -0.64279
1544.4921875 0.498553 0.306522 -0.192031
1544.7109375 0.09170700000000004 -0.290023 -0.38173
1545.1171875 1.179486 0.819681 -0.359805
1545.42578125 0.602527 0.470766 -0.131761
1545.77734375 1.097005 0.52832 -0.568685
1546.33984375 0.363044 -0.01584 -0.378884
1546.67578125 0.45345799999999997 -0.061116 -0.514574
1547.02734375 0.12823600000000002 -0.080694 -0.20893
1547.3125 0.254844 0.104844 -0.15
1547.81640625 0.08432500000000001 -0.125133 -0.209458
1548.02734375 0.710528 0.50607 -0.204458
1548.33984375 0.501766 0.472723 -0.029043
1548.890625 0.475572 0.11072 -0.364852
1549.12109375 0.19253699999999996 -0.477434 -0.669971
1549.33203125 0.399469 0.451869 0.0524
1549.5703125 0.035876000000000005 0.02423 -0.011646
1549.95703125 0.868804 0.423804 -0.445
1550.26953125 0.7584770000000001 0.315322 -0.443155
1550.51171875 0.19545199999999996 -0.08 -0.275452
1550.77734375 0.12380100000000002 -0.145 -0.268801
1551.18359375 0.127026 -0.102099 -0.229125
1551.48828125 0.106539 -0.303461 -0.41
1551.765625 0.21000000000000002 -0.34 -0.55
1552.0078125 0.615 0.065 -0.55
1552.3046875 0.602364 0.117391 -0.484973
1553.03515625 0.088666 -0.104099 -0.192765
1553.24609375 0.21445 -0.059671 -0.274121
1553.55859375 0.264497 -0.095503 -0.36
1554.09375 0.610035 -0.094844 -0.704879
1554.4375 0.24489599999999997 -0.038214 -0.28311
1554.8671875 0.9054800000000001 0.368496 -0.536984
1555.1953125 0.282811 -0.381029 -0.66384
1555.42578125 0.36116800000000004 -0.142269 -0.503437
1555.65234375 1.710502 0.598363 -1.112139
1556.265625 1.756357 0.631357 -1.125
1556.5859375 1.047396 0.174355 -0.873041
1576.61328125 1.2067299999999999 0.811503 -0.395227
1576.82421875 0.291007 0.157506 -0.133501
1577.16796875 1.249468 0.693457 -0.556011
1577.38671875 0.183751 -0.247093 -0.430844
1577.72265625 0.425004 0.024428 -0.400576
1577.99609375 0.517647 -0.09221 -0.609857
1578.26171875 0.419284 -0.16 -0.579284
1578.58203125 0.120581 -0.206488 -0.327069
1578.828125 0.14889099999999997 -0.170776 -0.319667
1579.09765625 0.07775400000000002 -0.204116 -0.28187
1579.32421875 0.215104 -0.179453 -0.394557
1579.58984375 0.14189800000000002 -0.242608 -0.384506
1579.86328125 0.15480999999999998 -0.205302 -0.360112
1580.46484375 0.588678 0.295 -0.293678
1580.73828125 0.744572 0.424636 -0.319936
1581.52734375 0.989548 0.756361 -0.233187
1581.8984375 0.015648000000000002 -0.042008 -0.057656
1582.296875 0.9555509999999999 0.731092 -0.224459
1582.55859375 1.056126 0.714092 -0.342034
1582.82421875 1.051265 0.76673 -0.284535
1583.109375 0.550701 0.338323 -0.212378
1583.375 0.523754 0.06 -0.463754
1583.671875 0.471085 -0.008915 -0.48
1583.9375 0.201328 -0.066328 -0.267656
1584.140625 0.159163 -0.210156 -0.369319
1584.3515625 0.587342 -0.073333 -0.660675
1584.7109375 0.185846 -0.0803 -0.266146
1584.984375 0.05296899999999999 -0.252031 -0.305
1585.3125 0.67736 0.2385 -0.43886
1585.578125 0.827476 0.412476 -0.415
1585.83203125 0.950739 0.535739 -0.415
1586.3515625 1.071297 0.768828 -0.302469
1586.7421875 0.11127800000000002 0.068958 -0.04232
1587.14453125 0.9601609999999999 0.815 -0.145161
1587.39453125 0.918929 0.559967 -0.358962
1587.66015625 0.8864319999999999 0.342551 -0.543881
1587.92578125 0.734135 0.190254 -0.543881
1588.27734375 0.394984 0.081355 -0.313629
1588.57421875 0.585886 0.191092 -0.394794
1588.89453125 0.13925 0.170161 0.030911
1589.21875 0.36378 0.103864 -0.259916
1589.4921875 0.07305500000000001 -0.036617 -0.109672
1589.82421875 0.594683 0.328472 -0.266211
1590.05859375 0.10394300000000001 0.396052 0.292109
1590.3359375 0.30766899999999997 0.467974 0.160305
1590.640625 0.946529 0.703521 -0.243008
1590.91015625 0.889275 0.614275 -0.275
1591.15625 0.23188699999999995 0.51999 0.288103
1591.4609375 1.014857 0.594857 -0.42
1591.69140625 0.100372 0.074627 -0.025745
1591.97265625 0.142197 -0.077486 -0.219683
1592.28515625 0.797351 0.188171 -0.60918
1592.68359375 0.548339 0.099225 -0.449114
1593.015625 0.593182 0.194234 -0.398948
1593.28515625 0.121267 0.121603 3.36E-4
1593.515625 0.170748 0.065762 -0.104986
1594.21875 0.5940620000000001 0.194062 -0.4
1594.5546875 0.61778 0.16 -0.45778
1594.8828125 0.066563 -0.02892 -0.095483
1595.28515625 0.362119 0.07249 -0.289629
1595.5859375 0.58251 0.164944 -0.417566
1595.9921875 0.916487 0.559268 -0.357219
1596.23046875 0.157281 0.290014 0.132733
1596.515625 0.25918 0.312578 0.053398
1596.796875 0.18917 0.30417 0.115
1597.12109375 1.0130940000000002 0.483094 -0.53
1597.38671875 0.806916 0.276916 -0.53
1597.625 0.12046100000000001 -0.17 -0.290461
1597.88671875 0.088862 -0.036138 -0.125
1598.14453125 0.932545 0.144979 -0.787566
1598.5859375 0.420466 0.131487 -0.288979
1598.90234375 0.12332599999999999 0.148364 0.025038
1599.1171875 0.509962 0.013018 -0.496944
1599.48828125 0.112166 -0.001054 -0.11322
1599.90625 0.392243 0.152656 -0.239587
1600.234375 0.06934700000000002 0.262803 0.193456
1600.55078125 0.527477 0.325 -0.202477
1600.7890625 0.119011 0.004944 -0.114067
1601.25 0.313668 -0.055 -0.368668
1601.4921875 0.129249 -0.141895 -0.271144
1601.80078125 0.533312 0.2348 -0.298512
1602.16796875 0.18624700000000002 0.198668 0.012421
1602.43359375 0.07012100000000002 -0.12507 -0.195191
1602.71875 0.061194000000000005 0.111906 0.050712
1603.0 0.545964 0.12 -0.425964
1603.234375 0.057643 0.072681 0.015038
1603.51953125 0.08735600000000002 0.249986 0.16263
1603.8125 0.161433 0.192125 0.030692
1604.06640625 0.135172 0.104859 -0.030313
1604.2890625 0.058547 -0.091065 -0.149612
1604.59765625 0.069344 -0.065656 -0.135
1605.06640625 0.627906 0.124718 -0.503188
1605.33984375 0.654966 0.120294 -0.534672
1605.68359375 0.185514 0.009753 -0.175761
1605.984375 0.541366 -0.007718 -0.549084
1606.23046875 0.5049520000000001 -0.045048 -0.55
1606.48828125 0.07 -0.099387 -0.169387
1606.71484375 0.09687499999999999 -0.278125 -0.375
1607.00390625 0.042202 0.142521 0.100319
1607.2421875 0.04918800000000001 -0.127687 -0.176875
1607.55078125 0.044619000000000006 -0.032874 -0.077493
1607.83203125 0.04960300000000001 0.124603 0.075
1608.15234375 0.206922 0.179837 -0.027085
1608.484375 0.21907300000000002 0.124922 -0.094151
1608.75 0.81 0.345 -0.465
1608.98046875 0.09961699999999996 0.575 0.475383
1609.3046875 1.1137190000000001 0.788729 -0.32499
1609.53125 0.31187000000000004 0.658359 0.346489
1609.828125 0.367104 0.604197 0.237093
1610.24609375 0.18012099999999998 -0.005896 -0.186017
1610.6171875 0.399194 0.017161 -0.382033
1610.828125 0.06499999999999999 -0.11 -0.175
1611.1640625 0.855297 0.080544 -0.774753
1611.5625 0.401759 -0.10956 -0.511319
1611.84375 0.625019 0.171875 -0.453144
1612.1640625 0.954836 0.1799 -0.774936
1612.5 0.164611 -0.135 -0.299611
1612.71875 0.060938 0.050938 -0.01
1612.96875 0.083438 0.113438 0.03
1613.4296875 0.16864 -0.27636 -0.445
1613.74609375 0.106905 -0.236167 -0.343072
1614.03125 0.17049999999999998 -0.154542 -0.325042
1614.36328125 0.6923630000000001 0.424636 -0.267727
1614.609375 0.058297 0.13 0.071703
1614.87890625 0.721977 0.520656 -0.201321
1615.16796875 0.600468 0.360468 -0.24
1615.375 0.22212900000000002 -0.18 -0.402129
1615.58984375 0.16047999999999996 -0.517648 -0.678128
1615.890625 0.19708899999999996 -0.572169 -0.769258
1616.27734375 0.341078 0.424591 0.083513
1616.5078125 0.42712799999999995 -0.162872 -0.59
1617.14453125 1.198993 0.404927 -0.794066
1617.40234375 1.10072 0.334826 -0.765894
1617.61328125 1.414629 0.43 -0.984629
1618.16015625 0.879232 0.382551 -0.496681
1618.4140625 0.957693 0.365 -0.592693
1618.69140625 0.7012050000000001 0.319753 -0.381452
1619.3125 0.06875800000000004 -0.35 -0.418758
1619.69921875 0.21404600000000001 0.265 0.050954
1620.03125 0.5382250000000001 -0.067344 -0.605569
1620.71875 0.10884399999999994 -0.570625 -0.679469
1621.09765625 0.6791769999999999 0.235 -0.444177
1621.4921875 0.07110400000000003 -0.195732 -0.266836
1621.7734375 0.327826 -0.008934 -0.33676
1622.16015625 1.0751789999999999 0.55 -0.525179
1622.45703125 0.7201789999999999 0.195 -0.525179
1622.75390625 0.400972 -0.117479 -0.518451
1623.01171875 0.898562 0.104698 -0.793864
1623.4375 0.10965800000000003 -0.210304 -0.319962
1623.9765625 0.20719600000000002 -0.057775 -0.264971
1624.50390625 0.406141 -0.379927 -0.786068
1624.78515625 0.506243 -0.137208 -0.643451
1625.12890625 0.644486 -0.06224 -0.706726
1625.4140625 0.08602399999999999 -0.005056 -0.09108
1625.88671875 0.797585 0.104688 -0.692897
1626.32421875 0.398488 -0.056973 -0.455461
1626.7734375 0.641567 0.122957 -0.51861
1627.05859375 0.95018 0.22 -0.73018
1627.359375 0.511291 0.503418 -0.007873
1627.67578125 0.19746 0.047281 -0.150179
1627.890625 0.17875500000000002 0.166836 -0.011919
1628.41015625 0.677942 0.659509 -0.018433
1628.74609375 0.25328 0.165077 -0.088203
1629.34375 0.260668 0.008437 -0.252231
1629.75 0.6785209999999999 0.235 -0.443521
1630.10546875 1.304986 0.429986 -0.875
1630.3359375 0.18721 0.283545 0.096335
1630.66015625 0.120515 -0.053634 -0.174149
1631.109375 0.139548 -0.04085 -0.180398
1631.42578125 0.061894000000000005 -0.402488 -0.464382
1631.640625 0.216194 -0.073418 -0.289612
1631.84765625 1.239528 0.504344 -0.735184
1632.38671875 0.16698300000000002 -0.153232 -0.320215
1632.70703125 0.127966 -0.242285 -0.370251
1632.96875 0.7881090000000001 0.250375 -0.537734
1633.29296875 1.069837 0.665203 -0.404634
1633.57421875 0.367624 0.194004 -0.17362
1633.85546875 0.374892 0.099968 -0.274924
1634.171875 0.709387 0.25 -0.459387
1634.46875 0.9295859999999999 0.203008 -0.726578
1634.76953125 1.214698 0.525 -0.689698
1635.1015625 0.291884 -0.157891 -0.449775
1635.484375 1.1724999999999999 0.755 -0.4175
1635.875 0.933219 0.965 0.031781
1636.23828125 1.7963179999999999 1.013445 -0.782873
1636.57421875 1.5845500000000001 0.715 -0.86955
1636.90234375 0.654362 0.793032 0.13867
1637.1171875 0.31684199999999996 -0.133292 -0.450134
1637.47265625 0.265783 -0.124775 -0.390558
1637.8359375 0.27643700000000004 -0.266849 -0.543286
1640.52734375 0.34755899999999995 0.193597 -0.153962
1642.80859375 0.32538599999999995 -0.011657 -0.337043
1643.0390625 0.526918 0.189875 -0.337043
1645.21875 0.349271 0.106906 -0.242365
1646.78125 0.911896 0.828068 -0.083828
1648.0078125 0.961851 0.78 -0.181851
1649.1640625 0.972477 0.730544 -0.241933
1650.37890625 0.9278949999999999 0.817958 -0.109937
1651.53515625 0.9299999999999999 0.87 -0.06
1652.66796875 0.9182480000000001 0.903324 -0.014924
1653.77734375 0.9860000000000001 0.93 -0.056
1654.91015625 0.9219069999999999 0.93253 0.010623
1656.1015625 0.899217 0.904242 0.005025
1657.23046875 0.920349 0.924736 0.004387
1658.36328125 0.9283399999999999 0.921758 -0.006582
1659.45703125 0.8975820000000001 0.916869 0.019287
1660.55078125 0.885038 0.798672 -0.086366
1661.6953125 0.8952899999999999 0.754377 -0.140913
1662.87890625 0.862041 0.758033 -0.104008
1664.02734375 0.904943 0.78 -0.124943
1665.140625 0.9176920000000001 0.777838 -0.139854
1666.20703125 0.8740549999999999 0.758442 -0.115613
1667.33984375 0.86276 0.67 -0.19276
1668.50390625 0.918155 0.71328 -0.204875
1669.6171875 0.877783 0.684783 -0.193
1670.703125 0.924189 0.709203 -0.214986
1671.7578125 0.92287 0.68287 -0.24
1672.78515625 0.89706 0.75206 -0.145
1673.859375 0.893741 0.759004 -0.134737
1674.93359375 0.902459 0.76574 -0.136719
1675.9765625 0.898487 0.742726 -0.155761
1676.96484375 0.898755 0.693755 -0.205
1677.90625 0.909141 0.644141 -0.265
1678.88671875 0.878946 0.633946 -0.245
1679.8828125 0.913675 0.723675 -0.19
1680.85546875 0.871424 0.679986 -0.191438
1681.8203125 0.91088 0.66588 -0.245
1682.75 0.914775 0.675 -0.239775
1683.6796875 0.89378 0.674526 -0.219254
1684.578125 0.888437 0.679663 -0.208774
1685.51953125 0.905726 0.654986 -0.25074
1686.48828125 0.87958 0.625 -0.25458
1687.3984375 0.9281280000000001 0.655 -0.273128
1688.29296875 0.8889419999999999 0.584637 -0.304305
1689.1484375 0.871563 0.539296 -0.332267
1690.0 0.886554 0.59 -0.296554
1690.87890625 0.897927 0.653089 -0.244838
1691.796875 0.860601 0.619908 -0.240693
1692.6953125 0.9038 0.6588 -0.245
1693.55859375 0.8901720000000001 0.679718 -0.210454
1694.4296875 0.885616 0.695728 -0.189888
1695.29296875 0.882551 0.647844 -0.234707
1696.12109375 0.8897030000000001 0.634739 -0.254964
1696.96484375 0.846287 0.61 -0.236287
1697.859375 0.883959 0.679004 -0.204955
1698.74609375 0.8813949999999999 0.666723 -0.214672
1699.625 0.882439 0.67 -0.212439
1700.4765625 0.9031950000000001 0.675 -0.228195
1701.30078125 0.874851 0.669636 -0.205215
1702.8203125 0.842159 0.577473 -0.264686
1703.95703125 0.990364 0.787561 -0.202803
1704.859375 0.913193 0.77625 -0.136943
1706.3671875 1.181667 1.04 -0.141667
1707.53515625 0.933173 0.895906 -0.037267
1708.4140625 0.946171 0.865 -0.081171
1709.35546875 0.9349609999999999 0.835275 -0.099686
1710.3515625 0.883612 0.803889 -0.079723
1711.3046875 0.927859 0.762391 -0.165468
1712.24609375 0.911352 0.703563 -0.207789
1713.16796875 0.9563489999999999 0.721737 -0.234612
1714.078125 0.946076 0.721076 -0.225
1715.06640625 1.0281 0.700829 -0.327271
1716.015625 0.903756 0.874915 -0.028841
1716.9921875 0.875764 0.91608 0.040316
1717.96484375 0.909596 0.877791 -0.031805
1718.953125 0.974121 0.834121 -0.14
1719.9296875 0.9851829999999999 0.878817 -0.106366
1720.9375 1.023086 0.77125 -0.251836
1721.9765625 1.0788069999999998 1.009121 -0.069686
1723.03515625 1.061191 0.932691 -0.1285
1724.0703125 1.084876 0.954289 -0.130587
1725.05859375 1.109519 0.999949 -0.10957
1726.07421875 1.1898279999999999 1.039019 -0.150809
1727.10546875 1.088739 1.095 0.006261
1728.1796875 1.081248 0.966702 -0.114546
1729.2109375 1.1239080000000001 1.054343 -0.069565
1730.23828125 1.075156 1.05 -0.025156
1731.25390625 1.109888 0.97 -0.139888
1732.1953125 1.117599 1.079464 -0.038135
1733.1953125 1.090884 1.015 -0.075884
1734.234375 0.922379 0.206572 -0.715807
1735.265625 1.1295959999999998 1.100361 -0.029235
1736.2421875 1.138476 0.974792 -0.163684
1737.18359375 1.124779 0.919779 -0.205
1738.1015625 1.125745 1.020745 -0.105
1739.07421875 1.142609 0.961652 -0.180957
1740.0390625 1.103234 0.99994 -0.103294
1740.9765625 1.161602 1.076282 -0.08532
1741.9140625 1.119385 0.984971 -0.134414
1742.82421875 1.1043249999999998 1.009548 -0.094777
1743.703125 1.208941 0.979365 -0.229576
1744.55078125 1.0516159999999999 1.023882 -0.027734
1745.46484375 1.056397 0.987712 -0.068685
1746.390625 1.059283 0.928672 -0.130611
1747.3125 1.195502 0.9 -0.295502
1748.18359375 1.153883 0.98653 -0.167353
1749.015625 1.505744 0.061572 -1.444172
1749.90234375 1.3809529999999999 -0.124672 -1.505625
1750.50390625 1.499606 -0.07 -1.569606
1751.3984375 1.4638 -0.095 -1.5588
1752.04296875 1.4812260000000002 -0.076404 -1.55763
1752.6171875 1.440622 -0.255925 -1.696547
1753.3984375 1.46752 -0.171226 -1.638746
1754.01953125 1.479853 -0.1251 -1.604953
1754.546875 1.403446 -0.125879 -1.529325
1755.0625 1.3916110000000002 -0.2025 -1.594111
1755.53125 1.42847 -0.125 -1.55347
1755.99609375 1.40472 -0.099421 -1.504141
1756.4453125 1.35565 -0.159305 -1.514955
1756.9140625 1.249962 -0.145038 -1.395
1757.4140625 1.319537 -0.120195 -1.439732
1757.921875 1.281479 -0.145 -1.426479
1758.41015625 1.3034869999999998 -0.113914 -1.417401
1758.89453125 1.241756 -0.160041 -1.401797
1759.37890625 1.234537 -0.17107 -1.405607
1759.86328125 1.279646 -0.130333 -1.409979
1760.33984375 1.3103369999999999 -0.068548 -1.378885
1760.80859375 1.3054109999999999 -0.08 -1.385411
1761.27734375 1.280695 -0.055519 -1.336214
1761.7578125 1.189503 -0.146007 -1.33551
1762.23828125 1.2620019999999998 -0.172754 -1.434756
1762.75 1.2546240000000002 -0.15 -1.404624
1763.2578125 1.378141 -0.048594 -1.426735
1763.77734375 1.358709 -0.070884 -1.429593
1764.2890625 1.289504 -0.153652 -1.443156
1764.79296875 1.2899379999999998 -0.146265 -1.436203
1765.30078125 1.235387 -0.212301 -1.447688
1765.82421875 1.2690590000000002 -0.186246 -1.455305
1766.328125 1.350815 -0.078932 -1.429747
1766.80859375 1.359156 -0.055 -1.414156
1767.28515625 1.36306 -0.034475 -1.397535
1767.75390625 1.3943079999999999 -0.020324 -1.414632
1768.2109375 1.2703309999999999 -0.119669 -1.39
1768.71875 1.308397 -0.117681 -1.426078
1769.23828125 1.2972469999999998 -0.076518 -1.373765
1769.765625 1.356566 -0.051438 -1.408004
1770.26953125 1.370375 -0.059625 -1.43
1770.78515625 1.399303 -0.07 -1.469303
1771.26953125 1.324895 -0.125 -1.449895
1771.78515625 1.325139 -0.092492 -1.417631
1772.27734375 1.239955 -0.120409 -1.360364
1772.765625 1.250906 -0.096943 -1.347849
1773.25390625 1.418834 -0.011595 -1.430429
1773.734375 1.407592 0.014189 -1.393403
1774.171875 1.380518 -0.045211 -1.425729
1774.66796875 1.314954 -0.089145 -1.404099
1775.171875 1.269408 -0.17041 -1.439818
1775.71875 1.336767 -0.156395 -1.493162
1776.234375 1.348045 -0.122246 -1.470291
1776.73046875 1.37106 -0.08541 -1.45647
1777.20703125 1.357595 -0.051265 -1.40886
1777.71484375 1.357235 -0.132765 -1.49
1778.19921875 1.353926 -0.11059 -1.464516
1778.7265625 1.329548 -0.119836 -1.449384
1779.18359375 1.408323 -0.11 -1.518323
1779.6640625 1.370892 -0.079108 -1.45
1780.125 1.388125 -0.03 -1.418125
1780.6015625 1.259254 -0.130933 -1.390187
1781.1015625 1.340822 -0.081077 -1.421899
1781.65234375 1.297602 -0.050151 -1.347753
1782.16015625 1.3751570000000002 0.056245 -1.318912
1782.66796875 1.352051 0.0 -1.352051
1783.1640625 1.372487 0.045422 -1.327065
1783.66015625 1.330289 0.00427 -1.326019
1784.1328125 1.41147 0.056638 -1.354832
1784.62109375 1.4037110000000002 0.06139 -1.342321
1785.09765625 1.340948 0.036218 -1.30473
1785.60546875 1.3393780000000002 -0.030622 -1.37
1786.08984375 1.401487 0.052018 -1.349469
1786.57421875 1.361896 0.051951 -1.309945
1787.046875 1.4063510000000001 0.069182 -1.337169
1787.56640625 1.3745640000000001 0.04 -1.334564
1788.08203125 1.40679 0.031635 -1.375155
1788.58984375 1.336927 -0.043181 -1.380108
1789.09375 1.3754570000000002 -0.069192 -1.444649
1789.6015625 1.42544 -0.023698 -1.449138
1790.09375 1.4264999999999999 -0.006328 -1.432828
1790.58984375 1.467818 0.051142 -1.416676
1791.05859375 1.43341 0.047944 -1.385466
1791.54296875 1.413001 0.049116 -1.363885
1792.015625 1.458291 0.025078 -1.433213
1792.515625 1.4512450000000001 0.041582 -1.409663
1792.9921875 1.43528 0.018292 -1.416988
1793.51171875 1.459326 0.067828 -1.391498
1794.02734375 1.432085 0.052819 -1.379266
1794.55859375 1.403922 0.035 -1.368922
1795.06640625 1.429546 0.035 -1.394546
1795.578125 1.421807 0.065 -1.356807
1796.04296875 1.463899 0.052315 -1.411584
1796.546875 1.394102 -0.024785 -1.418887
1797.05078125 1.3849589999999998 -0.04279 -1.427749
1797.56640625 1.346413 -0.026274 -1.372687
1798.0234375 1.465509 0.042347 -1.423162
1798.51171875 1.369361 -0.030364 -1.399725
1799.01953125 1.324289 -0.080014 -1.404303
1799.5546875 1.327119 -0.027649 -1.354768
1800.05859375 1.379203 0.015 -1.364203
1800.55078125 1.324002 -0.015956 -1.339958
1801.07421875 1.290292 -0.055585 -1.345877
1801.60546875 1.3128959999999998 -0.005014 -1.31791
1802.109375 1.3122660000000002 -0.067686 -1.379952
1802.5859375 1.2897589999999999 -0.125496 -1.415255
1803.09375 1.298672 -0.126328 -1.425
1803.59765625 1.293079 -0.016921 -1.31
1804.0625 1.360938 0.067 -1.293938
1804.5390625 1.302041 -0.005168 -1.307209
