462209 
229 
453 
676 
901 
1127 
1338 
1502 
1747 
1944 
2168 
2285 
2609 
2808 
2993 
3179 
3374 
3569 
3766 
3990 
4222 
4414 
4598 
4785 
4984 
5193 
5402 
5607 
5820 
6018 
6201 
6392 
6591 
6802 
7024 
7235 
7431 
7629 
7819 
8012 
8211 
8420 
8635 
8848 
8986 
9231 
9422 
9623 
9824 
10030 
10242 
10447 
10645 
10838 
11025 
11234 
11453 
11670 
11880 
12079 
12270 
12458 
12649 
12843 
13059 
13277 
13487 
13687 
13880 
14082 
14289 
14496 
14707 
14925 
15122 
15307 
15492 
15684 
15891 
16110 
16323 
16523 
16719 
16903 
17082 
17272 
17470 
17686 
17946 
18148 
18336 
18530 
18719 
18911 
19112 
19319 
19535 
19737 
19922 
20033 
20134 
20226 
20332 
20502 
20662 
20915 
21114 
21223 
21485 
21657 
21777 
22028 
22234 
22374 
22628 
22806 
22976 
23143 
23317 
23499 
23683 
23844 
24129 
24317 
24502 
24689 
24888 
25090 
25295 
25495 
25704 
25904 
26093 
26277 
26463 
26665 
26873 
27072 
27262 
27452 
27630 
27807 
27989 
28180 
28382 
28601 
28712 
29007 
29199 
29397 
29598 
29798 
30017 
30126 
30466 
30661 
30852 
31065 
31276 
31493 
31715 
31828 
32136 
32329 
32524 
32623 
32957 
33178 
33395 
33501 
33786 
33978 
34177 
34376 
34582 
34808 
35009 
35189 
35364 
35549 
35741 
35948 
36169 
36375 
36585 
36688 
36970 
37151 
37347 
37552 
37755 
37899 
38141 
38335 
38512 
38698 
38886 
39081 
39289 
39503 
39708 
39818 
40116 
40322 
40478 
40573 
40757 
40972 
41182 
41286 
41407 
41727 
41935 
42143 
42346 
42549 
42740 
42928 
43119 
43236 
43528 
43751 
43972 
44139 
44392 
44588 
44730 
44995 
45195 
45419 
45637 
45843 
46040 
46232 
46438 
46659 
46882 
47111 
47339 
47541 
47736 
47935 
48054 
48384 
48600 
48805 
49006 
49192 
49292 
49568 
49767 
49969 
50173 
50369 
50545 
50724 
50843 
51086 
51267 
51461 
51653 
51838 
51967 
52188 
52353 
52531 
52711 
52895 
53076 
53263 
53440 
53616 
53784 
54262 
54566 
54773 
54982 
55177 
55369 
55562 
55741 
55958 
56179 
56394 
56514 
56778 
56959 
57155 
57354 
57460 
57767 
57979 
58176 
58359 
58542 
58648 
58938 
59155 
59363 
59561 
59757 
59949 
60141 
60336 
60548 
60771 
61000 
61210 
61312 
61444 
61794 
62005 
62214 
62423 
62632 
62829 
63019 
63205 
63410 
63617 
63825 
64027 
64224 
64409 
64591 
64771 
64873 
65140 
65344 
65451 
65726 
65905 
66000 
66257 
66446 
66551 
66848 
67066 
67279 
67467 
67655 
67848 
68056 
68278 
68497 
68611 
68943 
69144 
69346 
69468 
69790 
70021 
70243 
70449 
70552 
70858 
71059 
71269 
71482 
71708 
71921 
72120 
72321 
72532 
72745 
72960 
73178 
73400 
73603 
73785 
73973 
74181 
74390 
74605 
74822 
75026 
75229 
75430 
75634 
75761 
75899 
76290 
76506 
76899 
77102 
77294 
77491 
77697 
77910 
78104 
78282 
78467 
78659 
78868 
79086 
79303 
79528 
79741 
79937 
80038 
80373 
80744 
81104 
81307 
81510 
81728 
81955 
82061 
82398 
82612 
82817 
82916 
83203 
83403 
83619 
83830 
84032 
84235 
84431 
84623 
84821 
84940 
85242 
85464 
85679 
85869 
86063 
86259 
86464 
86674 
86885 
87109 
87325 
87520 
87619 
87753 
87839 
88211 
88429 
88640 
88841 
89032 
89149 
89404 
89601 
89746 
90018 
90223 
90350 
90598 
90781 
90968 
91152 
91348 
91544 
91680 
91954 
92134 
92227 
92519 
92723 
92933 
93138 
93345 
93548 
93749 
93947 
94149 
94384 
94621 
94847 
95061 
95262 
95363 
95703 
95926 
96173 
96403 
96603 
96795 
96982 
97178 
97379 
97583 
97785 
97998 
98185 
98363 
98546 
98739 
98954 
99176 
99396 
99609 
99819 
99919 
100231 
100449 
100681 
100828 
101140 
101351 
101558 
101768 
101983 
102207 
102439 
102667 
102869 
102968 
103297 
103520 
103745 
103966 
104181 
104386 
104580 
104781 
104935 
105236 
105461 
105671 
105785 
106069 
106274 
106474 
106678 
106906 
107131 
107336 
107540 
107744 
107963 
108189 
108406 
108631 
108845 
108950 
109240 
109445 
109653 
109870 
110081 
110277 
110465 
110646 
110823 
110935 
111180 
111366 
111561 
111762 
111947 
112123 
112312 
112514 
112723 
112939 
113160 
113381 
113487 
113796 
114005 
114233 
114363 
114680 
114894 
115093 
115283 
115469 
115660 
115795 
116110 
116337 
116553 
116756 
116959 
117174 
117286 
117609 
117842 
118052 
118238 
118424 
118543 
118829 
119051 
119262 
119474 
119671 
119860 
119975 
120063 
120249 
120454 
120666 
120872 
121064 
121246 
121426 
121609 
121791 
121919 
122184 
122393 
122597 
122783 
122879 
123169 
123366 
123573 
123786 
124000 
124208 
124402 
124592 
124799 
125025 
125254 
125473 
125698 
125906 
126116 
126331 
126552 
126672 
127028 
127169 
127436 
127628 
127826 
128024 
128226 
128437 
128646 
128844 
128945 
129215 
129410 
129611 
129812 
130006 
130204 
130392 
130569 
130738 
130854 
131103 
131302 
131498 
131688 
131869 
132051 
132227 
132413 
132608 
132816 
133036 
133261 
133459 
133648 
133846 
134043 
134243 
134446 
134648 
134847 
135037 
135212 
135327 
135574 
135775 
135976 
136171 
136364 
136484 
136730 
136913 
137101 
137293 
137507 
137639 
137929 
138121 
138311 
138508 
138714 
138841 
139126 
139353 
139488 
139741 
139927 
140053 
140316 
140518 
140655 
140911 
141104 
141283 
141455 
141633 
141759 
142010 
142209 
142400 
142579 
142749 
142872 
143105 
143280 
143468 
143658 
143858 
143997 
144242 
144417 
144516 
144802 
145005 
145211 
145418 
145626 
145818 
146000 
146182 
146380 
146592 
146807 
147007 
147200 
147380 
147558 
147734 
147914 
148102 
148306 
148503 
148684 
148855 
149020 
149190 
149377 
149562 
149749 
149951 
150159 
150348 
150524 
150710 
150900 
151022 
151325 
151527 
151742 
151942 
152128 
152319 
152518 
152732 
152954 
153165 
153362 
153561 
153755 
153950 
154151 
154358 
154571 
154786 
154983 
155167 
155367 
155510 
155778 
155988 
156196 
156405 
156598 
156785 
156980 
157194 
157415 
157626 
157845 
158053 
158255 
158458 
158665 
158890 
159009 
159356 
159568 
159764 
159969 
160183 
160288 
160628 
160860 
161071 
161170 
161473 
161672 
161897 
162115 
162336 
162555 
162758 
162957 
163157 
163372 
163596 
163825 
164043 
164243 
164450 
164549 
164862 
165078 
165287 
165420 
165711 
165895 
166032 
166290 
166492 
166627 
166911 
167110 
167233 
167493 
167673 
167791 
168073 
168284 
168487 
168687 
168870 
169056 
169245 
169434 
169638 
169773 
170093 
170288 
170486 
170678 
170890 
171102 
171322 
171555 
171781 
171986 
172085 
172414 
172648 
172887 
173122 
173355 
173566 
173771 
173982 
174087 
174449 
174675 
174883 
175080 
175274 
175478 
175683 
175799 
176131 
176349 
176547 
176739 
176946 
177068 
177361 
177569 
177780 
177982 
178169 
178353 
178548 
178765 
178981 
179190 
179405 
179604 
179805 
179906 
180215 
180438 
180663 
180781 
181078 
181269 
181459 
181659 
181853 
181957 
182261 
182467 
182652 
182831 
183016 
183208 
183416 
183623 
183830 
183943 
184251 
184442 
184637 
184840 
185054 
185275 
185490 
185693 
185895 
186092 
186294 
186504 
186719 
186941 
187152 
187341 
187528 
187634 
187938 
188142 
188349 
188555 
188756 
188945 
189135 
189330 
189547 
189771 
189987 
190205 
190406 
190608 
190816 
191022 
191253 
191488 
191713 
191925 
192127 
192346 
192574 
192803 
193036 
193275 
193483 
193690 
193906 
194049 
194385 
194611 
194835 
195046 
195148 
195449 
195660 
195873 
196092 
196297 
196486 
196681 
196877 
197065 
197271 
197482 
197596 
197904 
198091 
198276 
198477 
198678 
198881 
199091 
199301 
199511 
199610 
199901 
200106 
200239 
200549 
200757 
200964 
201163 
201359 
201561 
201661 
202006 
202229 
202449 
202653 
202849 
202970 
203275 
203486 
203719 
203944 
204150 
204350 
204553 
204681 
205009 
205232 
205457 
205672 
205871 
206066 
206273 
206383 
206720 
206937 
207135 
207335 
207524 
207627 
207907 
208105 
208308 
208513 
208701 
208882 
209068 
209266 
209463 
209666 
209876 
210088 
210299 
210398 
210706 
210920 
211142 
211354 
211573 
211697 
211997 
212198 
212401 
212618 
212738 
213077 
213280 
213479 
213680 
213887 
214097 
214310 
214424 
214578 
214678 
215025 
215217 
215414 
215619 
215821 
215959 
216228 
216419 
216607 
216784 
216972 
217163 
217370 
217576 
217783 
217980 
218086 
218211 
218538 
218747 
218961 
219184 
219393 
219589 
219722 
220016 
220229 
220454 
220677 
220792 
221123 
221323 
221536 
221763 
221990 
222213 
222437 
222649 
222855 
223063 
223166 
223516 
223736 
223939 
224131 
224323 
224521 
224721 
224848 
225151 
225369 
225501 
225760 
225946 
226139 
226333 
226535 
226738 
226950 
227146 
227328 
227427 
227706 
227911 
228122 
228331 
228542 
228750 
228950 
229157 
229374 
229600 
229840 
230072 
230286 
230408 
230742 
230963 
231198 
231350 
231682 
231889 
232092 
232318 
232540 
232759 
232986 
233091 
233413 
233607 
233803 
233913 
234238 
234447 
234655 
234858 
235052 
235250 
235444 
235639 
235845 
236052 
236248 
236431 
236616 
236799 
236998 
237205 
237317 
237636 
237848 
238045 
238238 
238443 
238588 
238882 
239105 
239320 
239535 
239741 
239947 
240166 
240399 
240643 
240766 
241103 
241323 
241548 
241768 
241899 
242249 
242477 
242682 
242883 
243098 
243311 
243528 
243747 
243962 
244169 
244361 
244558 
244691 
245003 
245220 
245432 
245625 
245813 
246006 
246200 
246399 
246621 
246836 
247039 
247231 
247417 
247523 
247832 
248042 
248257 
248485 
248689 
248877 
249075 
249282 
249507 
249619 
249973 
250195 
250403 
250599 
250813 
251038 
251272 
251506 
251720 
251825 
252146 
252348 
252564 
252672 
252817 
253180 
253377 
253565 
253757 
253949 
254142 
254343 
254542 
254745 
254931 
255112 
255300 
255505 
255712 
255916 
256126 
256327 
256524 
256719 
256920 
257132 
257256 
257604 
257814 
258017 
258214 
258427 
258640 
258854 
259088 
259312 
259514 
259716 
259918 
260133 
260270 
260587 
260801 
260932 
261210 
261399 
261599 
261799 
262018 
262135 
262452 
262649 
262846 
263045 
263240 
263371 
263663 
263872 
264067 
264248 
264437 
264636 
264836 
265038 
265250 
265456 
265655 
265845 
266044 
266147 
266492 
266713 
266937 
267147 
267360 
267496 
267807 
268039 
268285 
268516 
268730 
268938 
269165 
269395 
269626 
269878 
270060 
270338 
270551 
270764 
270986 
271212 
271321 
271667 
271867 
272054 
272251 
272455 
272673 
272896 
273111 
273312 
273507 
273694 
273887 
274089 
274292 
274503 
274702 
274878 
275054 
275242 
275428 
275610 
275799 
275986 
276174 
276355 
276524 
276688 
276871 
277064 
277266 
277461 
277663 
277855 
278041 
278217 
278399 
278589 
278796 
279003 
279203 
279399 
279585 
279751 
279978 
280177 
280388 
280608 
280822 
281018 
281118 
281426 
281641 
281857 
282071 
282300 
282413 
282713 
282906 
283112 
283337 
283558 
283689 
284000 
284203 
284324 
284609 
284814 
284957 
285252 
285453 
285641 
285829 
286026 
286133 
286433 
286638 
286850 
287057 
287245 
287426 
287628 
287842 
287978 
288275 
288489 
288694 
288892 
289097 
289303 
289439 
289772 
289987 
290203 
290405 
290617 
290836 
291057 
291295 
291533 
291750 
291965 
292187 
292420 
292659 
292893 
293137 
293298 
293393 
293736 
293954 
294183 
294393 
294603 
294808 
295002 
295191 
295381 
295580 
295786 
295995 
296187 
296366 
296552 
296668 
296935 
297135 
297341 
297549 
297760 
297879 
298130 
298333 
298539 
298747 
298956 
299159 
299353 
299540 
299719 
299900 
300097 
300297 
300492 
300681 
300867 
301041 
301211 
301384 
301555 
301734 
301930 
302117 
302294 
302464 
302631 
302796 
302916 
303148 
303331 
303518 
303720 
303909 
304085 
304203 
304444 
304635 
304836 
305034 
305231 
305439 
305562 
305840 
306034 
306241 
306358 
306700 
306921 
307130 
307337 
307550 
307692 
307990 
308221 
308449 
308659 
308856 
309073 
309193 
309515 
309740 
309961 
310179 
310378 
310580 
310805 
311037 
311271 
311403 
311735 
311953 
312170 
312387 
312627 
312872 
313000 
313323 
313531 
313753 
313977 
314197 
314441 
314668 
314874 
315085 
315296 
315525 
315672 
315984 
316122 
316415 
316607 
316804 
317003 
317216 
317335 
317648 
317837 
318025 
318213 
318401 
318595 
318798 
319009 
319218 
319401 
319577 
319767 
319889 
320166 
320371 
320584 
320796 
320925 
321185 
321382 
321509 
321814 
322022 
322150 
322424 
322611 
322792 
322977 
323165 
323302 
323578 
323771 
323956 
324129 
324307 
324434 
324532 
324858 
325066 
325184 
325473 
325650 
325751 
326019 
326213 
326318 
326603 
326806 
326998 
327175 
327348 
327533 
327725 
327933 
328143 
328356 
328568 
328768 
328968 
329172 
329384 
329617 
329850 
330069 
330278 
330492 
330712 
330932 
331163 
331400 
331632 
331838 
332044 
332266 
332373 
332710 
332924 
333129 
333324 
333511 
333614 
333907 
334118 
334325 
334527 
334725 
334912 
335105 
335300 
335499 
335707 
335844 
336134 
336317 
336419 
336670 
336852 
337047 
337238 
337424 
337629 
337817 
337996 
338180 
338378 
338592 
338823 
339050 
339269 
339490 
339696 
339914 
340146 
340311 
340641 
340863 
341083 
341309 
341536 
341766 
342008 
342258 
342483 
342698 
342928 
343171 
343410 
343660 
343897 
344125 
344343 
344567 
344826 
345083 
345320 
345545 
345762 
345981 
346206 
346441 
346683 
346914 
347116 
347307 
347511 
347722 
347833 
348143 
348364 
348563 
348749 
348941 
349140 
349359 
349586 
349808 
350038 
350255 
350459 
350685 
350923 
351172 
351413 
351638 
351867 
352087 
352312 
352554 
352792 
353035 
353253 
353458 
353576 
353885 
354092 
354299 
354505 
354704 
354887 
355071 
355263 
355468 
355679 
355878 
356081 
356199 
356456 
356638 
356742 
357014 
357224 
357421 
357607 
357786 
357959 
358132 
358321 
358509 
358711 
358933 
359087 
359248 
359545 
359735 
359934 
360148 
360357 
360568 
360789 
360992 
361195 
361411 
361632 
361868 
362105 
362328 
362543 
362758 
362963 
363172 
363384 
363608 
363828 
364027 
364219 
364427 
364530 
364832 
365037 
365165 
365421 
365596 
365768 
365937 
366117 
366310 
366510 
366708 
366911 
367100 
367288 
367406 
367672 
367874 
368083 
368289 
368476 
368594 
368865 
369065 
369263 
369459 
369671 
369813 
370096 
370280 
370410 
370709 
370936 
371158 
371388 
371612 
371749 
372027 
372234 
372460 
372691 
372811 
373120 
373317 
373511 
373703 
373909 
374123 
374347 
374552 
374744 
374937 
375151 
375355 
375566 
375787 
376010 
376229 
376427 
376633 
376862 
377090 
377306 
377417 
377745 
377943 
378139 
378336 
378551 
378667 
378992 
379197 
379396 
379591 
379788 
379894 
380195 
380413 
380628 
380822 
381011 
381200 
381405 
381612 
381817 
382028 
382243 
382431 
382614 
382803 
383002 
383216 
383435 
383648 
383864 
384070 
384171 
384479 
384697 
384914 
385140 
385348 
385447 
385726 
385914 
386101 
386291 
386488 
386683 
386883 
387064 
387236 
387416 
387614 
387817 
388025 
388247 
388463 
388668 
388771 
389083 
389305 
389535 
389651 
389985 
390184 
390384 
390495 
390804 
391013 
391165 
391460 
391650 
391844 
392044 
392261 
392484 
392594 
392949 
393159 
393359 
393566 
393782 
394020 
394256 
394483 
394711 
394926 
395143 
395375 
395615 
395863 
396076 
396272 
396471 
396668 
396863 
397075 
397187 
397503 
397703 
397883 
398056 
398259 
398458 
398657 
398866 
399073 
399268 
399453 
399634 
399821 
400023 
400152 
400415 
400606 
400789 
400965 
401134 
401257 
401481 
401669 
401866 
402055 
402231 
402348 
402568 
402742 
402927 
403119 
403316 
403453 
403742 
403930 
404054 
404300 
404497 
404630 
404914 
405108 
405314 
405499 
405671 
405845 
406028 
406216 
406350 
406607 
406793 
406896 
407177 
407362 
407553 
407754 
407958 
408111 
408391 
408581 
408778 
408986 
409202 
409420 
409649 
409879 
410102 
410312 
410529 
410772 
411012 
411247 
411411 
411717 
411937 
412089 
412404 
412647 
412880 
413099 
413297 
413497 
413705 
413838 
413926 
414143 
414369 
414583 
414681 
414977 
415179 
415394 
415608 
415822 
416048 
416260 
416463 
416617 
416900 
417127 
417361 
417582 
417795 
417997 
418207 
418313 
418648 
418878 
419102 
419304 
419505 
419714 
419931 
420153 
420376 
420495 
420828 
421019 
421229 
421449 
421666 
421879 
422099 
422303 
422506 
422704 
422902 
423134 
423366 
423590 
423805 
424009 
424216 
424423 
424636 
424860 
425085 
425296 
425491 
425686 
425892 
426103 
426318 
426542 
426773 
426976 
427167 
427366 
427576 
427798 
428009 
428216 
428423 
428614 
428803 
429009 
429128 
429259 
429621 
429834 
430027 
430220 
430406 
430590 
430782 
430979 
431183 
431386 
431567 
431738 
431922 
432108 
432296 
432481 
432666 
432849 
433032 
433206 
433317 
433549 
433742 
433942 
434134 
434330 
434526 
434705 
434889 
435072 
435259 
435458 
435668 
435869 
436051 
436229 
436402 
436578 
436764 
436884 
437132 
437323 
437510 
437684 
437846 
438017 
438130 
438383 
438578 
438776 
438968 
439077 
439343 
439515 
439689 
439876 
440070 
440200 
440497 
440692 
440893 
441092 
441298 
441422 
441733 
441956 
442168 
442362 
442545 
442668 
442951 
443157 
443375 
443587 
443789 
443979 
444094 
444372 
444583 
444802 
445004 
445138 
445412 
445604 
445803 
445902 
446217 
446426 
446636 
446832 
447019 
447204 
447402 
447596 
447793 
448004 
448215 
448404 
448592 
448780 
448980 
449194 
449407 
449620 
449843 
450040 
450226 
450416 
450615 
450826 
451027 
451226 
451427 
451617 
451806 
451998 
452199 
452407 
452625 
452830 
453023 
453213 
453393 
453582 
453699 
453972 
454171 
454384 
454572 
454746 
454861 
455125 
455320 
455513 
455712 
455911 
456109 
456210 
456483 
456669 
456883 
457093 
457301 
457427 
457707 
457900 
458093 
458283 
458489 
458707 
458836 
459105 
459289 
459471 
459661 
459858 
459988 
460256 
460468 
460597 
460838 
461013 
461136 
461377 
461575 
461763 
461941 
462127 
