8 
111 
213 
336 
518 
671 
766 
969 
1092 
1279 
1433 
1526 
1727 
1885 
2037 
2132 
2338 
2489 
2637 
2790 
2943 
3097 
3194 
3396 
3507 
3696 
3854 
3956 
4078 
4284 
4432 
4583 
4736 
4886 
5035 
5184 
5301 
5468 
5621 
5718 
5921 
6070 
6219 
6321 
6521 
6670 
6815 
6964 
7076 
7248 
7348 
7558 
7674 
7849 
7998 
8096 
8300 
8423 
8595 
8742 
8841 
9042 
9169 
9340 
9488 
9631 
9745 
9927 
10074 
10171 
10362 
10492 
10651 
10798 
10945 
11065 
11156 
11379 
11480 
11677 
11823 
11969 
12112 
12256 
12351 
12548 
12696 
12839 
12936 
13127 
13273 
13422 
13567 
13712 
13815 
13999 
14144 
14292 
14412 
14582 
14729 
14820 
15017 
15169 
15314 
15461 
15605 
15751 
15848 
16041 
16177 
16335 
16481 
16571 
16769 
16877 
17063 
17209 
17354 
17501 
17644 
17755 
17939 
18085 
18180 
18372 
18495 
18674 
18822 
18916 
19112 
19259 
19405 
19507 
19703 
19850 
19993 
20104 
20283 
20435 
20529 
20719 
20834 
20936 
21129 
21280 
21426 
21572 
21718 
21861 
22005 
22157 
22301 
22445 
22587 
22678 
22873 
23018 
23159 
23304 
23446 
23540 
23729 
23875 
24018 
24121 
24301 
24443 
24589 
24733 
24876 
24981 
25163 
25305 
25447 
25591 
25735 
25879 
26017 
26115 
26299 
26441 
26583 
26727 
26865 
27007 
27147 
27291 
27435 
27579 
27721 
27864 
28007 
28149 
28295 
28402 
28582 
28729 
28871 
29019 
29167 
29311 
29457 
29589 
29750 
29893 
30043 
30194 
30285 
30488 
30614 
30787 
30937 
31032 
31226 
31352 
31524 
31671 
31767 
31973 
32066 
32265 
32357 
32571 
32686 
32872 
33017 
33112 
33308 
33415 
33593 
33747 
33846 
34042 
34175 
34342 
34442 
34635 
34735 
34926 
35075 
35225 
35336 
35519 
35669 
35760 
35962 
36058 
36265 
36368 
36563 
36677 
36864 
37018 
37116 
37317 
37413 
37617 
37718 
37923 
38038 
38129 
38363 
38467 
38666 
38820 
38917 
39120 
39217 
39423 
39580 
39674 
39878 
39977 
40181 
40279 
40466 
40622 
40721 
40918 
41044 
41223 
41378 
41469 
41674 
41771 
41980 
42077 
42282 
42401 
42587 
42737 
42834 
43045 
43191 
43285 
43498 
43650 
43797 
43892 
44095 
44243 
44341 
44535 
44689 
44792 
44990 
45084 
45284 
45437 
45583 
45733 
45885 
46032 
46127 
46321 
46447 
46619 
46767 
46909 
47021 
47201 
47344 
47491 
47584 
47730 
47902 
48050 
48198 
48348 
48496 
48590 
48784 
48899 
49078 
49230 
49327 
49524 
49622 
49819 
49969 
50059 
50268 
50390 
50562 
50712 
50858 
50975 
51154 
51299 
51445 
51562 
51743 
51893 
51988 
52186 
52284 
52470 
52622 
52773 
52927 
53075 
53222 
53372 
53525 
53673 
53819 
53920 
54114 
54232 
54416 
54569 
54667 
54869 
54962 
55170 
55272 
55478 
55628 
55776 
55930 
56079 
56229 
56384 
56529 
56655 
56759 
56977 
57132 
57256 
57417 
57573 
57673 
57866 
58020 
58171 
58321 
58447 
58555 
58768 
58918 
59067 
59215 
59364 
59511 
59660 
59810 
59919 
60087 
60249 
60399 
60549 
60695 
60783 
60984 
61135 
61281 
61433 
61586 
61730 
61878 
61970 
62175 
62296 
62477 
62623 
62716 
62916 
63010 
63217 
63369 
63518 
63665 
63817 
63971 
64119 
64270 
64421 
64572 
64717 
64870 
65024 
65170 
65317 
65412 
65614 
65753 
65917 
66064 
66211 
66325 
66412 
66652 
66768 
66958 
67108 
67256 
67411 
67564 
67658 
67862 
68015 
68101 
68317 
68472 
68625 
68777 
68924 
69018 
69229 
69382 
69531 
69682 
69834 
69928 
70134 
70289 
70441 
70592 
70741 
70893 
70993 
71196 
71345 
71494 
71591 
71797 
71912 
72101 
72254 
72402 
72557 
72709 
72859 
73011 
73162 
73254 
73461 
73619 
73777 
73871 
74080 
74190 
74389 
74547 
74700 
74849 
74997 
75094 
75298 
75452 
75604 
75755 
75902 
75997 
76207 
76358 
76508 
76602 
76809 
76960 
77114 
77214 
77416 
77569 
77718 
77818 
78028 
78135 
78329 
78430 
78634 
78764 
79104 
79260 
79410 
79567 
79667 
79880 
80032 
80184 
80281 
80490 
80600 
80803 
80895 
81104 
81219 
81414 
81568 
81719 
81870 
82023 
82118 
82327 
82484 
82636 
82731 
82940 
83101 
83252 
83349 
83548 
83698 
83849 
83945 
84154 
84307 
84458 
84552 
84761 
84920 
85074 
85170 
85376 
85531 
85684 
85780 
85994 
86150 
86299 
86422 
86609 
86763 
86915 
87033 
87216 
87321 
87441 
87673 
87829 
87980 
88132 
88288 
88387 
88596 
88749 
88904 
89001 
89214 
89373 
89529 
89624 
89836 
89991 
90148 
90303 
90452 
90548 
90754 
90908 
91060 
91160 
91368 
91520 
91671 
91771 
91981 
92138 
92288 
92382 
92586 
92740 
92895 
92989 
93195 
93346 
93499 
93600 
93800 
93947 
94094 
94190 
94394 
94548 
94700 
94795 
94997 
95150 
95308 
95405 
95610 
95760 
95911 
96010 
96216 
96374 
96524 
96622 
96824 
96982 
97137 
97231 
97436 
97590 
97743 
97837 
98046 
98205 
98356 
98450 
98660 
98821 
98973 
99068 
99277 
99430 
99580 
99678 
99886 
100039 
100189 
100281 
100492 
100649 
100800 
100892 
101095 
101249 
101400 
101495 
101705 
101859 
102010 
102106 
102321 
102479 
102630 
102782 
102935 
103049 
103240 
103399 
103551 
103702 
103798 
104007 
104145 
104246 
104473 
104575 
104783 
104919 
105101 
105256 
105353 
105561 
105695 
105876 
106032 
106182 
106310 
106486 
106642 
106770 
106881 
107099 
107201 
107409 
107570 
107723 
107862 
108032 
108187 
108336 
108489 
108593 
108789 
108939 
109090 
109222 
109326 
109542 
109639 
109844 
109994 
110144 
110299 
110449 
110599 
110747 
110900 
111054 
111202 
111347 
111494 
111646 
111793 
111941 
112090 
112235 
112356 
112523 
112675 
112771 
112970 
113115 
113264 
113414 
113566 
113660 
113864 
114018 
114162 
114311 
114465 
114559 
114760 
114896 
115056 
115204 
115355 
115485 
115644 
115809 
115958 
116113 
116267 
116423 
116517 
116721 
116846 
117032 
117190 
117344 
117496 
117645 
117740 
117955 
118109 
118263 
118357 
118568 
118723 
118883 
118979 
119195 
119352 
119513 
119611 
119829 
119985 
120138 
120234 
120440 
120599 
120754 
120850 
121055 
121205 
121359 
121456 
121664 
121814 
121965 
122064 
122263 
122417 
122573 
122666 
122871 
123024 
123182 
123279 
123483 
123633 
123784 
123881 
124084 
124238 
124387 
124482 
124683 
124837 
124992 
125087 
125288 
125441 
125594 
125690 
125896 
126053 
126298 
126503 
126601 
126812 
126967 
127115 
127266 
127415 
127513 
127718 
127867 
128017 
128112 
128317 
128475 
128626 
128724 
128923 
129078 
129228 
129325 
129534 
129684 
129833 
129932 
130139 
130288 
130439 
130532 
130735 
130885 
131038 
131139 
131228 
131472 
131626 
131782 
131882 
132089 
132241 
132392 
132491 
132694 
132850 
133004 
133100 
133306 
133462 
133618 
133712 
133918 
134073 
134227 
134320 
134528 
134687 
134838 
134989 
135140 
135297 
135393 
135599 
135749 
135900 
135999 
136205 
136360 
136511 
136609 
136811 
136967 
137123 
137217 
137424 
137553 
137732 
137886 
138040 
138162 
138345 
138497 
138650 
138775 
138933 
139110 
139261 
139412 
139560 
139715 
139812 
140015 
140167 
140318 
140472 
140625 
140721 
140921 
141072 
141223 
141316 
141525 
141682 
141830 
141925 
142130 
142289 
142440 
142560 
142739 
142885 
143033 
143152 
143332 
143481 
143629 
143745 
143925 
144082 
144231 
144349 
144506 
144681 
144831 
144982 
145138 
145287 
145386 
145584 
145729 
145823 
146047 
146199 
146350 
146449 
146655 
146812 
146968 
147062 
147273 
147396 
147591 
147748 
147898 
148013 
148205 
148360 
148515 
148633 
148822 
148975 
149128 
149250 
149436 
149591 
149742 
149862 
150048 
150207 
150365 
150483 
150637 
150731 
150976 
151094 
151289 
151445 
151598 
151750 
151902 
151998 
152203 
152357 
152507 
152663 
152817 
152915 
153117 
153269 
153423 
153518 
153731 
153887 
154040 
154134 
154344 
154505 
154656 
154752 
154953 
155108 
155255 
155354 
155558 
155710 
155859 
155977 
156164 
156317 
156414 
156618 
156774 
156927 
157082 
157234 
157330 
157538 
157690 
157843 
157997 
158148 
158292 
158389 
158510 
158742 
158861 
159049 
159202 
159350 
159464 
159557 
159802 
159958 
160109 
160257 
160407 
160507 
160710 
160845 
160940 
161157 
161255 
161463 
161564 
161763 
161902 
162067 
162162 
162369 
162525 
162677 
162772 
162978 
163124 
163286 
163437 
163586 
163735 
163882 
164034 
164185 
164302 
164417 
164626 
164730 
164936 
165052 
165236 
165388 
165486 
165693 
165789 
166006 
166160 
166310 
166462 
166621 
166730 
166923 
167075 
167225 
167338 
167526 
167683 
167833 
167950 
168133 
168289 
168444 
168564 
168747 
168899 
168997 
169204 
169362 
169513 
169666 
169813 
169962 
170117 
170265 
170416 
170562 
170708 
170818 
171005 
171158 
171251 
171454 
171572 
171758 
171913 
172007 
172210 
172364 
172513 
172662 
172813 
172966 
173113 
173228 
173407 
173561 
173655 
173856 
173947 
174152 
174247 
174451 
174578 
174751 
174901 
174993 
175197 
175296 
175500 
175596 
175795 
175914 
176092 
176243 
176339 
176540 
176637 
176816 
176912 
177119 
177240 
177412 
177562 
177659 
177860 
177984 
178166 
178316 
178463 
178577 
178769 
178924 
179076 
179226 
179376 
179525 
179624 
179826 
179939 
180127 
180281 
180431 
180554 
180662 
180878 
180988 
181178 
181332 
181430 
181634 
181785 
181934 
182085 
182239 
182336 
182539 
182655 
182831 
182985 
183138 
183261 
183441 
183597 
183747 
183868 
184056 
184210 
184360 
184479 
184663 
184815 
184968 
185087 
185265 
185412 
185507 
185715 
185862 
186008 
186155 
186305 
186452 
186555 
186754 
186870 
187051 
187199 
187294 
187505 
187657 
187802 
187901 
188103 
188253 
188405 
188525 
188709 
188859 
188951 
189166 
189322 
189475 
189567 
189779 
189933 
190088 
190186 
190392 
190548 
190700 
190800 
191012 
191168 
191317 
191414 
191620 
191774 
191927 
192025 
192226 
192375 
192526 
192625 
192827 
192981 
193131 
193252 
193432 
193589 
193686 
193894 
194048 
194199 
194354 
194506 
194660 
194807 
194918 
195106 
195256 
195408 
195524 
195710 
195857 
195952 
196167 
196319 
196471 
196621 
196773 
196924 
197077 
197199 
197379 
197529 
197621 
197833 
197957 
198134 
198278 
198373 
198574 
198723 
198873 
199025 
199174 
199321 
199473 
199627 
199778 
199927 
200075 
200224 
200371 
200521 
200670 
200816 
200962 
201107 
201253 
201404 
201539 
201632 
201841 
201947 
202139 
202290 
202443 
202561 
202696 
202886 
203039 
203192 
203346 
203494 
203586 
203787 
203937 
204083 
204192 
204373 
204519 
204669 
204821 
204968 
205063 
205265 
205414 
205560 
205711 
205863 
206008 
206154 
206299 
206447 
206598 
206693 
206888 
207036 
207181 
207325 
207470 
207621 
207765 
207860 
208055 
208187 
208358 
208478 
208649 
208797 
208950 
209075 
209248 
209400 
209493 
209694 
209844 
209999 
210147 
210296 
210440 
210589 
210713 
210886 
211038 
211133 
211336 
211486 
211637 
211791 
211943 
212038 
212240 
212393 
212545 
212643 
212850 
212998 
213147 
213245 
213445 
213541 
213748 
213858 
214045 
214198 
214293 
214415 
214652 
214806 
214952 
215049 
215258 
215410 
215557 
215707 
215858 
215950 
216155 
216309 
216455 
216601 
216748 
216899 
217036 
217198 
217288 
217488 
217604 
217783 
217884 
218086 
218192 
218378 
218529 
218626 
218829 
218924 
219125 
219230 
219421 
219573 
219724 
219842 
220023 
220163 
220265 
220473 
220570 
220769 
220867 
221067 
221183 
221368 
221521 
221617 
221818 
221938 
222121 
222275 
222369 
222569 
222666 
222871 
222969 
223176 
223330 
223423 
223626 
223754 
223934 
224086 
224182 
224386 
224481 
224687 
224787 
224996 
225091 
225295 
225447 
225601 
225720 
225904 
226055 
226203 
226322 
226501 
226651 
226748 
226945 
227039 
227246 
227406 
227553 
227704 
227853 
227951 
228151 
228304 
228458 
228554 
228752 
228903 
229058 
229175 
229355 
229503 
229651 
229770 
229892 
230102 
230223 
230405 
230553 
230701 
230822 
231000 
231148 
231293 
231408 
231583 
231729 
231827 
232021 
232144 
232314 
232464 
232561 
232761 
232888 
233049 
233203 
233350 
233501 
233651 
233796 
233942 
234087 
234238 
234385 
234533 
234676 
234818 
234964 
235108 
235256 
235355 
235543 
235687 
235833 
235933 
236125 
236226 
236416 
236563 
236707 
236807 
237000 
237101 
237291 
237434 
237578 
237729 
237872 
237966 
238156 
238252 
238445 
238590 
238739 
238885 
239030 
239170 
239319 
239471 
239616 
239763 
239906 
240051 
240152 
240342 
240488 
240634 
240732 
240920 
241067 
241216 
241310 
241507 
241649 
241795 
241940 
242087 
242232 
242380 
242518 
242669 
242817 
242914 
243110 
243255 
243397 
243540 
243684 
243832 
243975 
244120 
244265 
244406 
244550 
244695 
244839 
244984 
245125 
245267 
245410 
245507 
245702 
245849 
245994 
246136 
246280 
246428 
246572 
246717 
246859 
247002 
247101 
247290 
247386 
247583 
247687 
247780 
248006 
248160 
248307 
248454 
248599 
248746 
248893 
249043 
249191 
249339 
249485 
249630 
249778 
249932 
250078 
250170 
250366 
250478 
250663 
250815 
250968 
251113 
251210 
251403 
251546 
251708 
251858 
251951 
252147 
252267 
252372 
252590 
252743 
252891 
252984 
253185 
253308 
253488 
253640 
253732 
253933 
254053 
254236 
254390 
254482 
254685 
254778 
254986 
255142 
255292 
255440 
255587 
255685 
255885 
255982 
256192 
256298 
256490 
256643 
256798 
256908 
257096 
257246 
257393 
257505 
257691 
257846 
257940 
258142 
258235 
258443 
258599 
258746 
258839 
259039 
259194 
259339 
259437 
259641 
259790 
259936 
260031 
260236 
260386 
260535 
260628 
260828 
260979 
261130 
261281 
261430 
261528 
261723 
261875 
262028 
262177 
262324 
262419 
262616 
262724 
262911 
263061 
263208 
263355 
263502 
263600 
263803 
263954 
264097 
264205 
264374 
264524 
264623 
264822 
264926 
265117 
265269 
265418 
265526 
265713 
265858 
266004 
266115 
266297 
266447 
266595 
266704 
266882 
267031 
267128 
267327 
267478 
267622 
267768 
267915 
268013 
268211 
268327 
268508 
268651 
268746 
268946 
269064 
269239 
269383 
269475 
269673 
269791 
269966 
270114 
270207 
270402 
270499 
270705 
270853 
270999 
271147 
271295 
271393 
271588 
271741 
271887 
271994 
272177 
272328 
272480 
272628 
272772 
272868 
273043 
273195 
273346 
273500 
273647 
273745 
273941 
274051 
274246 
274399 
274545 
274691 
274842 
274990 
275139 
275287 
275381 
275564 
275683 
275870 
276020 
276171 
276279 
276369 
276609 
276729 
276918 
277067 
277218 
277368 
277520 
277619 
277818 
277965 
278113 
278218 
278387 
278541 
278695 
278801 
278990 
279140 
279296 
279411 
279598 
279749 
279898 
280011 
280195 
280349 
280449 
280621 
280770 
280920 
281074 
281220 
281366 
281461 
281658 
281807 
281955 
282058 
282253 
282404 
282505 
282702 
282857 
283007 
283103 
283298 
283396 
283600 
283709 
283901 
284052 
284197 
284346 
284498 
284592 
284795 
284944 
285091 
285238 
285390 
285541 
285687 
285836 
285980 
286077 
286277 
286426 
286572 
286717 
286864 
286956 
287154 
287306 
287449 
287594 
287740 
287890 
288041 
288188 
288330 
288430 
288625 
288740 
288922 
289075 
289221 
289365 
289473 
289599 
289815 
289935 
290109 
290226 
290405 
290556 
290650 
290854 
290973 
291149 
291301 
291454 
291603 
291751 
291900 
291993 
292194 
292302 
292495 
292647 
292796 
292942 
293091 
293192 
293390 
293537 
293684 
293834 
293982 
294081 
294206 
294426 
294537 
294723 
294877 
295028 
295176 
295323 
295469 
295567 
295767 
295883 
296068 
296217 
296363 
296471 
296564 
296801 
296918 
297101 
297249 
297343 
297544 
297665 
297845 
297993 
298086 
298288 
298412 
298522 
298735 
298885 
299036 
299166 
299333 
299486 
299578 
299776 
299894 
300082 
300233 
300327 
300525 
300643 
300821 
300935 
301121 
301271 
301368 
301563 
301715 
301870 
301967 
302164 
302314 
302466 
302562 
302762 
302918 
303066 
303162 
303362 
303519 
303670 
303770 
303969 
304120 
304272 
304369 
304577 
304728 
304878 
304975 
305178 
305334 
305483 
305579 
305773 
305894 
306074 
306228 
306377 
306482 
306669 
306819 
306971 
307117 
307268 
307414 
307560 
307705 
307854 
308004 
308150 
308297 
308441 
308589 
308739 
308883 
309030 
309175 
309323 
309467 
309564 
309764 
309913 
310063 
310157 
310363 
310472 
310671 
310819 
310969 
311123 
311234 
311422 
311576 
311724 
311828 
312017 
312174 
312325 
312476 
312621 
312717 
312920 
313077 
313226 
313322 
313523 
313672 
313822 
313923 
314124 
314243 
314423 
314576 
314723 
314875 
314974 
315174 
315326 
315477 
315574 
315779 
315933 
316081 
316177 
316381 
316497 
316692 
316846 
316996 
317100 
317240 
317454 
317555 
317655 
317893 
318047 
318198 
318351 
318505 
318600 
318798 
318951 
319108 
319205 
319411 
319566 
319718 
319815 
320020 
320179 
320331 
320427 
320631 
320775 
320936 
321085 
321230 
321379 
321532 
321682 
321830 
321933 
322133 
322284 
322436 
322536 
322746 
322902 
323051 
323144 
323354 
323512 
323669 
323820 
323973 
324125 
324280 
324377 
324585 
324737 
324888 
324985 
325197 
325356 
325509 
325606 
325816 
325979 
326135 
326232 
326440 
326592 
326747 
326843 
327057 
327211 
327364 
327458 
327670 
327830 
327984 
328079 
328288 
328442 
328596 
328691 
328905 
329060 
329209 
329308 
329519 
329670 
329817 
329912 
330118 
330270 
330421 
330522 
330725 
330876 
331027 
331129 
331334 
331487 
331637 
331732 
331940 
332095 
332250 
332344 
332550 
332701 
332854 
332957 
333159 
333309 
333457 
333558 
333759 
333914 
334064 
334162 
334363 
334517 
334672 
334768 
334975 
335126 
335276 
335373 
335575 
335732 
335880 
335979 
336178 
336334 
336485 
336587 
336784 
336935 
337086 
337208 
337392 
337543 
337692 
337813 
337922 
338150 
338247 
338450 
338603 
338753 
338871 
339052 
339208 
339356 
339474 
339575 
339803 
339918 
340107 
340250 
340397 
340545 
340692 
340789 
340991 
341142 
341286 
341423 
341525 
341733 
341839 
342024 
342149 
342316 
342463 
342606 
342719 
342897 
343037 
343181 
343309 
343410 
343616 
343758 
343900 
344043 
344163 
344272 
344481 
344627 
344741 
344913 
345061 
345162 
345286 
345389 
345625 
345744 
345857 
346065 
346164 
346340 
346438 
346649 
346764 
346949 
347097 
347241 
347386 
347480 
347676 
347828 
347939 
348118 
348264 
348413 
348548 
348708 
348851 
348950 
349141 
349287 
349434 
349537 
349729 
349874 
350021 
350121 
350268 
350363 
350600 
350753 
350902 
350998 
351199 
351318 
351500 
351648 
351794 
351948 
352096 
352245 
352390 
352537 
352633 
352834 
352990 
353138 
353237 
353436 
353590 
353742 
353840 
354037 
354187 
354337 
354434 
354637 
354789 
354937 
355033 
355230 
355385 
355532 
355632 
355830 
355981 
356129 
356230 
356437 
356589 
356737 
356835 
357042 
357199 
357349 
357445 
357645 
357797 
357948 
358045 
358248 
358399 
358545 
358644 
358850 
359002 
359151 
359248 
359449 
359599 
359750 
359851 
360053 
360205 
360353 
360456 
360662 
360815 
360961 
361074 
361257 
361406 
361554 
361705 
361855 
362001 
362152 
362308 
362457 
362608 
362756 
362907 
363057 
363208 
363308 
363508 
363625 
363810 
363914 
364116 
364251 
364421 
364575 
364729 
364844 
365038 
365194 
365346 
365459 
365649 
365807 
365959 
366076 
366256 
366409 
366558 
366678 
366866 
367017 
367165 
367281 
367391 
367625 
367721 
367931 
368088 
368241 
368340 
368557 
368698 
368869 
369024 
369184 
369340 
369494 
369643 
369797 
369948 
370102 
370200 
370408 
370560 
370706 
370806 
371015 
371157 
371317 
371468 
371621 
371732 
371924 
372077 
372227 
372338 
372526 
372683 
372833 
372952 
373057 
373279 
373374 
373581 
373677 
373884 
373987 
374134 
374343 
374500 
374654 
374748 
374957 
375082 
375262 
375416 
375565 
375680 
375864 
376020 
376173 
376288 
376469 
376622 
376772 
376889 
377074 
377228 
377378 
377494 
377605 
377829 
377928 
378079 
378282 
378434 
378527 
378729 
378854 
379034 
379184 
379331 
379444 
379635 
379786 
379878 
380082 
380236 
380390 
380485 
380691 
380846 
380996 
381093 
381302 
381456 
381606 
381703 
381907 
382060 
382213 
382311 
382516 
382668 
382817 
382917 
383122 
383277 
383425 
383519 
383720 
383877 
384030 
384128 
384328 
384479 
384629 
384731 
384931 
385083 
385233 
385330 
385529 
385680 
385834 
385930 
386129 
386281 
386436 
386533 
386734 
386886 
387035 
387134 
387335 
387491 
387641 
387739 
387936 
388091 
388247 
388341 
388542 
388693 
388845 
388938 
389145 
389302 
389447 
389543 
389739 
389895 
390046 
390145 
390342 
390493 
390644 
390749 
390942 
391045 
391243 
391355 
391539 
391693 
391840 
391986 
392132 
392282 
392429 
392580 
392681 
392880 
393013 
393118 
393338 
393495 
393651 
393744 
393951 
394104 
394261 
394358 
394567 
394721 
394870 
394967 
395178 
395331 
395479 
395575 
395782 
395937 
396093 
396192 
396402 
396555 
396712 
396812 
397020 
397174 
397326 
397423 
397627 
397783 
397935 
398028 
398231 
398386 
398543 
398637 
398846 
398999 
399154 
399248 
399456 
399613 
399764 
399861 
400066 
400226 
400379 
400477 
400679 
400833 
400984 
401081 
401295 
401447 
401596 
401691 
401896 
402050 
402203 
402297 
402501 
402657 
402811 
402909 
403117 
403271 
403420 
403517 
403729 
403881 
404027 
404126 
404323 
404470 
404622 
404726 
404922 
405069 
405218 
405360 
405524 
405675 
405768 
405975 
406124 
406276 
406378 
406576 
406727 
406870 
406967 
407175 
407327 
407472 
407568 
407768 
407915 
408067 
408164 
408369 
408518 
408669 
408768 
408976 
409128 
409275 
409370 
409573 
409726 
409877 
409973 
410180 
410330 
410477 
410580 
410780 
410929 
411078 
411174 
411375 
411529 
411681 
411776 
411976 
412126 
412276 
412375 
412577 
412725 
412872 
412970 
413167 
413319 
413472 
413566 
413765 
413916 
414071 
414167 
414368 
414519 
414669 
414768 
414970 
415125 
415274 
415372 
415571 
415727 
415880 
415980 
416179 
416332 
416484 
416580 
416786 
416943 
417094 
417190 
417396 
417556 
417706 
417803 
418002 
418159 
418310 
418407 
418618 
418772 
418922 
419019 
419226 
419380 
419532 
419625 
419830 
419984 
420136 
420236 
420439 
420594 
420746 
420846 
421053 
421209 
421359 
421453 
421660 
421818 
421972 
422069 
422270 
422423 
422578 
422676 
422793 
423026 
423147 
423330 
423441 
423632 
423787 
423937 
424085 
424239 
424397 
424547 
424645 
424848 
424978 
425071 
425299 
425460 
425610 
425705 
425907 
426065 
426216 
426320 
426514 
426666 
426819 
426921 
427124 
427277 
427430 
427525 
427729 
427887 
428039 
428132 
428337 
428493 
428644 
428740 
428945 
429099 
429250 
429346 
429560 
429715 
429868 
429970 
430175 
430329 
430487 
430616 
430795 
430900 
431101 
431224 
431413 
431515 
431719 
431837 
432023 
432181 
432341 
432492 
432645 
432744 
432864 
433110 
433269 
433422 
433523 
433731 
433850 
434047 
434203 
434357 
434471 
434664 
434821 
434944 
435123 
435278 
435376 
435586 
435699 
435898 
436054 
436149 
436361 
436521 
436678 
436773 
436981 
437137 
437291 
437388 
437602 
437727 
437901 
438055 
438209 
438363 
438513 
438608 
438814 
438967 
439123 
439221 
439431 
439587 
439741 
439840 
440046 
440202 
440354 
440472 
440653 
440808 
440963 
441080 
441261 
441413 
441567 
441692 
441796 
442019 
442120 
442325 
442484 
442640 
442763 
442946 
443096 
443253 
443380 
443478 
443705 
443806 
444012 
444168 
444322 
444445 
444626 
444776 
444931 
445058 
445159 
445388 
445487 
445696 
445850 
446003 
446126 
446310 
446462 
446615 
446753 
446841 
447067 
447169 
447369 
447523 
447677 
447775 
447982 
448081 
448291 
448411 
448607 
448765 
448917 
449041 
449139 
449253 
449506 
449627 
449815 
449967 
450121 
450274 
450425 
450519 
450724 
450834 
451026 
451180 
451335 
451453 
451635 
451789 
451947 
452068 
452246 
452393 
452547 
452666 
452767 
452996 
453105 
453295 
453415 
453601 
453755 
453854 
454051 
454155 
454354 
454510 
454614 
454816 
454962 
455113 
455264 
455420 
455570 
455668 
455864 
456014 
456162 
456310 
456460 
456605 
456750 
456870 
457046 
457197 
457344 
457455 
457558 
457783 
457895 
458084 
458233 
458325 
458522 
458625 
458826 
458922 
459123 
459222 
459420 
459534 
459723 
459881 
460032 
460184 
460336 
460433 
460649 
460804 
460956 
461049 
461251 
461406 
461561 
461661 
461865 
462016 
462170 
