3.890625 1.624744 -0.022414 -1.647158
5.0703125 1.579991 -0.129559 -1.70955
6.21875 1.766007 -0.134504 -1.900511
7.4140625 1.618368 -0.090762 -1.70913
8.59765625 1.622687 -0.127313 -1.75
9.78125 1.684426 -0.003357 -1.687783
10.97265625 1.5915569999999999 -0.016966 -1.608523
12.14453125 1.6639599999999999 -0.155011 -1.818971
13.30859375 1.6297899999999998 -0.020164 -1.649954
14.52734375 1.599037 -0.022962 -1.621999
15.71484375 1.66845 -0.09 -1.75845
16.91796875 1.606012 0.046959 -1.559053
18.16796875 1.597264 -0.101499 -1.698763
19.375 1.553352 0.0 -1.553352
20.6171875 1.5061 -0.130603 -1.636703
21.8203125 1.567894 -0.082462 -1.650356
23.0859375 1.536551 -0.02087 -1.557421
24.3125 1.624445 -0.044219 -1.668664
25.5546875 1.554339 0.027008 -1.527331
26.77734375 1.5988499999999999 -0.12562 -1.72447
27.97265625 1.506339 -0.043661 -1.55
29.1953125 1.509467 -0.090395 -1.599862
30.33203125 1.704854 -0.085 -1.789854
31.49609375 1.620496 -0.024987 -1.645483
32.63671875 1.6037910000000002 -0.170864 -1.774655
33.80859375 1.618712 -0.041428 -1.66014
35.0390625 1.542641 0.019868 -1.522773
36.265625 1.668749 -0.04591 -1.714659
37.48046875 1.459525 -0.005042 -1.464567
38.734375 1.56315 -0.111527 -1.674677
39.9453125 1.5839219999999998 0.043281 -1.540641
41.203125 1.603616 -0.042187 -1.645803
42.41015625 1.7045219999999999 -0.087137 -1.791659
43.62890625 1.591031 -0.071821 -1.662852
44.83984375 1.667742 -0.177258 -1.845
46.03515625 1.5717999999999999 -0.06 -1.6318
47.26171875 1.5165909999999998 -0.176519 -1.69311
48.453125 1.5755020000000002 -0.139498 -1.715
49.67578125 1.57837 -0.036919 -1.615289
50.9375 1.645737 -0.108906 -1.754643
52.12890625 1.7213969999999998 0.020093 -1.701304
53.37890625 1.624261 -0.058812 -1.683073
54.60546875 1.684511 -0.05008 -1.734591
55.828125 1.532932 -0.086991 -1.619923
57.03515625 1.5826310000000001 -0.159619 -1.74225
58.26171875 1.47427 -0.110603 -1.584873
59.47265625 1.568667 -0.136333 -1.705
60.6875 1.505722 -0.031106 -1.536828
61.91015625 1.492319 -0.178224 -1.670543
63.12890625 1.4935900000000002 -0.084013 -1.577603
64.33984375 1.508624 -0.050634 -1.559258
65.578125 1.595523 -0.182398 -1.777921
66.7734375 1.572484 -0.059892 -1.632376
67.9921875 1.504915 -0.25 -1.754915
69.15234375 1.595077 -0.089923 -1.685
70.34765625 1.5430639999999998 -0.211936 -1.755
71.515625 1.72271 -0.196858 -1.919568
72.6796875 1.5547339999999998 -0.085533 -1.640267
73.8984375 1.5846850000000001 -0.166882 -1.751567
75.078125 1.6062589999999999 -0.025184 -1.631443
76.28125 1.532698 -0.167264 -1.699962
77.4609375 1.518645 -0.151264 -1.669909
78.69140625 1.531037 -0.081076 -1.612113
79.9140625 1.568696 -0.211304 -1.78
81.09765625 1.552482 -0.063696 -1.616178
82.32421875 1.491507 -0.236374 -1.727881
83.44921875 1.579821 -0.154914 -1.734735
84.66015625 1.5195589999999999 -0.189035 -1.708594
85.83203125 1.646893 -0.3137 -1.960593
87.05078125 1.6156920000000001 -0.177376 -1.793068
88.26953125 1.544451 -0.340381 -1.884832
89.50390625 1.5759630000000002 -0.218827 -1.79479
90.765625 1.596658 -0.297857 -1.894515
91.96875 1.613108 -0.121731 -1.734839
93.20703125 1.553513 -0.191526 -1.745039
94.43359375 1.640954 -0.0601 -1.701054
95.66796875 1.600177 -0.071822 -1.671999
96.87109375 1.664393 -0.055872 -1.720265
98.109375 1.592703 0.025839 -1.566864
99.3046875 1.663363 -0.095895 -1.759258
100.4921875 1.6683810000000001 0.057562 -1.610819
101.71875 1.615187 -0.138571 -1.753758
102.94140625 1.696793 0.004021 -1.692772
104.1484375 1.63727 -0.070425 -1.707695
105.37109375 1.816003 -0.084832 -1.900835
106.5703125 1.663006 -0.00686 -1.669866
107.7578125 1.746114 -0.163886 -1.91
108.921875 1.646007 -0.006319 -1.652326
110.140625 1.595714 -0.081348 -1.677062
111.3203125 1.5885660000000001 -0.091149 -1.679715
112.5234375 1.53308 -0.10925 -1.64233
113.7421875 1.704946 -0.109192 -1.814138
114.94921875 1.595758 -0.04384 -1.639598
116.1640625 1.658847 -0.100508 -1.759355
117.34375 1.558643 -0.036094 -1.594737
118.5625 1.4731349999999999 -0.167286 -1.640421
119.7421875 1.576465 -0.056348 -1.632813
120.9296875 1.4491759999999998 -0.082445 -1.531621
122.10546875 1.599926 -0.120074 -1.72
123.26171875 1.573266 -0.046187 -1.619453
124.44921875 1.603748 -0.195408 -1.799156
125.61328125 1.648691 -0.14 -1.788691
126.81640625 1.573897 -0.156103 -1.73
128.0078125 1.62479 -0.272037 -1.896827
129.20703125 1.603471 -0.143821 -1.747292
130.44140625 1.519693 -0.265816 -1.785509
131.6328125 1.628777 -0.251522 -1.880299
132.8203125 1.5867939999999998 -0.116084 -1.702878
134.03125 1.5997329999999998 -0.249392 -1.849125
135.22265625 1.616203 -0.067777 -1.68398
136.45703125 1.532963 -0.176904 -1.709867
137.671875 1.616542 -0.083865 -1.700407
138.8828125 1.527714 -0.101944 -1.629658
140.08203125 1.581327 -0.254942 -1.836269
141.2578125 1.500117 -0.123556 -1.623673
142.4765625 1.473929 -0.29425 -1.768179
143.640625 1.531358 -0.193642 -1.725
144.83984375 1.487379 -0.220801 -1.70818
146.01953125 1.5842829999999999 -0.27004 -1.854323
147.15625 1.6412 -0.115396 -1.756596
148.3515625 1.573153 -0.192737 -1.76589
149.5234375 1.620182 -0.248262 -1.868444
150.71875 1.6351239999999998 -0.117085 -1.752209
151.90625 1.48738 -0.235938 -1.723318
153.09765625 1.631218 -0.210438 -1.841656
154.30859375 1.492964 -0.14057 -1.633534
155.4921875 1.504878 -0.236077 -1.740955
156.65234375 1.5523280000000002 -0.11618 -1.668508
157.82421875 1.474428 -0.172596 -1.647024
158.984375 1.610727 -0.129215 -1.739942
160.14453125 1.5361729999999998 -0.060048 -1.596221
161.3671875 1.561482 -0.192985 -1.754467
162.57421875 1.553896 -0.160579 -1.714475
163.86328125 1.520661 -0.240592 -1.761253
165.09765625 1.651661 -0.173368 -1.825029
166.35546875 1.528127 -0.160005 -1.688132
167.5859375 1.5710709999999999 -0.215 -1.786071
168.82421875 1.582843 -0.183729 -1.766572
170.08203125 1.533368 -0.338079 -1.871447
171.3046875 1.4836529999999999 -0.236104 -1.719757
172.5625 1.4920710000000001 -0.324167 -1.816238
173.765625 1.541712 -0.31244 -1.854152
175.0078125 1.504372 -0.31738 -1.821752
176.18359375 1.644069 -0.312215 -1.956284
177.38671875 1.546628 -0.20313 -1.749758
178.58203125 1.519373 -0.323127 -1.8425
179.7421875 1.557775 -0.165623 -1.723398
180.9140625 1.471654 -0.205395 -1.677049
182.09765625 1.659212 -0.230788 -1.89
183.2421875 1.4953889999999999 -0.171102 -1.666491
184.4140625 1.584792 -0.310046 -1.894838
185.5859375 1.496709 -0.235137 -1.731846
186.78125 1.459959 -0.280526 -1.740485
187.9375 1.593214 -0.332951 -1.926165
189.125 1.455 -0.325 -1.78
190.328125 1.5181 -0.452417 -1.970517
191.46875 1.5281609999999999 -0.286645 -1.814806
192.65625 1.506453 -0.285881 -1.792334
193.83984375 1.6195720000000002 -0.300013 -1.919585
195.0234375 1.410422 -0.277737 -1.688159
196.2421875 1.4801250000000001 -0.373192 -1.853317
197.40234375 1.5522090000000002 -0.245132 -1.797341
198.609375 1.477889 -0.244109 -1.721998
199.765625 1.434174 -0.26703 -1.701204
200.97265625 1.459374 -0.135626 -1.595
202.171875 1.547104 -0.197896 -1.745
203.34765625 1.5726580000000001 -0.037342 -1.61
204.5625 1.436964 -0.256324 -1.693288
205.75390625 1.54226 -0.166881 -1.709141
206.96484375 1.451038 -0.237644 -1.688682
208.17578125 1.6066340000000001 -0.282484 -1.889118
209.35546875 1.5799969999999999 -0.195035 -1.775032
210.53125 1.4989160000000001 -0.365921 -1.864837
211.6875 1.605267 -0.357424 -1.962691
212.8515625 1.59289 -0.24211 -1.835
214.046875 1.586085 -0.398407 -1.984492
215.18359375 1.678381 -0.140864 -1.819245
216.359375 1.5909440000000001 -0.153433 -1.744377
217.5234375 1.674822 -0.137291 -1.812113
218.65625 1.648086 -0.026129 -1.674215
219.8203125 1.575037 -0.12885 -1.703887
220.953125 1.621406 -0.026775 -1.648181
222.109375 1.568793 -0.047116 -1.615909
223.25 1.659659 -0.135 -1.794659
224.40625 1.568911 -0.060481 -1.629392
225.59765625 1.583018 -0.141982 -1.725
226.7578125 1.5740750000000001 -0.045189 -1.619264
227.94921875 1.45709 -0.274377 -1.731467
229.12109375 1.432515 -0.249805 -1.68232
230.328125 1.497112 -0.19 -1.687112
231.5 1.655 -0.25 -1.905
232.6875 1.63846 -0.105937 -1.744397
233.875 1.502617 -0.285 -1.787617
235.046875 1.55472 -0.197839 -1.752559
236.203125 1.5188540000000001 -0.111141 -1.629995
237.3828125 1.603761 -0.153348 -1.757109
238.53125 1.610048 -0.021932 -1.63198
239.70703125 1.542909 -0.061969 -1.604878
240.87109375 1.6953239999999998 0.100013 -1.595311
242.07421875 1.578699 0.109567 -1.469132
243.28125 1.663294 -0.005714 -1.669008
244.4765625 1.586503 0.071503 -1.515
245.71484375 1.540877 -0.091505 -1.632382
246.8984375 1.637308 0.003423 -1.633885
248.125 1.457665 -0.09 -1.547665
249.32421875 1.554903 -0.168983 -1.723886
250.5078125 1.4893409999999998 -0.086483 -1.575824
251.7421875 1.4999019999999998 -0.225 -1.724902
252.9296875 1.5774709999999998 -0.047441 -1.624912
254.15625 1.520517 -0.071463 -1.59198
255.34375 1.510561 0.018 -1.492561
256.58203125 1.477733 -0.067753 -1.545486
257.80078125 1.6221329999999998 0.099584 -1.522549
259.0390625 1.551832 0.101569 -1.450263
260.2421875 1.6117629999999998 0.178829 -1.432934
261.4765625 1.540477 0.130641 -1.409836
262.67578125 1.700462 0.140417 -1.560045
263.8671875 1.629196 0.249344 -1.379852
265.078125 1.580237 0.116896 -1.463341
266.2265625 1.57791 0.14984 -1.42807
267.42578125 1.511527 0.055125 -1.456402
268.59765625 1.704953 0.074953 -1.63
269.78125 1.645191 0.161126 -1.484065
270.96875 1.683694 0.051437 -1.632257
272.12890625 1.677726 0.175484 -1.502242
273.30859375 1.638516 0.179218 -1.459298
274.46484375 1.650132 -0.002218 -1.65235
275.6328125 1.712963 0.137963 -1.575
276.83203125 1.6474449999999998 -0.088148 -1.735593
278.03515625 1.648841 -0.011159 -1.66
279.23828125 1.562429 -0.046162 -1.608591
280.47265625 1.646209 -0.098791 -1.745
281.68359375 1.6435199999999999 0.068633 -1.574887
282.91796875 1.577551 -0.047093 -1.624644
284.08203125 1.666849 -0.063026 -1.729875
285.26953125 1.569126 -0.070006 -1.639132
286.4609375 1.558144 -0.125627 -1.683771
287.625 1.636614 0.015 -1.621614
288.81640625 1.657538 0.004333 -1.653205
289.98046875 1.794021 0.019876 -1.774145
291.171875 1.646752 -0.022805 -1.669557
292.38671875 1.730394 -0.117554 -1.847948
293.578125 1.711348 -0.038652 -1.75
294.78515625 1.68141 -0.033542 -1.714952
295.95703125 1.682355 -0.050011 -1.732366
297.16015625 1.579626 -0.010374 -1.59
298.34765625 1.564618 -0.132817 -1.697435
299.52734375 1.589597 -0.00652 -1.596117
300.7109375 1.548513 -0.03 -1.578513
301.90234375 1.637125 -0.00248 -1.639605
303.078125 1.576038 -1.78E-4 -1.576216
304.28515625 1.648983 -0.033258 -1.682241
305.453125 1.598802 0.073882 -1.52492
306.6484375 1.544142 0.049631 -1.494511
307.80859375 1.630186 0.09832 -1.531866
308.9921875 1.626005 0.097157 -1.528848
310.171875 1.545155 -0.120533 -1.665688
311.32421875 1.598174 -0.003131 -1.601305
312.5078125 1.526538 -0.101817 -1.628355
313.66796875 1.707514 -0.062004 -1.769518
314.83984375 1.581504 -0.04623 -1.627734
316.01171875 1.581672 -0.227892 -1.809564
317.1875 1.632565 -0.08587 -1.718435
318.40234375 1.619166 -0.142571 -1.761737
319.5625 1.77444 -0.135 -1.90944
320.74609375 1.708871 -0.091057 -1.799928
321.90625 1.701769 -0.161065 -1.862834
323.0546875 1.691867 -0.001094 -1.692961
324.21484375 1.605318 -0.076306 -1.681624
325.3984375 1.768356 -0.075188 -1.843544
326.5546875 1.682568 -0.027437 -1.710005
327.73046875 1.754233 -0.155148 -1.909381
328.890625 1.6826860000000001 -0.037505 -1.720191
330.0703125 1.634909 -0.098184 -1.733093
331.2421875 1.713071 -0.166877 -1.879948
332.4140625 1.604724 -0.115045 -1.719769
333.6015625 1.763001 -0.216999 -1.98
334.7578125 1.628116 -0.171134 -1.79925
335.94921875 1.5272109999999999 -0.290436 -1.817647
337.08203125 1.651145 -0.176462 -1.827607
338.234375 1.589444 -0.165738 -1.755182
339.390625 1.590855 -0.271292 -1.862147
340.53125 1.6136030000000001 -0.080881 -1.694484
341.71875 1.473497 -0.205227 -1.678724
342.87109375 1.636431 -0.113516 -1.749947
344.0703125 1.607151 -0.02885 -1.636001
345.23828125 1.667609 -0.079288 -1.746897
346.39453125 1.6131069999999998 0.054892 -1.558215
347.56640625 1.527895 -0.085 -1.612895
348.73046875 1.6169820000000001 -0.19542 -1.812402
349.89453125 1.54462 -0.100066 -1.644686
351.078125 1.546108 -0.213892 -1.76
352.2578125 1.547133 -0.16979 -1.716923
353.4296875 1.486837 -0.242601 -1.729438
354.59375 1.609159 -0.260841 -1.87
355.73828125 1.549737 -0.148854 -1.698591
356.921875 1.471697 -0.235841 -1.707538
358.05859375 1.6050330000000002 -0.061049 -1.666082
359.21484375 1.57254 -0.100052 -1.672592
360.36328125 1.5509549999999999 -0.224045 -1.775
361.5 1.543998 -0.065 -1.608998
362.67578125 1.527953 -0.176369 -1.704322
363.83203125 1.529454 -0.17898 -1.708434
365.03515625 1.457749 -0.145719 -1.603468
366.2265625 1.53723 -0.183711 -1.720941
367.3984375 1.537417 -0.155341 -1.692758
368.59375 1.558751 -0.202871 -1.761622
369.73046875 1.602529 -0.180053 -1.782582
370.89453125 1.550282 -0.239443 -1.789725
372.02734375 1.728932 -0.203648 -1.93258
373.1875 1.668919 -0.13775 -1.806669
374.3671875 1.631069 -0.172407 -1.803476
375.53515625 1.638357 -0.042 -1.680357
376.74609375 1.610227 -0.066838 -1.677065
377.93359375 1.758642 -0.101358 -1.86
379.1484375 1.6935170000000002 0.001041 -1.692476
380.36328125 1.6001509999999999 -0.15473 -1.754881
381.52734375 1.705227 -0.033714 -1.738941
382.72265625 1.70472 0.033064 -1.671656
383.94921875 1.74649 -0.076793 -1.823283
385.140625 1.674227 0.044227 -1.63
386.37109375 1.558651 -0.04294 -1.601591
387.5546875 1.744242 -0.023955 -1.768197
388.7734375 1.6085230000000001 -0.00602 -1.614543
389.99609375 1.578638 -0.131362 -1.71
391.171875 1.577768 -0.026781 -1.604549
392.4140625 1.599809 -0.150191 -1.75
393.60546875 1.559974 -0.070026 -1.63
394.80078125 1.473738 -0.0917 -1.565438
395.9609375 1.60415 -0.128381 -1.732531
397.12890625 1.642555 0.032568 -1.609987
398.30859375 1.584221 -0.106358 -1.690579
399.46484375 1.578103 -0.055 -1.633103
400.65625 1.509326 -0.133621 -1.642947
401.83984375 1.568286 -0.056297 -1.624583
403.0625 1.599617 -0.04 -1.639617
404.2734375 1.5994220000000001 -0.131014 -1.730436
405.51953125 1.5218440000000002 -0.125093 -1.646937
406.73828125 1.5227970000000002 -0.248112 -1.770909
407.94140625 1.504588 -0.256919 -1.761507
409.15234375 1.4485439999999998 -0.307692 -1.756236
410.35546875 1.5993249999999999 -0.325117 -1.924442
411.51953125 1.539225 -0.235012 -1.774237
412.69921875 1.514602 -0.335398 -1.85
413.8671875 1.586718 -0.197609 -1.784327
415.0703125 1.561727 -0.191126 -1.752853
416.29296875 1.6741329999999999 -0.23537 -1.909503
417.484375 1.5991389999999999 -0.136816 -1.735955
418.7421875 1.539175 -0.211062 -1.750237
419.921875 1.633266 -0.246295 -1.879561
421.15234375 1.632371 -0.193613 -1.825984
422.34765625 1.662946 -0.267083 -1.930029
423.55078125 1.649977 -0.156369 -1.806346
424.7734375 1.56034 -0.29582 -1.85616
425.96875 1.709661 -0.365147 -2.074808
427.16796875 1.653018 -0.316147 -1.969165
428.3984375 1.6726829999999997 -0.365339 -2.038022
429.58203125 1.688321 -0.19158 -1.879901
430.76953125 1.629896 -0.255018 -1.884914
431.94921875 1.823005 -0.261369 -2.084374
433.12109375 1.69699 -0.193827 -1.890817
434.31640625 1.6740309999999998 -0.290442 -1.964473
435.46484375 1.679961 -0.194618 -1.874579
436.6640625 1.624657 -0.235047 -1.859704
437.828125 1.717757 -0.241497 -1.959254
439.01953125 1.599351 -0.185011 -1.784362
440.23046875 1.646542 -0.300095 -1.946637
441.390625 1.600776 -0.189514 -1.79029
442.59375 1.5499880000000001 -0.281129 -1.831117
443.76171875 1.643467 -0.246144 -1.889611
444.96484375 1.5899709999999998 -0.242015 -1.831986
446.1484375 1.69184 -0.302986 -1.994826
447.33984375 1.603006 -0.270585 -1.873591
448.5234375 1.554381 -0.340288 -1.894669
449.6640625 1.529382 -0.255021 -1.784403
450.8515625 1.554852 -0.250148 -1.805
452.01171875 1.6632609999999999 -0.233948 -1.897209
453.19140625 1.548348 -0.195714 -1.744062
454.36328125 1.510674 -0.299326 -1.81
455.53515625 1.577489 -0.157137 -1.734626
456.69921875 1.518624 -0.164967 -1.683591
457.8515625 1.612731 -0.153653 -1.766384
458.9921875 1.57642 -0.086348 -1.662768
460.19140625 1.557549 -0.255458 -1.813007
461.3515625 1.648895 -0.151105 -1.8
462.546875 1.582835 -0.288872 -1.871707
463.7421875 1.66961 -0.220348 -1.889958
464.94140625 1.600328 -0.245319 -1.845647
466.125 1.6749999999999998 -0.255 -1.93
467.3203125 1.647824 -0.192935 -1.840759
468.52734375 1.549483 -0.259089 -1.808572
469.6640625 1.564841 -0.165 -1.729841
470.8359375 1.495233 -0.205516 -1.700749
471.99609375 1.611324 -0.173626 -1.78495
473.140625 1.542803 -0.105537 -1.64834
474.328125 1.50553 -0.186263 -1.691793
475.49609375 1.547298 -0.067917 -1.615215
476.6953125 1.514239 -0.168663 -1.682902
477.8515625 1.6734799999999999 -0.13152 -1.805
479.06640625 1.562214 -0.13554 -1.697754
480.234375 1.685477 -0.182188 -1.867665
481.37890625 1.625133 -0.1509 -1.776033
482.55078125 1.6180160000000001 -0.260419 -1.878435
483.72265625 1.7036769999999999 -0.161323 -1.865
484.93359375 1.5068089999999998 -0.250604 -1.757413
486.12109375 1.7790689999999998 -0.195882 -1.974951
487.33984375 1.702008 -0.02209 -1.724098
488.54296875 1.653942 -0.192887 -1.846829
489.703125 1.654928 -0.075618 -1.730546
490.8671875 1.804691 -0.145127 -1.949818
492.01171875 1.647406 -0.073178 -1.720584
493.171875 1.627985 -0.08588 -1.713865
494.30859375 1.592077 -0.157634 -1.749711
495.46875 1.644652 -0.065 -1.709652
496.63671875 1.6483860000000001 -0.095538 -1.743924
497.8125 1.5825300000000002 -0.049516 -1.632046
499.01171875 1.5917919999999999 -0.096068 -1.68786
500.20703125 1.686842 0.001957 -1.684885
501.3984375 1.6534449999999998 -0.051155 -1.7046
502.57421875 1.672903 -0.027738 -1.700641
503.80859375 1.617698 -0.006103 -1.623801
505.0 1.71 -0.02 -1.73
506.23046875 1.596118 -0.060988 -1.657106
507.45703125 1.623422 -0.115 -1.738422
508.69921875 1.655348 -0.036409 -1.691757
509.93359375 1.706993 -0.136508 -1.843501
511.1640625 1.667424 -0.035318 -1.702742
512.38671875 1.587601 -0.128431 -1.716032
513.5703125 1.6390099999999999 -0.028955 -1.667965
514.78125 1.557556 -0.027808 -1.585364
515.97265625 1.654869 -0.015131 -1.67
517.18359375 1.546561 -0.025996 -1.572557
518.3671875 1.6673769999999999 -0.117777 -1.785154
519.5703125 1.658554 -0.066118 -1.724672
520.74609375 1.642663 -0.152325 -1.794988
521.90625 1.755306 -0.042188 -1.797494
523.08203125 1.7113930000000002 -0.078426 -1.789819
524.265625 1.725419 -0.236433 -1.961852
525.39453125 1.6981410000000001 -0.13 -1.828141
526.5625 1.604134 -0.247813 -1.851947
527.6875 1.677151 -0.232286 -1.909437
528.8359375 1.568794 -0.215421 -1.784215
529.98046875 1.672663 -0.220042 -1.892705
531.12109375 1.587135 -0.152859 -1.739994
532.3046875 1.543478 -0.256118 -1.799596
533.44140625 1.686339 -0.130555 -1.816894
534.625 1.617187 -0.135 -1.752187
535.8046875 1.692128 -0.272565 -1.964693
536.94921875 1.7727570000000001 -0.052468 -1.825225
538.1328125 1.800574 -0.179065 -1.979639
539.3046875 1.7501879999999999 -0.05743 -1.807618
540.49609375 1.6956989999999998 -0.199186 -1.894885
541.65234375 1.816966 -0.188029 -2.004995
542.86328125 1.650636 -0.193135 -1.843771
544.04296875 1.611325 -0.372449 -1.983774
545.1796875 1.568508 -0.333113 -1.901621
546.36328125 1.562448 -0.399608 -1.962056
547.5390625 1.588873 -0.365672 -1.954545
548.75 1.6039860000000001 -0.335 -1.938986
549.92578125 1.7684889999999998 -0.280472 -2.048961
551.14453125 1.614589 -0.235411 -1.85
552.3203125 1.7369960000000002 -0.302668 -2.039664
553.52734375 1.60378 -0.171215 -1.774995
554.73046875 1.576612 -0.284165 -1.860777
555.921875 1.6234199999999999 -0.165628 -1.789048
557.12109375 1.629154 -0.230804 -1.859958
558.3203125 1.771849 -0.167755 -1.939604
559.52734375 1.699896 -0.036258 -1.736154
560.72265625 1.68383 -0.12117 -1.805
561.8984375 1.634879 -0.011929 -1.646808
563.09375 1.58588 -0.183929 -1.769809
564.2734375 1.6203530000000002 -0.148569 -1.768922
565.44921875 1.582403 -0.114419 -1.696822
566.62890625 1.7232720000000001 -0.245585 -1.968857
567.796875 1.6115160000000002 -0.186049 -1.797565
568.94140625 1.6596380000000002 -0.278347 -1.937985
570.11328125 1.562996 -0.186451 -1.749447
571.26953125 1.5569760000000001 -0.265094 -1.82207
572.4140625 1.608166 -0.200521 -1.808687
573.5625 1.536455 -0.2435 -1.779955
574.7265625 1.6033579999999998 -0.161642 -1.765
575.8828125 1.534529 -0.116817 -1.651346
577.05859375 1.507743 -0.197397 -1.70514
578.21484375 1.524003 -0.065 -1.589003
579.4296875 1.481542 -0.179685 -1.661227
580.60546875 1.60345 -0.169703 -1.773153
581.8125 1.552221 -0.147222 -1.699443
583.03125 1.640974 -0.258269 -1.899243
584.234375 1.640748 -0.181122 -1.82187
585.4453125 1.642769 -0.286118 -1.928887
586.6171875 1.669872 -0.173581 -1.843453
587.8203125 1.616566 -0.212305 -1.828871
589.01171875 1.72301 -0.256326 -1.979336
590.2265625 1.6169529999999999 -0.168047 -1.785
591.45703125 1.655996 -0.236499 -1.892495
592.640625 1.6888480000000001 -0.140915 -1.829763
593.86328125 1.637717 -0.254483 -1.8922
595.06640625 1.679522 -0.100049 -1.779571
596.30859375 1.6432309999999999 -0.12562 -1.768851
597.51171875 1.800324 -0.114444 -1.914768
598.72265625 1.663732 -0.011268 -1.675
599.91796875 1.7456330000000002 -0.119085 -1.864718
601.0859375 1.7452390000000002 -0.018374 -1.763613
602.2734375 1.648503 -0.168366 -1.816869
603.4609375 1.750578 -0.149422 -1.9
604.6328125 1.611038 -0.085316 -1.696354
605.83984375 1.640509 -0.217052 -1.857561
607.0234375 1.686346 -0.026256 -1.712602
608.21875 1.65185 -0.155679 -1.807529
609.3984375 1.7178660000000001 -0.115 -1.832866
610.6015625 1.617079 -0.047921 -1.665
611.8046875 1.674488 -0.144973 -1.819461
612.9609375 1.5866710000000002 -0.01036 -1.597031
614.16015625 1.552838 -0.094576 -1.647414
615.32421875 1.699657 0.021871 -1.677786
616.5 1.645 -0.03 -1.675
617.6796875 1.782713 -0.095608 -1.878321
618.8671875 1.69036 0.015538 -1.674822
620.078125 1.699024 -0.155951 -1.854975
621.2265625 1.698989 -0.051011 -1.75
622.4453125 1.5919510000000001 -0.210438 -1.802389
623.609375 1.598188 -0.263287 -1.861475
624.77734375 1.565232 -0.085844 -1.651076
625.97265625 1.555021 -0.207083 -1.762104
627.16796875 1.563196 -0.065686 -1.628882
628.375 1.567647 -0.115 -1.682647
629.55078125 1.6680730000000001 -0.120277 -1.78835
630.76171875 1.652359 0.04277 -1.609589
631.98828125 1.572584 -0.123184 -1.695768
633.15234375 1.6206800000000001 -0.047305 -1.667985
634.33984375 1.618482 -0.072063 -1.690545
635.53515625 1.782486 -0.111923 -1.894409
636.703125 1.688092 -0.061876 -1.749968
637.90234375 1.66787 -0.225638 -1.893508
639.09765625 1.738298 -0.127895 -1.866193
640.296875 1.6432090000000001 -0.190778 -1.833987
641.51171875 1.6708629999999998 -0.268112 -1.938975
642.671875 1.720212 -0.135 -1.855212
643.8359375 1.7359939999999998 -0.305256 -2.04125
644.92578125 1.741915 -0.195935 -1.93785
646.04296875 1.7813279999999998 -0.151474 -1.932802
647.12890625 1.80218 -0.104203 -1.906383
648.21875 1.7706039999999998 -0.022199 -1.792803
649.33984375 1.859181 -0.058976 -1.918157
650.4453125 1.805441 -0.009229 -1.81467
651.59375 1.821335 -0.136263 -1.957598
652.69921875 1.840671 0.038876 -1.801795
653.8828125 1.6930399999999999 -0.040631 -1.733671
655.0546875 1.804691 -0.12048 -1.925171
656.23046875 1.636884 -0.155112 -1.791996
657.41796875 1.706485 -0.225755 -1.93224
658.58984375 1.6569209999999999 -0.197664 -1.854585
659.7890625 1.681835 -0.295438 -1.977273
660.94921875 1.668953 -0.265911 -1.934864
662.15625 1.635546 -0.362905 -1.998451
663.33203125 1.677394 -0.318277 -1.995671
664.515625 1.641649 -0.212188 -1.853837
665.6953125 1.689349 -0.28362 -1.972969
666.8828125 1.611821 -0.191125 -1.802946
668.05859375 1.636179 -0.285155 -1.921334
669.20703125 1.564372 -0.165762 -1.730134
670.390625 1.556705 -0.231533 -1.788238
671.53125 1.6019260000000002 -0.110785 -1.712711
672.7109375 1.5950389999999999 -0.185 -1.780039
673.86328125 1.692191 -0.146196 -1.838387
675.0859375 1.647281 -0.110366 -1.757647
676.26953125 1.722652 -0.195087 -1.917739
677.4765625 1.71587 -0.165117 -1.880987
678.6953125 1.557085 -0.326149 -1.883234
679.859375 1.629028 -0.222075 -1.851103
681.06640625 1.564532 -0.260534 -1.825066
682.265625 1.677478 -0.242232 -1.91971
683.453125 1.714492 -0.140497 -1.854989
684.64453125 1.702132 -0.255425 -1.957557
685.82421875 1.739234 -0.148989 -1.888223
687.03515625 1.6511 -0.25873 -1.90983
688.19921875 1.6132819999999999 -0.191316 -1.804598
689.3984375 1.538976 -0.198455 -1.737431
690.58984375 1.66373 -0.090163 -1.753893
691.7734375 1.553604 0.064521 -1.489083
692.95703125 1.560209 -0.140177 -1.700386
694.14453125 1.591813 -0.080144 -1.671957
695.33984375 1.519874 -0.163646 -1.68352
696.51171875 1.550799 -0.243879 -1.794678
697.69140625 1.561305 -0.215821 -1.777126
698.89453125 1.6748889999999999 -0.300024 -1.974913
700.07421875 1.573496 -0.280408 -1.853904
701.29296875 1.621128 -0.351652 -1.97278
702.47265625 1.6407150000000001 -0.208411 -1.849126
703.6875 1.588617 -0.265909 -1.854526
704.84765625 1.6383539999999999 -0.172155 -1.810509
706.03515625 1.651741 -0.122711 -1.774452
707.1953125 1.744691 -0.185882 -1.930573
708.34765625 1.686172 -0.123828 -1.81
709.54296875 1.640804 -0.234196 -1.875
710.6875 1.715515 -0.137833 -1.853348
711.8515625 1.6486649999999998 -0.130265 -1.77893
712.99609375 1.719116 -0.200872 -1.919988
714.11328125 1.694083 -0.09469 -1.788773
715.23828125 1.746316 -0.120253 -1.866569
716.30859375 1.8210490000000001 -0.136982 -1.958031
717.36328125 1.7593750000000001 -0.041953 -1.801328
718.390625 1.356017 0.07469 -1.281327
719.3828125 1.334309 0.523173 -0.811136
720.37109375 1.099242 0.695822 -0.40342
721.32421875 1.258966 -0.94 -2.198966
0.0 2.006498 -1.0 -3.006498
723.19921875 1.64447 -0.713272 -2.357742
724.12109375 1.383995 -0.48088 -1.864875
0.0 1.7482229999999999 -1.0 -2.748223
725.890625 1.678478 -0.696645 -2.375123
726.48828125 1.553 -0.426495 -1.979495
727.4765625 1.394688 -0.495312 -1.89
728.421875 1.304027 0.048268 -1.255759
729.36328125 1.3059910000000001 0.397261 -0.90873
730.3203125 1.335723 0.603247 -0.732476
731.27734375 1.474764 0.598001 -0.876763
732.2421875 1.5523259999999999 0.636604 -0.915722
733.234375 1.45321 0.42 -1.03321
734.2421875 1.447563 0.216836 -1.230727
735.25 1.5 0.055 -1.445
736.3046875 1.52999 0.050673 -1.479317
737.37890625 1.4395989999999999 -0.059606 -1.499205
738.48828125 1.34943 -0.10057 -1.45
739.62890625 1.362401 -0.113268 -1.475669
740.78515625 1.3548419999999999 -0.139561 -1.494403
741.98828125 1.2803309999999999 -0.177408 -1.457739
743.1796875 1.346093 -0.148241 -1.494334
744.39453125 1.286196 -0.155111 -1.441307
745.57421875 1.305437 -0.140148 -1.445585
746.78515625 1.343145 -0.091159 -1.434304
747.9375 1.253722 -0.229643 -1.483365
749.1328125 1.347036 -0.13179 -1.478826
750.3203125 1.2808519999999999 -0.420527 -1.701379
751.484375 1.453164 -0.064961 -1.518125
752.625 1.359138 0.125 -1.234138
753.71875 1.563606 0.340573 -1.223033
754.84375 1.469126 0.356466 -1.11266
755.859375 1.501799 0.411375 -1.090424
756.9140625 1.600953 0.584669 -1.016284
757.95703125 1.401213 0.146697 -1.254516
758.97265625 1.5450000000000002 -0.0050 -1.55
760.0390625 1.4830160000000001 -0.255045 -1.738061
761.0859375 1.479767 -0.53 -2.009767
762.19140625 1.65782 -0.360261 -2.018081
763.328125 1.4263690000000002 -0.596151 -2.02252
764.4765625 1.579269 -0.293897 -1.873166
765.69140625 1.413379 -0.390527 -1.803906
766.8828125 1.596589 -0.125403 -1.721992
768.109375 1.408261 -0.197066 -1.605327
769.30859375 1.4829130000000001 -0.041961 -1.524874
770.5625 1.4237229999999998 -0.060769 -1.484492
771.75 1.414883 -0.03 -1.444883
773.0078125 1.297265 -0.065447 -1.362712
774.203125 1.359432 -0.035562 -1.394994
775.453125 1.2498019999999999 -0.085193 -1.334995
776.65234375 1.2798129999999999 -0.112076 -1.391889
777.89453125 1.270024 -0.110053 -1.380077
779.09765625 1.312658 -0.142342 -1.455
780.31640625 1.32935 -0.025 -1.35435
781.53515625 1.299539 -0.07623 -1.375769
782.7578125 1.25471 -0.037981 -1.292691
783.984375 1.219861 -0.102565 -1.322426
785.19921875 1.286114 -0.022227 -1.308341
786.4375 1.2266569999999999 -0.093077 -1.319734
787.63671875 1.294521 -0.002639 -1.29716
788.86328125 1.241584 -0.004091 -1.245675
790.0703125 1.2329160000000001 -0.051748 -1.284664
791.27734375 1.23597 0.048535 -1.187435
792.46875 1.227541 -0.032072 -1.259613
793.66015625 1.2136259999999999 0.053945 -1.159681
794.85546875 1.161861 0.014994 -1.146867
795.9921875 1.2407979999999998 -0.008396 -1.249194
797.16796875 1.260162 0.072273 -1.187889
798.29296875 1.2459600000000002 -0.063265 -1.309225
799.4375 1.3893609999999998 0.17 -1.219361
800.5703125 1.309149 -0.107383 -1.416532
801.7109375 1.483053 0.125579 -1.357474
802.8828125 1.350269 -0.051862 -1.402131
804.015625 1.487131 0.141548 -1.345583
805.20703125 1.3748319999999998 0.0050 -1.369832
806.37109375 1.509688 0.139707 -1.369981
807.58203125 1.4925279999999999 0.172629 -1.319899
808.74609375 1.4502879999999998 0.045397 -1.404891
809.94140625 1.479479 0.123061 -1.356418
811.109375 1.455634 -0.065 -1.520634
812.3125 1.4806949999999999 0.075357 -1.405338
813.52734375 1.3115970000000001 -0.136655 -1.448252
814.71875 1.417108 0.060139 -1.356969
815.9375 1.325122 -0.057738 -1.38286
817.10546875 1.415723 0.039959 -1.375764
818.33203125 1.442467 0.09758 -1.344887
819.5 1.357605 0.0 -1.357605
820.734375 1.417777 0.068387 -1.34939
821.9296875 1.374602 -0.080398 -1.455
823.1640625 1.392936 0.034246 -1.35869
824.35546875 1.3220480000000001 -0.135012 -1.45706
825.53515625 1.320276 -0.114544 -1.43482
826.73046875 1.319501 -0.070087 -1.389588
827.8828125 1.2662939999999998 -0.230198 -1.496492
829.06640625 1.401596 -0.049145 -1.450741
830.2578125 1.3443610000000001 -0.110639 -1.455
831.41796875 1.44678 0.021566 -1.425214
832.60546875 1.381827 0.06555 -1.316277
833.76953125 1.37714 -0.015012 -1.392152
834.96875 1.406586 0.131992 -1.274594
836.14453125 1.253897 -0.050061 -1.303958
837.328125 1.366403 0.077972 -1.288431
838.49609375 1.212718 -0.018841 -1.231559
839.65234375 1.337307 0.071287 -1.26602
840.80859375 1.2610700000000001 0.054186 -1.206884
841.96484375 1.316512 0.023092 -1.29342
843.12109375 1.339066 0.114109 -1.224957
844.27734375 1.223665 -0.001335 -1.225
845.43359375 1.40714 0.201567 -1.205573
846.59375 1.314817 0.073173 -1.241644
847.73828125 1.374311 0.041816 -1.332495
848.91796875 1.406072 0.098515 -1.307557
850.078125 1.2993299999999999 -0.095658 -1.394988
851.24609375 1.348945 0.067104 -1.281841
852.421875 1.195674 -0.155715 -1.351389
853.57421875 1.355594 -0.045916 -1.40151
854.73828125 1.285014 -0.080871 -1.365885
855.859375 1.303543 -0.126268 -1.429811
857.015625 1.2942090000000002 -0.105813 -1.400022
858.1640625 1.3183340000000001 -0.115338 -1.433672
859.3671875 1.35416 -0.078023 -1.432183
860.5546875 1.235171 -0.26 -1.495171
861.75390625 1.360225 -0.045529 -1.405754
862.96875 1.256648 -0.21 -1.466648
864.13671875 1.455455 -0.023924 -1.479379
865.33984375 1.377321 -0.118974 -1.496295
866.51171875 1.360271 -0.227306 -1.587577
867.71484375 1.4066130000000001 -0.077975 -1.484588
868.921875 1.302533 -0.291573 -1.594106
870.109375 1.500728 -0.026553 -1.527281
871.32421875 1.289304 -0.124212 -1.413516
872.47265625 1.362539 -0.187461 -1.55
873.6953125 1.403999 -0.080536 -1.484535
874.8671875 1.281527 -0.338404 -1.619931
876.05859375 1.4541780000000002 -0.020374 -1.474552
877.25390625 1.2958159999999999 -0.223257 -1.519073
878.41015625 1.429426 -0.174758 -1.604184
879.6171875 1.358869 -0.152016 -1.510885
880.796875 1.275329 -0.240866 -1.516195
882.01171875 1.468596 0.059741 -1.408855
883.20703125 1.2625890000000002 -0.232371 -1.49496
884.375 1.4049880000000001 -0.045 -1.449988
885.5625 1.2192530000000001 -0.180726 -1.399979
886.69140625 1.2611439999999998 -0.100051 -1.361195
887.8515625 1.321644 -0.033356 -1.355
888.9765625 1.258327 -0.252588 -1.510915
890.140625 1.398093 -0.003553 -1.401646
891.26953125 1.2760559999999999 -0.255036 -1.531092
892.4609375 1.46593 -1.99E-4 -1.466129
893.640625 1.21817 -0.161519 -1.379689
894.79296875 1.351154 0.007491 -1.343663
895.98046875 1.3431620000000002 0.049959 -1.293203
897.18359375 1.291278 -0.130681 -1.421959
898.3671875 1.3872449999999998 0.06435 -1.322895
899.56640625 1.2456669999999999 -0.035865 -1.281532
900.71875 1.3183230000000001 -0.071027 -1.38935
901.88671875 1.320846 -0.023879 -1.344725
903.05078125 1.262604 -0.29 -1.552604
904.2265625 1.325534 -0.079466 -1.405
905.4296875 1.192332 -0.24376 -1.436092
906.578125 1.306012 -0.093988 -1.4
907.76171875 1.299293 -0.068461 -1.367754
908.91015625 1.1833330000000002 -0.285 -1.468333
910.09375 1.35072 -0.004273 -1.354993
911.28125 1.200261 -0.249492 -1.449753
912.46875 1.328067 -0.126172 -1.454239
913.6328125 1.272777 -0.312546 -1.585323
914.828125 1.379617 -0.090925 -1.470542
916.05078125 1.2260790000000001 -0.25962 -1.485699
917.1953125 1.373678 -0.094224 -1.467902
918.38671875 1.299621 -0.175 -1.474621
919.53515625 1.235806 -0.266381 -1.502187
920.72265625 1.3446719999999999 -0.092397 -1.437069
921.88671875 1.242639 -0.282408 -1.525047
923.03515625 1.4356909999999998 0.04212 -1.393571
924.22265625 1.298794 -0.131206 -1.43
925.36328125 1.366608 -0.196418 -1.563026
926.5390625 1.424785 -0.095047 -1.519832
927.68359375 1.309764 -0.355236 -1.665
928.8671875 1.477711 -0.085756 -1.563467
930.04296875 1.2657669999999999 -0.323419 -1.589186
931.19921875 1.427008 -0.165433 -1.592441
932.3984375 1.447369 -0.085955 -1.533324
933.55078125 1.321777 -0.281262 -1.603039
934.72265625 1.508662 0.060924 -1.447738
935.890625 1.309918 -0.252969 -1.562887
937.02734375 1.474561 -0.116864 -1.591425
938.203125 1.488701 0.014013 -1.474688
939.3515625 1.366619 -0.080479 -1.447098
940.54296875 1.50013 0.240476 -1.259654
941.70703125 1.2915429999999999 -0.096883 -1.388426
942.89453125 1.33629 0.054931 -1.281359
944.109375 1.233673 -0.095688 -1.329361
945.30078125 1.302336 -0.060732 -1.363068
946.51171875 1.324647 -0.044823 -1.36947
947.70703125 1.2757749999999999 -0.161952 -1.437727
948.9140625 1.364539 0.039539 -1.325
950.12109375 1.2658669999999999 -0.228177 -1.494044
951.32421875 1.388652 0.02 -1.368652
952.5546875 1.2573269999999999 -0.157456 -1.414783
953.7265625 1.377506 -0.002494 -1.38
954.9296875 1.354707 0.02251 -1.332197
956.109375 1.302282 -0.189344 -1.491626
957.30078125 1.3245010000000002 0.013683 -1.310818
958.4765625 1.2216010000000002 -0.263159 -1.48476
959.63671875 1.341757 0.016223 -1.325534
960.8125 1.291486 -0.084375 -1.375861
961.94921875 1.282407 -0.24898 -1.531387
963.125 1.4072140000000002 -0.0050 -1.412214
964.32421875 1.281181 -0.248404 -1.529585
965.47265625 1.4266999999999999 -0.021465 -1.448165
966.68359375 1.37673 0.029558 -1.347172
967.83203125 1.298298 -0.133914 -1.432212
969.03515625 1.390207 0.039507 -1.3507
970.1953125 1.230553 -0.258112 -1.488665
971.3671875 1.397949 -0.016932 -1.414881
972.53515625 1.185777 -0.273016 -1.458793
973.6796875 1.3507829999999998 -0.110559 -1.461342
974.87890625 1.262394 -0.17087 -1.433264
976.02734375 1.294362 -0.180638 -1.475
977.2265625 1.4282489999999999 -0.003012 -1.431261
978.3984375 1.2302879999999998 -0.269211 -1.499499
979.57421875 1.41967 0.014567 -1.405103
980.765625 1.270805 -0.134012 -1.404817
981.90625 1.359542 0.0 -1.359542
983.09765625 1.374923 0.124866 -1.250057
984.24609375 1.272457 -0.112335 -1.384792
985.4296875 1.439815 0.110266 -1.329549
986.6015625 1.215517 -0.209483 -1.425
987.78515625 1.3801359999999998 -0.014814 -1.39495
988.96875 1.276951 -0.128988 -1.405939
990.1171875 1.253807 -0.171084 -1.424891
991.3125 1.293367 -0.031406 -1.324773
992.48046875 1.200523 -0.265036 -1.465559
993.640625 1.387914 0.002914 -1.385
994.83203125 1.226706 -0.175729 -1.402435
995.98828125 1.2871419999999998 -0.078561 -1.365703
997.171875 1.2589210000000002 -0.041818 -1.300739
998.36328125 1.198051 -0.227379 -1.42543
999.5625 1.3631110000000002 0.013594 -1.349517
1000.75390625 1.1789910000000001 -0.220681 -1.399672
1001.921875 1.343002 0.033901 -1.309101
1003.1484375 1.191148 -0.08768 -1.278828
1004.29296875 1.304111 -0.05564 -1.359751
1005.46484375 1.321156 -0.077449 -1.398605
1006.6015625 1.26649 -0.28851 -1.555
1007.78125 1.379631 -0.021607 -1.401238
1008.9609375 1.251217 -0.326498 -1.577715
1010.13671875 1.457112 -0.127266 -1.584378
1011.328125 1.3202390000000002 -0.205307 -1.525546
1012.40234375 1.3288739999999999 -0.562771 -1.891645
1013.4609375 1.406886 -0.304423 -1.711309
1014.49609375 1.4249189999999998 -0.20524 -1.630159
1015.5234375 1.330194 -0.227935 -1.558129
1016.55078125 1.538328 -0.056901 -1.595229
1017.5703125 1.515025 -0.122828 -1.637853
1018.6015625 1.434546 -0.327427 -1.761973
1019.66015625 1.5581969999999998 -0.095692 -1.653889
1020.7421875 1.54053 -0.160185 -1.700715
1021.87109375 1.503813 -0.196168 -1.699981
1023.078125 1.490955 -0.200733 -1.691688
1024.3046875 1.387275 -0.331866 -1.719141
1025.5546875 1.457883 -0.137692 -1.595575
1026.83203125 1.336792 -0.393208 -1.73
1028.05078125 1.513177 -0.173403 -1.68658
1029.265625 1.3426140000000002 -0.345484 -1.688098
1030.4921875 1.445133 -0.158358 -1.603491
1031.7734375 1.367178 -0.331009 -1.698187
1032.98828125 1.471628 -0.273112 -1.74474
1034.2265625 1.346545 -0.388455 -1.735
1035.4453125 1.441778 -0.203981 -1.645759
1036.6796875 1.388851 -0.196149 -1.585
1037.890625 1.377052 -0.346794 -1.723846
1039.1328125 1.487089 -0.105387 -1.592476
1040.36328125 1.3644759999999998 -0.27395 -1.638426
1041.55078125 1.544275 0.00457 -1.539705
1042.765625 1.323712 -0.214251 -1.537963
1043.921875 1.480802 -0.006608 -1.48741
1045.09765625 1.430019 -0.065134 -1.495153
1046.2421875 1.390356 -0.444523 -1.834879
1047.39453125 1.600013 -0.014709 -1.614722
1048.5546875 1.401621 -0.30797 -1.709591
1049.65625 1.5440049999999998 -0.269076 -1.813081
1050.87109375 1.564354 -0.138625 -1.702979
1052.04296875 1.485614 -0.448079 -1.933693
1053.2421875 1.680117 0.018151 -1.661966
1054.4765625 1.455867 -0.277712 -1.733579
1055.64453125 1.658258 -0.095106 -1.753364
1056.86328125 1.711532 0.042802 -1.66873
1058.0546875 1.548144 -0.336771 -1.884915
1059.296875 1.692571 0.086556 -1.606015
1060.53515625 1.516422 -0.183578 -1.7
1061.734375 1.5572460000000001 -0.194616 -1.751862
1062.98046875 1.505541 -0.119197 -1.624738
1064.22265625 1.4065750000000001 -0.335645 -1.74222
1065.44921875 1.5105359999999999 -0.044464 -1.555
1066.71875 1.342907 -0.24308 -1.585987
1067.90234375 1.448326 -0.161984 -1.61031
1069.1171875 1.3345 -0.340439 -1.674939
1070.3203125 1.377326 -0.236697 -1.614023
1071.57421875 1.357963 -0.279645 -1.637608
1072.79296875 1.385033 -0.249809 -1.634842
1074.04296875 1.37264 -0.189895 -1.562535
1075.27734375 1.374117 -0.245475 -1.619592
1076.5 1.3209929999999999 -0.3 -1.620993
1077.734375 1.413258 -0.178965 -1.592223
1078.953125 1.28449 -0.30606 -1.59055
1080.15234375 1.334407 -0.215141 -1.549548
1081.359375 1.280182 -0.248516 -1.528698
1082.55078125 1.36669 -0.201919 -1.568609
1083.76171875 1.371971 -0.200864 -1.572835
1084.9375 1.439259 -0.100741 -1.54
1086.14453125 1.470206 -0.060929 -1.531135
1087.32421875 1.352899 -0.291439 -1.644338
1088.5234375 1.431074 -0.078312 -1.509386
1089.68359375 1.288597 -0.255696 -1.544293
1090.86328125 1.3857739999999998 -0.137739 -1.523513
1092.0625 1.27738 -0.242452 -1.519832
1093.20703125 1.381844 -0.163116 -1.54496
1094.375 1.348991 -0.135 -1.483991
1095.54296875 1.348722 -0.145 -1.493722
1096.73828125 1.363629 -0.090233 -1.453862
1097.90234375 1.3846850000000002 -0.28174 -1.666425
1099.12109375 1.546753 0.037535 -1.509218
1100.30078125 1.3972289999999998 -0.336993 -1.734222
1101.47265625 1.523821 0.033821 -1.49
1102.65625 1.282284 -0.230349 -1.512633
1103.80078125 1.353104 -0.265331 -1.618435
1104.95703125 1.438648 -0.071182 -1.50983
1106.13671875 1.264523 -0.4504 -1.714923
1107.3046875 1.456775 -0.086409 -1.543184
1108.47265625 1.351335 -0.141864 -1.493199
1109.6015625 1.309633 -0.28 -1.589633
1110.7890625 1.446054 -0.0101 -1.456154
1111.984375 1.3945120000000002 -0.263297 -1.657809
1113.1875 1.544995 0.030484 -1.514511
1114.4296875 1.406661 -0.223141 -1.629802
1115.6171875 1.469087 -0.229097 -1.698184
1116.8359375 1.427567 -0.160413 -1.58798
1118.015625 1.369926 -0.285 -1.654926
1119.25390625 1.495437 -0.032197 -1.527634
1120.4453125 1.332964 -0.328198 -1.661162
1121.69140625 1.497957 -0.06 -1.557957
1122.92578125 1.3343530000000001 -0.337654 -1.672007
1124.12890625 1.44486 -0.134671 -1.579531
1125.3515625 1.330352 -0.249648 -1.58
1126.52734375 1.3233869999999999 -0.315509 -1.638896
1127.7265625 1.353388 -0.168653 -1.522041
1128.88671875 1.3191000000000002 -0.336272 -1.655372
1130.09375 1.4904549999999999 -0.054545 -1.545
1131.2734375 1.3323639999999999 -0.302119 -1.634483
1132.43359375 1.427978 -0.112597 -1.540575
1133.609375 1.36974 -0.109355 -1.479095
1134.7734375 1.311084 -0.215479 -1.526563
1135.953125 1.443364 -0.035628 -1.478992
1137.1171875 1.3379130000000001 -0.262014 -1.599927
1138.30859375 1.526127 -0.030926 -1.557053
1139.50390625 1.3482910000000001 -0.230147 -1.578438
1140.6640625 1.433513 -0.290185 -1.723698
1141.8828125 1.412013 -0.195409 -1.607422
1143.08203125 1.3534359999999999 -0.296491 -1.649927
1144.27734375 1.447912 -0.08818 -1.536092
1145.4765625 1.328355 -0.296645 -1.625
1146.64453125 1.49239 -0.125138 -1.617528
1147.8359375 1.441386 -0.155479 -1.596865
1148.99609375 1.389933 -0.400048 -1.789981
1150.16015625 1.545349 -0.086936 -1.632285
1151.328125 1.372147 -0.376859 -1.749006
1152.4609375 1.623942 -0.145246 -1.769188
1153.671875 1.479441 -0.145 -1.624441
1154.83203125 1.5684330000000002 -0.081489 -1.649922
1156.046875 1.530596 -0.055202 -1.585798
1157.21484375 1.447783 -0.210374 -1.658157
1158.44140625 1.569951 0.029304 -1.540647
1159.66796875 1.4019180000000002 -0.24666 -1.648578
1160.84375 1.550339 -0.055724 -1.606063
1162.07421875 1.46222 -0.122644 -1.584864
1163.24609375 1.3876840000000001 -0.407239 -1.794923
1164.44140625 1.5196939999999999 -0.150306 -1.67
1165.62109375 1.276967 -0.416752 -1.693719
1166.80859375 1.564637 -0.045634 -1.610271
1168.0078125 1.330381 -0.268748 -1.599129
1169.15625 1.411694 -0.122906 -1.5346
1170.3828125 1.4367379999999998 -0.040367 -1.477105
1171.54296875 1.424045 -0.165 -1.589045
1172.76953125 1.5271780000000001 0.009994 -1.517184
1173.96484375 1.3690680000000002 -0.265661 -1.634729
1175.171875 1.504085 -0.054294 -1.558379
1176.35546875 1.411057 -0.125019 -1.536076
1177.53125 1.328391 -0.230781 -1.559172
1178.71484375 1.42819 2.99E-4 -1.427891
1179.85546875 1.319913 -0.195087 -1.515
1181.03125 1.468811 0.081071 -1.38774
1182.234375 1.281048 -0.159514 -1.440562
1183.3984375 1.419961 0.017167 -1.402794
1184.58203125 1.413154 -0.002261 -1.415415
1185.74609375 1.378096 -0.136868 -1.514964
1186.93359375 1.428417 0.034566 -1.393851
1188.09375 1.317094 -0.187906 -1.505
1189.23046875 1.387222 0.029204 -1.358018
1190.4140625 1.372542 -0.005166 -1.377708
1191.5703125 1.328054 -0.280481 -1.608535
1192.7265625 1.479883 0.124883 -1.355
1193.921875 1.353629 -0.017805 -1.371434
1195.07421875 1.431486 0.144095 -1.287391
1196.265625 1.456154 0.23909 -1.217064
1197.39453125 1.458655 0.009974 -1.448681
1198.6015625 1.4827029999999999 0.271523 -1.21118
1199.79296875 1.349635 5.8E-4 -1.349055
1200.9609375 1.466029 0.139574 -1.326455
1202.1796875 1.331235 0.018514 -1.312721
1203.3515625 1.3032620000000001 -0.095527 -1.398789
1204.56640625 1.395732 -0.003405 -1.399137
1205.75 1.299224 -0.165 -1.464224
1206.97265625 1.405812 0.190812 -1.215
1208.17578125 1.24721 -0.102087 -1.349297
1209.375 1.428728 0.13 -1.298728
1210.59375 1.267662 -0.143897 -1.411559
1211.75 1.4145750000000001 -0.025 -1.439575
1212.953125 1.350066 -0.010195 -1.360261
1214.12109375 1.3134670000000002 -0.163177 -1.476644
1215.328125 1.4674719999999999 0.163085 -1.304387
1216.5 1.2969739999999998 -0.11 -1.406974
1217.6640625 1.472928 0.109979 -1.362949
1218.83984375 1.339744 0.07 -1.269744
1219.98828125 1.241579 -0.078394 -1.319973
1221.15625 1.3719489999999999 0.168033 -1.203916
1222.33984375 1.305146 -0.081329 -1.386475
1223.5078125 1.440832 0.121066 -1.319766
1224.6875 1.253345 -0.072778 -1.326123
1225.83203125 1.4024869999999998 0.072971 -1.329516
1227.0078125 1.399712 0.161644 -1.238068
1228.16796875 1.362346 -0.097607 -1.459953
1229.32421875 1.443868 0.152768 -1.2911
1230.5234375 1.2731480000000002 -0.191339 -1.464487
1231.671875 1.420318 0.077753 -1.342565
1232.875 1.3717080000000001 0.185 -1.186708
1234.046875 1.302929 -0.010728 -1.313657
1235.26171875 1.3775730000000002 0.110022 -1.267551
1236.4140625 1.299373 -0.160106 -1.459479
1237.6171875 1.342033 0.026575 -1.315458
1238.82421875 1.289557 -0.205443 -1.495
1240.0234375 1.406455 -0.026011 -1.432466
1241.28125 1.297658 -0.230625 -1.528283
1242.46484375 1.441958 -0.177791 -1.619749
1243.69140625 1.439826 -0.021866 -1.461692
1244.859375 1.412034 -0.2 -1.612034
1246.078125 1.603157 0.122161 -1.480996
1247.28125 1.421312 -0.222609 -1.643921
1248.46484375 1.542528 0.045 -1.497528
1249.6640625 1.415351 0.011095 -1.404256
1250.8203125 1.384022 -0.095843 -1.479865
1252.0234375 1.486933 0.182906 -1.304027
1253.2109375 1.3878469999999998 -0.190133 -1.57798
1254.421875 1.544629 0.188668 -1.355961
1255.640625 1.3142530000000001 -0.070725 -1.384978
1256.83203125 1.410306 -0.014524 -1.42483
1258.05078125 1.4380410000000001 0.019567 -1.418474
1259.2265625 1.315807 -0.21018 -1.525987
1260.4296875 1.449157 0.06946 -1.379697
1261.65234375 1.258643 -0.075313 -1.333956
1262.82421875 1.3836350000000002 0.048558 -1.335077
1264.0078125 1.288388 -0.260192 -1.54858
1265.22265625 1.5307039999999998 -0.008428 -1.539132
1266.4296875 1.337744 -0.131307 -1.469051
1267.6171875 1.504546 0.026688 -1.477858
1268.828125 1.4321439999999999 -0.017848 -1.449992
1270.015625 1.361192 -0.288602 -1.649794
1271.203125 1.464982 0.045 -1.419982
1272.41015625 1.281709 -0.177238 -1.458947
1273.5625 1.484779 0.115 -1.369779
1274.75 1.389949 0.03 -1.359949
1275.91015625 1.28 -0.215 -1.495
1277.1015625 1.366218 0.034212 -1.332006
1278.29296875 1.232536 -0.17682 -1.409356
1279.44921875 1.397576 0.039084 -1.358492
1280.65234375 1.3438679999999998 -0.015454 -1.359322
1281.796875 1.3520780000000001 -0.236062 -1.58814
1282.95703125 1.531717 0.023444 -1.508273
1284.12109375 1.3640940000000001 -0.29588 -1.659974
1285.25 1.396708 -0.065 -1.461708
1286.43359375 1.367644 0.046616 -1.321028
1287.59375 1.328329 -0.22075 -1.549079
1288.78515625 1.3717160000000002 0.028655 -1.343061
1290.0 1.246667 -0.175 -1.421667
1291.17578125 1.3365099999999999 -0.037687 -1.374197
1292.375 1.317945 -0.04 -1.357945
1293.54296875 1.280005 -0.24241 -1.522415
1294.73046875 1.435205 0.039973 -1.395232
1295.8984375 1.247477 -0.290369 -1.537846
1297.09375 1.360096 -0.106538 -1.466634
1298.27734375 1.1801460000000001 -0.433625 -1.613771
1299.4375 1.325714 -0.249286 -1.575
1300.62890625 1.338878 -0.088142 -1.42702
1301.8125 1.275186 -0.375 -1.650186
1303.0 1.417767 0.03 -1.387767
1304.1875 1.263178 -0.186176 -1.449354
1305.35546875 1.4105889999999999 0.074933 -1.335656
1306.52734375 1.2822399999999998 -0.172233 -1.454473
1307.6640625 1.432548 -0.065166 -1.497714
1308.83984375 1.4459190000000002 -0.026309 -1.472228
1310.00390625 1.3672879999999998 -0.367277 -1.734565
1311.16796875 1.518227 -0.030451 -1.548678
1312.34375 1.263249 -0.2987 -1.561949
1313.4921875 1.4030420000000001 -0.126814 -1.529856
1314.640625 1.3662519999999998 0.010039 -1.356213
1315.7734375 1.374315 -0.14957 -1.523885
1316.9375 1.461983 -0.112552 -1.574535
1318.11328125 1.365402 -0.308147 -1.673549
1319.25390625 1.498731 -0.115001 -1.613732
1320.453125 1.357218 -0.231123 -1.588341
1321.59375 1.36439 -0.242679 -1.607069
1322.78515625 1.408988 -0.165429 -1.574417
1323.9453125 1.3465550000000002 -0.345697 -1.692252
1325.171875 1.535284 0.043639 -1.491645
1326.37109375 1.316621 -0.173304 -1.489925
1327.5390625 1.406969 -0.035531 -1.4425
1328.7109375 1.369021 0.059687 -1.309334
1329.8515625 1.295574 -0.072504 -1.368078
1331.0390625 1.3973000000000002 0.044979 -1.352321
1332.2109375 1.312338 -0.340113 -1.652451
1333.359375 1.397991 -0.013594 -1.411585
1334.53515625 1.366599 -0.081565 -1.448164
1335.6953125 1.3072810000000001 -0.367281 -1.674562
1336.8671875 1.417811 -0.008014 -1.425825
1338.03125 1.243569 -0.241016 -1.484585
1339.1875 1.3819540000000001 -0.102763 -1.484717
1340.3828125 1.3521459999999998 -0.051668 -1.403814
1341.5546875 1.282331 -0.086104 -1.368435
1342.75 1.3671870000000002 -0.065 -1.432187
1343.9609375 1.245785 -0.1 -1.345785
1345.13671875 1.3807999999999998 -0.016196 -1.396996
1346.3203125 1.316897 -0.169327 -1.486224
1347.4765625 1.384825 -0.152427 -1.537252
1348.68359375 1.4038110000000001 -0.11248 -1.516291
1349.8515625 1.415159 -0.284841 -1.7
1351.0703125 1.367531 -0.144969 -1.5125
1352.26953125 1.3792099999999998 -0.215027 -1.594237
1353.46484375 1.439969 0.042137 -1.397832
1354.67578125 1.343631 -0.153764 -1.497395
1355.83203125 1.493304 -0.161607 -1.654911
1357.04296875 1.375829 -0.19388 -1.569709
1358.1796875 1.387154 -0.127755 -1.514909
1359.375 1.3649850000000001 -0.105 -1.469985
1360.5390625 1.335 -0.455 -1.79
1361.72265625 1.504861 -0.141353 -1.646214
1362.90625 1.28983 -0.306953 -1.596783
1364.0703125 1.401166 -0.272308 -1.673474
1365.2578125 1.345669 -0.33 -1.675669
1366.3984375 1.3705109999999998 -0.236984 -1.607495
1367.59375 1.5554549999999998 -0.104545 -1.66
1368.75390625 1.465942 -0.31792 -1.783862
1369.8984375 1.674641 0.047709 -1.626932
1371.06640625 1.491492 -0.17642 -1.667912
1372.20703125 1.5481580000000001 -0.076679 -1.624837
1373.40234375 1.648058 0.074192 -1.573866
1374.55859375 1.513833 -0.266167 -1.78
1375.77734375 1.540212 -0.026024 -1.566236
1376.97265625 1.335839 -0.249034 -1.584873
1378.140625 1.409097 -0.070762 -1.479859
1379.33203125 1.374869 -0.176199 -1.551068
1380.5 1.353677 -0.16 -1.513677
1381.68359375 1.424182 0.093193 -1.330989
1382.875 1.292881 -0.21 -1.502881
1384.0390625 1.455862 0.006089 -1.449773
1385.234375 1.3762919999999998 -0.117066 -1.493358
1386.40234375 1.2954620000000001 -0.123621 -1.419083
1387.59765625 1.419858 0.109374 -1.310484
1388.78515625 1.284715 -0.140237 -1.424952
1389.95703125 1.4734589999999999 0.183506 -1.289953
1391.15625 1.279151 0.019609 -1.259542
1392.3046875 1.403042 0.044751 -1.358291
1393.4609375 1.408036 -0.025254 -1.43329
1394.62109375 1.318314 -0.231977 -1.550291
1395.78125 1.447244 0.079666 -1.367578
1396.96875 1.318208 -0.149545 -1.467753
1398.09765625 1.378757 -0.097416 -1.476173
1399.30859375 1.428125 0.029282 -1.398843
1400.45703125 1.267557 -0.187443 -1.455
1401.6484375 1.396339 0.088303 -1.308036
1402.83203125 1.2352319999999999 -0.214064 -1.449296
1404.015625 1.447232 0.002366 -1.444866
1405.19921875 1.256952 -0.09734 -1.354292
1406.34765625 1.336522 -0.18662 -1.523142
1407.55859375 1.404562 0.219225 -1.185337
1408.7265625 1.3250000000000002 -0.025 -1.35
1409.90625 1.438096 0.186012 -1.252084
1411.10546875 1.269946 -0.080054 -1.35
1412.2734375 1.4039570000000001 -0.069546 -1.473503
1413.46484375 1.302854 -0.059909 -1.362763
1414.625 1.303993 -0.11 -1.413993
1415.81640625 1.509714 0.234249 -1.275465
1416.9921875 1.313658 -0.00519 -1.318848
1418.1484375 1.453473 0.116665 -1.336808
1419.328125 1.4468239999999999 0.134712 -1.312112
1420.49609375 1.392181 -0.067639 -1.45982
1421.6640625 1.441575 0.051982 -1.389593
1422.8515625 1.284097 -0.095 -1.379097
1424.00390625 1.3867850000000002 0.218579 -1.168206
1425.15625 1.320259 0.097801 -1.222458
1426.2890625 1.309353 0.004978 -1.304375
1427.4453125 1.390012 0.048851 -1.341161
1428.62109375 1.322216 -0.167627 -1.489843
1429.7421875 1.501545 0.106604 -1.394941
1430.9296875 1.338617 -0.11627 -1.454887
1432.0703125 1.46131 -0.026079 -1.487389
1433.2421875 1.488113 0.073231 -1.414882
1434.39453125 1.379902 -0.140012 -1.519914
1435.5859375 1.46452 0.194611 -1.269909
1436.77734375 1.2661490000000002 -0.146386 -1.412535
1437.94140625 1.388578 -0.030767 -1.419345
1439.1328125 1.3141019999999999 -0.10836 -1.422462
1440.28125 1.27577 -0.301941 -1.577711
1441.4375 1.387831 -0.111019 -1.49885
1442.59375 1.302273 -0.352321 -1.654594
1443.76953125 1.4942890000000002 0.104966 -1.389323
1444.93359375 1.3197789999999998 -0.070051 -1.38983
1446.0625 1.440864 -0.082424 -1.523288
1447.265625 1.4395959999999999 -0.08 -1.519596
1448.40234375 1.367874 -0.275638 -1.643512
1449.59765625 1.463551 -0.022587 -1.486138
1450.77734375 1.217397 -0.137422 -1.354819
1451.96484375 1.331277 0.04159 -1.289687
1453.13671875 1.281652 0.04354 -1.238112
1454.30859375 1.279784 -0.120048 -1.399832
1455.48828125 1.355816 -0.04813 -1.403946
1456.6484375 1.256688 -0.22158 -1.478268
1457.80078125 1.416634 0.082296 -1.334338
1458.9921875 1.2889169999999999 -0.117598 -1.406515
1460.13671875 1.351488 -0.043822 -1.39531
1461.3046875 1.457442 0.106707 -1.350735
1462.4765625 1.442441 -0.162559 -1.605
1463.62109375 1.576688 0.115785 -1.460903
1464.7734375 1.437529 -0.155533 -1.593062
1465.89453125 1.47788 -0.040061 -1.517941
1467.06640625 1.547962 0.163939 -1.384023
1468.22265625 1.3976469999999999 -0.167353 -1.565
1469.39453125 1.462917 0.129872 -1.333045
1470.57421875 1.340467 -0.186061 -1.526528
1471.7265625 1.471619 0.081619 -1.39
1472.88671875 1.3372600000000001 -0.147247 -1.484507
1474.0078125 1.3598000000000001 -0.049963 -1.409763
1475.171875 1.425601 0.044222 -1.381379
1476.328125 1.385283 -0.010508 -1.395791
1477.46484375 1.4907169999999998 0.262754 -1.227963
1478.64453125 1.356112 -0.005012 -1.361124
1479.78125 1.443457 -0.066094 -1.509551
1480.94921875 1.448725 -0.085 -1.533725
1482.06640625 1.321068 -0.306037 -1.627105
1483.265625 1.5378260000000001 -0.027035 -1.564861
1484.4296875 1.348217 -0.191783 -1.54
1485.578125 1.4743430000000002 0.104051 -1.370292
1486.76953125 1.3210499999999998 0.034946 -1.286104
1487.9296875 1.330404 -0.157755 -1.488159
1489.1171875 1.402036 0.076267 -1.325769
1490.30078125 1.2538429999999998 -0.090553 -1.344396
1491.45703125 1.448714 0.168828 -1.279886
1492.6484375 1.3718160000000001 0.123345 -1.248471
1493.8046875 1.348149 -0.010022 -1.358171
1495.01171875 1.3999160000000002 0.275546 -1.12437
1496.171875 1.283324 0.079812 -1.203512
1497.33984375 1.444606 0.273673 -1.170933
1498.515625 1.269174 -0.050776 -1.31995
1499.671875 1.371115 -0.026208 -1.397323
1500.8359375 1.360305 0.274977 -1.085328
1502.0078125 1.27709 0.02709 -1.25
1503.1875 1.411094 0.256094 -1.155
1504.34765625 1.255169 -0.007016 -1.262185
1505.484375 1.36224 -0.01923 -1.38147
1506.6796875 1.260596 -0.073241 -1.333837
1507.8359375 1.4238229999999998 0.034606 -1.389217
1509.01171875 1.413402 0.046208 -1.367194
1510.171875 1.361902 -0.106915 -1.468817
1511.34375 1.496761 0.041492 -1.455269
1512.49609375 1.3214949999999999 -0.144014 -1.465509
1513.63671875 1.4414859999999998 0.197809 -1.243677
1514.83203125 1.311954 0.063487 -1.248467
1515.9921875 1.368238 -0.16749 -1.535728
1517.15625 1.4258199999999999 -0.003125 -1.428945
1518.3359375 1.3940860000000002 -0.115152 -1.509238
1519.484375 1.254842 -0.187045 -1.441887
1520.6328125 1.444998 0.046951 -1.398047
1521.8203125 1.2695010000000002 -0.05157 -1.321071
1522.984375 1.447407 0.118365 -1.329042
1524.20703125 1.4912990000000002 0.14 -1.351299
1525.3515625 1.3554119999999998 -0.09 -1.445412
1526.5625 1.4868750000000002 0.083587 -1.403288
1527.71875 1.37843 -0.120328 -1.498758
1528.921875 1.3883420000000002 0.153871 -1.234471
1530.1015625 1.290648 -0.034352 -1.325
1531.3046875 1.403456 0.028755 -1.374701
1532.4921875 1.2105229999999998 -0.214368 -1.424891
1533.66015625 1.2702239999999998 -0.12644 -1.396664
1534.84765625 1.3491819999999999 -0.021864 -1.371046
1535.98046875 1.2894780000000001 -0.145033 -1.434511
1537.1484375 1.380219 -0.018416 -1.398635
1538.3203125 1.2815779999999999 -0.138087 -1.419665
1539.47265625 1.3320729999999998 -0.067055 -1.399128
1540.61328125 1.308257 -0.139599 -1.447856
1541.7578125 1.2824090000000001 -0.036862 -1.319271
1542.9296875 1.372687 0.024303 -1.348384
1544.078125 1.359888 -0.265085 -1.624973
1545.25 1.4888219999999999 -0.06 -1.548822
1546.42578125 1.321462 -0.355966 -1.677428
1547.59375 1.480197 0.01207 -1.468127
1548.7578125 1.318467 0.023811 -1.294656
1549.91796875 1.481031 0.091247 -1.389784
1551.078125 1.369225 0.031104 -1.338121
1552.20703125 1.327929 -0.097509 -1.425438
1553.359375 1.438393 -0.036663 -1.475056
1554.52734375 1.384306 -0.210694 -1.595
1555.6796875 1.523547 -0.004414 -1.527961
1556.84765625 1.306361 -0.168639 -1.475
1558.015625 1.3901320000000001 -0.094736 -1.484868
1559.17578125 1.306851 -0.06757 -1.374421
1560.33203125 1.252221 -0.262696 -1.514917
1561.48046875 1.345521 -0.03064 -1.376161
1562.671875 1.177218 -0.166288 -1.343506
1563.8125 1.312613 -0.057366 -1.369979
1564.9921875 1.3144559999999998 -0.085387 -1.399843
1566.14453125 1.327966 -0.135043 -1.463009
1567.3203125 1.3969610000000001 0.036961 -1.36
1568.4609375 1.366692 -0.135021 -1.501713
1569.66015625 1.534725 0.053777 -1.480948
1570.83984375 1.4227690000000002 -0.225361 -1.64813
1572.00390625 1.574517 -0.018561 -1.593078
1573.19921875 1.3661889999999999 -0.282677 -1.648866
1574.359375 1.540084 -0.225749 -1.765833
1575.53515625 1.398776 -0.150028 -1.548804
1576.6796875 1.36226 -0.247057 -1.609317
1577.8515625 1.4264299999999999 -0.091728 -1.518158
1579.03515625 1.3553570000000001 -0.349643 -1.705
1580.21484375 1.447938 -0.087062 -1.535
1581.4296875 1.3337679999999998 -0.234995 -1.568763
1582.58203125 1.359572 -0.265 -1.624572
1583.76171875 1.383665 -0.080159 -1.463824
1584.890625 1.3487049999999998 -0.266533 -1.615238
1586.08984375 1.464927 -0.053189 -1.518116
1587.2734375 1.295506 -0.345514 -1.64102
1588.43359375 1.435518 -0.114147 -1.549665
1589.6328125 1.315837 -0.215198 -1.531035
1590.77734375 1.4086459999999998 -0.291206 -1.699852
1591.9609375 1.446528 -0.150048 -1.596576
1593.1171875 1.4002880000000002 -0.35 -1.750288
1594.296875 1.578921 -0.070553 -1.649474
1595.4609375 1.311788 -0.403018 -1.714806
1596.59765625 1.4363000000000001 -0.1978 -1.6341
1597.7578125 1.248394 -0.284523 -1.532917
1598.8671875 1.368926 -0.180866 -1.549792
1600.03515625 1.452316 -0.07196 -1.524276
1601.1796875 1.372036 -0.257542 -1.629578
1602.3828125 1.48142 -0.031877 -1.513297
1603.51953125 1.3881890000000001 -0.145149 -1.533338
1604.65234375 1.292462 -0.251674 -1.544136
1605.7734375 1.381778 -0.102494 -1.484272
1606.8671875 1.271723 -0.338133 -1.609856
1607.96875 1.373421 -0.26616 -1.639581
1609.06640625 1.334031 -0.210319 -1.54435
1610.171875 1.339407 -0.289467 -1.628874
1611.28125 1.4460670000000002 -0.130332 -1.576399
1612.41796875 1.3521420000000002 -0.38166 -1.733802
1613.58984375 1.477862 -0.08 -1.557862
1614.78125 1.38518 -0.194176 -1.579356
1615.96875 1.44336 -0.055729 -1.499089
1617.1875 1.3583610000000002 -0.096304 -1.454665
1618.390625 1.336166 -0.128304 -1.46447
1619.59375 1.290307 -0.162879 -1.453186
1620.77734375 1.2836699999999999 -0.205137 -1.488807
1621.9765625 1.3633410000000001 -0.131659 -1.495
1623.1484375 1.266473 -0.260704 -1.527177
1624.3046875 1.3440100000000001 -0.200578 -1.544588
1625.49609375 1.279454 -0.130518 -1.409972
1626.66015625 1.308154 -0.210646 -1.5188
1627.8359375 1.3775240000000002 -0.040957 -1.418481
1629.05078125 1.3598459999999999 -0.262664 -1.62251
1630.2265625 1.45 -0.18 -1.63
1631.421875 1.365791 -0.300181 -1.665972
1632.57421875 1.370937 -0.335457 -1.706394
1633.76171875 1.372662 -0.151953 -1.524615
1634.91796875 1.390457 -0.308063 -1.69852
1636.109375 1.420474 -0.198424 -1.618898
1637.30859375 1.313183 -0.269158 -1.582341
1638.46875 1.3614680000000001 -0.153336 -1.514804
1639.66015625 1.342048 -0.182247 -1.524295
1640.8125 1.303379 -0.251406 -1.554785
1642.01171875 1.4071479999999998 -0.15165 -1.558798
1643.19140625 1.343726 -0.193394 -1.53712
1644.359375 1.471508 0.026694 -1.444814
1645.54296875 1.271958 -0.188849 -1.460807
1646.6796875 1.370453 -0.097121 -1.467574
1647.86328125 1.3823 -0.10313 -1.48543
1649.03125 1.364159 -0.272437 -1.636596
1650.21484375 1.4491170000000002 -0.102715 -1.551832
1651.3828125 1.3098539999999999 -0.288051 -1.597905
1652.55078125 1.4648700000000001 -0.110185 -1.575055
1653.73046875 1.360569 -0.165051 -1.52562
1654.8671875 1.399625 -0.194061 -1.593686
1656.03515625 1.388723 -0.14196 -1.530683
1657.2109375 1.2959990000000001 -0.400022 -1.696021
1658.375 1.424809 -0.205 -1.629809
1659.5546875 1.307012 -0.287407 -1.594419
1660.71484375 1.320509 -0.303821 -1.62433
1661.89453125 1.4415930000000001 -0.190017 -1.63161
1663.07421875 1.3130039999999998 -0.386996 -1.7
1664.24609375 1.4008219999999998 -0.155895 -1.556717
1665.44921875 1.204259 -0.377151 -1.58141
1666.59765625 1.397774 -0.220454 -1.618228
1667.796875 1.381426 -0.212042 -1.593468
1668.953125 1.319142 -0.441146 -1.760288
1670.1171875 1.396473 -0.256422 -1.652895
1671.28125 1.278453 -0.495719 -1.774172
1672.44140625 1.435584 -0.192704 -1.628288
1673.62109375 1.29806 -0.380657 -1.678717
1674.75 1.34451 -0.325 -1.66951
1675.94921875 1.367916 -0.176048 -1.543964
1677.09375 1.297059 -0.395469 -1.692528
1678.25390625 1.382342 -0.152917 -1.535259
1679.4140625 1.294543 -0.375457 -1.67
1680.5546875 1.389134 -0.113063 -1.502197
1681.72265625 1.3513549999999999 -0.263645 -1.615
1682.8359375 1.379326 -0.150137 -1.529463
1684.015625 1.4333770000000001 -0.041602 -1.474979
1685.1640625 1.327131 -0.240516 -1.567647
1686.30078125 1.51387 7.66E-4 -1.513104
1687.47265625 1.421566 -0.092568 -1.514134
1688.62109375 1.375795 -0.246808 -1.622603
1689.8046875 1.565715 0.023229 -1.542486
1690.98046875 1.428157 -0.285012 -1.713169
1692.13671875 1.60475 0.0050 -1.59975
1693.31640625 1.471274 -0.016405 -1.487679
1694.45703125 1.410987 -0.398273 -1.80926
1695.62890625 1.513199 0.003646 -1.509553
1696.828125 1.3065289999999998 -0.249467 -1.555996
1697.984375 1.43338 -0.074778 -1.508158
1699.1796875 1.400947 -0.057401 -1.458348
1700.33984375 1.403597 -0.26788 -1.671477
1701.50390625 1.501302 -0.026847 -1.528149
1702.6640625 1.334978 -0.345022 -1.68
1703.81640625 1.5036829999999999 -0.04 -1.543683
1705.0 1.350759 -0.165 -1.515759
1706.14453125 1.354902 -0.315098 -1.67
1707.32421875 1.4024100000000002 -0.041494 -1.443904
1708.4921875 1.245756 -0.323389 -1.569145
1709.625 1.40838 -0.125 -1.53338
1710.80859375 1.357316 -0.107684 -1.465
1711.96484375 1.2788279999999999 -0.307015 -1.585843
1713.14453125 1.429857 -0.044192 -1.474049
1714.3359375 1.238044 -0.278474 -1.516518
1715.51171875 1.438456 -0.189326 -1.627782
1716.6875 1.393371 -0.136406 -1.529777
1717.8203125 1.32124 -0.411093 -1.732333
1718.98046875 1.413954 -0.125088 -1.539042
1720.15234375 1.268822 -0.34674 -1.615562
1721.32421875 1.404474 -0.097895 -1.502369
1722.53125 1.251874 -0.195106 -1.44698
1723.71875 1.323803 -0.200769 -1.524572
1724.9296875 1.3223779999999998 -0.092437 -1.414815
1726.11328125 1.267102 -0.366336 -1.633438
1727.29296875 1.471851 -0.112431 -1.584282
1728.4921875 1.254627 -0.227868 -1.482495
1729.62890625 1.278032 -0.173268 -1.4513
1730.80078125 1.356126 -0.117664 -1.47379
1731.98828125 1.3115450000000002 -0.354666 -1.666211
1733.15234375 1.4599499999999999 -0.058615 -1.518565
1734.34765625 1.264871 -0.253271 -1.518142
1735.484375 1.366398 -0.2675 -1.633898
1736.6796875 1.333851 -0.148805 -1.482656
1737.8046875 1.3000850000000002 -0.330774 -1.630859
1738.984375 1.457878 -0.036566 -1.494444
1740.15234375 1.3391440000000001 -0.270856 -1.61
1741.2734375 1.437599 -0.138472 -1.576071
1742.4453125 1.3899409999999999 -0.198422 -1.588363
1743.59375 1.4150680000000002 -0.389741 -1.804809
1744.79296875 1.535889 -0.14312 -1.679009
1745.9765625 1.340027 -0.408455 -1.748482
1747.16015625 1.524626 -0.06341 -1.588036
1748.35546875 1.405553 -0.214447 -1.62
1749.4921875 1.390791 -0.365 -1.755791
1750.68359375 1.445244 -0.155383 -1.600627
1751.84765625 1.3395009999999998 -0.455499 -1.795
1753.05078125 1.461336 -0.097147 -1.558483
1754.2265625 1.3489600000000002 -0.36604 -1.715
1755.4296875 1.4857099999999999 -0.097587 -1.583297
1756.62890625 1.31512 -0.130161 -1.445281
1757.7890625 1.356206 -0.170078 -1.526284
1758.98046875 1.389086 -0.110012 -1.499098
1760.15625 1.31636 -0.353106 -1.669466
1761.328125 1.430107 -0.075181 -1.505288
1762.49609375 1.3495549999999998 -0.35037 -1.699925
1763.66015625 1.527585 -0.067252 -1.594837
1764.828125 1.394086 -0.145288 -1.539374
1765.98046875 1.302821 -0.275029 -1.57785
1767.1640625 1.461396 -0.101251 -1.562647
1768.3515625 1.3354970000000002 -0.224735 -1.560232
1769.49609375 1.4445320000000001 -0.040441 -1.484973
1770.6953125 1.334157 -0.207465 -1.541622
1771.83984375 1.435313 -0.178189 -1.613502
1773.0078125 1.379271 -0.125 -1.504271
1774.15625 1.32042 -0.318538 -1.638958
1775.31640625 1.402749 -0.010236 -1.412985
1776.5 1.3004229999999999 -0.235 -1.535423
1777.640625 1.3789150000000001 -0.105 -1.483915
1778.80859375 1.3894149999999998 -0.050585 -1.44
1779.94921875 1.27292 -0.410925 -1.683845
1781.08203125 1.371826 -0.023502 -1.395328
1782.23046875 1.296961 -0.165012 -1.461973
1783.3671875 1.359455 -0.123948 -1.483403
1784.53515625 1.314187 -0.151438 -1.465625
1785.6640625 1.2831299999999999 -0.335457 -1.618587
1786.84765625 1.421122 -0.050626 -1.471748
1788.0078125 1.305005 -0.277743 -1.582748
1789.140625 1.472431 -0.082469 -1.5549
1790.29296875 1.394165 -0.029895 -1.42406
1791.44140625 1.3418160000000001 -0.190051 -1.531867
1792.6015625 1.462767 0.097767 -1.365
1793.7578125 1.292561 -0.132439 -1.425
1794.8984375 1.469271 0.103966 -1.365305
1796.0546875 1.373422 -0.009683 -1.383105
1797.18359375 1.330573 -0.17 -1.500573
1798.3359375 1.471082 0.146082 -1.325
1799.49609375 1.296599 -0.141881 -1.43848
1800.6328125 1.424043 0.124043 -1.3
1801.80859375 1.3950690000000001 0.104489 -1.29058
1802.97265625 1.368732 -0.121268 -1.49
1804.16015625 1.468807 0.099813 -1.368994
