462208 
83 
271 
494 
722 
961 
1206 
1436 
1659 
1882 
2102 
2336 
2570 
2805 
3034 
3267 
3493 
3715 
3948 
4183 
4414 
4631 
4846 
5068 
5295 
5525 
5753 
5972 
6191 
6407 
6617 
6835 
7066 
7300 
7519 
7734 
7942 
8145 
8351 
8557 
8762 
8963 
9170 
9363 
9558 
9759 
9965 
10180 
10399 
10601 
10794 
10992 
11196 
11403 
11616 
11832 
12046 
12256 
12456 
12656 
12859 
13070 
13277 
13483 
13690 
13897 
14112 
14334 
14561 
14795 
15039 
15276 
15497 
15726 
15954 
16189 
16434 
16669 
16895 
17119 
17342 
17567 
17795 
18032 
18267 
18483 
18698 
18930 
19165 
19404 
19630 
19852 
20073 
20297 
20512 
20721 
20943 
21167 
21385 
21597 
21811 
22022 
22254 
22484 
22706 
22931 
23146 
23360 
23572 
23787 
24007 
24231 
24444 
24649 
24863 
25082 
25303 
25526 
25743 
25965 
26184 
26400 
26620 
26849 
27081 
27317 
27543 
27764 
27989 
28214 
28443 
28674 
28908 
29075 
29333 
29527 
29734 
29944 
30154 
30362 
30559 
30757 
30954 
31147 
31344 
31552 
31758 
31972 
32180 
32382 
32586 
32797 
33012 
33233 
33453 
33666 
33877 
33970 
34082 
34284 
34489 
34705 
34922 
35133 
35330 
35528 
35720 
35919 
36124 
36336 
36538 
36743 
36941 
37136 
37330 
37531 
37739 
37948 
38152 
38351 
38545 
38756 
38967 
39175 
39387 
39604 
39818 
40029 
40242 
40463 
40700 
40942 
41181 
41407 
41618 
41834 
42062 
42292 
42528 
42766 
42994 
43213 
43430 
43646 
43882 
44118 
44333 
44555 
44784 
44885 
45082 
45237 
45476 
45707 
45945 
46160 
46384 
46620 
46855 
47081 
47323 
47554 
47774 
47996 
48224 
48460 
48703 
48934 
49152 
49372 
49593 
49824 
50062 
50300 
50539 
50762 
50982 
51203 
51437 
51671 
51901 
52118 
52326 
52548 
52774 
53006 
53247 
53473 
53703 
53929 
54152 
54383 
54624 
54858 
55098 
55332 
55560 
55792 
56034 
56279 
56532 
56772 
56992 
57207 
57426 
57664 
57909 
58150 
58379 
58614 
58849 
59087 
59318 
59563 
59806 
60026 
60244 
60484 
60730 
60967 
61192 
61408 
61630 
61849 
62072 
62320 
62566 
62806 
63041 
63276 
63523 
63774 
64031 
64272 
64512 
64748 
64982 
65228 
65477 
65728 
65973 
66214 
66457 
66703 
66944 
67200 
67451 
67686 
67919 
68158 
68416 
68674 
68924 
69168 
69401 
69642 
69883 
70137 
70397 
70643 
70881 
71111 
71356 
71613 
71872 
72114 
72359 
72602 
72846 
73108 
73373 
73628 
73859 
74093 
74334 
74571 
74796 
75033 
75261 
75495 
75725 
75965 
76225 
76480 
76730 
76968 
77196 
77441 
77694 
77950 
78209 
78456 
78702 
78955 
79213 
79484 
79750 
80004 
80259 
80518 
80781 
81044 
81306 
81537 
81810 
81911 
82008 
82293 
82542 
82787 
83024 
83257 
83495 
83742 
84001 
84263 
84506 
84736 
84975 
85212 
85443 
85679 
85907 
86138 
86359 
86573 
86808 
87060 
87314 
87558 
87793 
88040 
88293 
88547 
88801 
89043 
89277 
89509 
89749 
90008 
90265 
90511 
90752 
90987 
91217 
91459 
91710 
91972 
92215 
92438 
92669 
92894 
93135 
93371 
93604 
93824 
94045 
94264 
94502 
94760 
95027 
95290 
95537 
95790 
96062 
96201 
96503 
96761 
97008 
97258 
97508 
97771 
98041 
98287 
98535 
98786 
99053 
99323 
99588 
99852 
100095 
100344 
100606 
100876 
101144 
101400 
101640 
101895 
102160 
102430 
102701 
102963 
103211 
103460 
103723 
103988 
104240 
104493 
104745 
104998 
105269 
105541 
105809 
106061 
106314 
106571 
106839 
107116 
107375 
107627 
107884 
108143 
108411 
108689 
108961 
109214 
109471 
109744 
110013 
110282 
110549 
110806 
111054 
111316 
111593 
111862 
112111 
112363 
112617 
112880 
113138 
113402 
113671 
113919 
114174 
114442 
114714 
114987 
115250 
115512 
115770 
116044 
116322 
116590 
116847 
117102 
117359 
117635 
117913 
118177 
118430 
118687 
118952 
119209 
119476 
119731 
119972 
120204 
120444 
120709 
120968 
121219 
121477 
121724 
121971 
122229 
122492 
122758 
123004 
123244 
123508 
123783 
124045 
124314 
124570 
124820 
125083 
125346 
125616 
125878 
126124 
126350 
126587 
126842 
127101 
127369 
127626 
127871 
128140 
128412 
128681 
128943 
129190 
129440 
129685 
129932 
130174 
130423 
130667 
130907 
131151 
131406 
131655 
131895 
132128 
132364 
132603 
132856 
133112 
133371 
133602 
133825 
134054 
134288 
134538 
134787 
135028 
135267 
135500 
135726 
135971 
136222 
136476 
136709 
136939 
137175 
137415 
137663 
137907 
138146 
138386 
138622 
138858 
139107 
139368 
139626 
139865 
140109 
140355 
140598 
140847 
141096 
141343 
141583 
141824 
142075 
142330 
142583 
142829 
143073 
143313 
143558 
143805 
144058 
144315 
144563 
144805 
145053 
145299 
145545 
145789 
146026 
146261 
146511 
146774 
147035 
147301 
147558 
147813 
148066 
148342 
148621 
148878 
149141 
149399 
149658 
149924 
150202 
150474 
150727 
150993 
151260 
151522 
151783 
152033 
152274 
152518 
152768 
153043 
153280 
153575 
153828 
154078 
154326 
154576 
154810 
155053 
155289 
155516 
155769 
156035 
156304 
156563 
156823 
157084 
157343 
157618 
157881 
158131 
158373 
158611 
158862 
159122 
159374 
159622 
159864 
160110 
160354 
160620 
160888 
161150 
161408 
161659 
161911 
162183 
162453 
162709 
162969 
163224 
163472 
163737 
164013 
164278 
164521 
164777 
165040 
165304 
165572 
165839 
166099 
166345 
166608 
166890 
167159 
167420 
167677 
167934 
168196 
168476 
168753 
169005 
169252 
169504 
169754 
170020 
170286 
170533 
170780 
171036 
171298 
171565 
171837 
172102 
172351 
172610 
172887 
173163 
173430 
173690 
173954 
174207 
174476 
174757 
175020 
175269 
175522 
175791 
176058 
176326 
176593 
176846 
177087 
177343 
177611 
177869 
178126 
178372 
178621 
178868 
179130 
179401 
179658 
179912 
180165 
180428 
180698 
180966 
181231 
181478 
181738 
182005 
182276 
182553 
182821 
183070 
183329 
183602 
183871 
184136 
184397 
184652 
184893 
185144 
185411 
185678 
185928 
186176 
186431 
186689 
186955 
187221 
187469 
187723 
187975 
188229 
188501 
188767 
189014 
189263 
189523 
189783 
190045 
190308 
190564 
190812 
191059 
191327 
191598 
191856 
192110 
192369 
192619 
192883 
193156 
193415 
193667 
193919 
194176 
194439 
194705 
194967 
195215 
195469 
195729 
195985 
196256 
196523 
196771 
197015 
197274 
197547 
197805 
198060 
198321 
198569 
198817 
199087 
199364 
199621 
199874 
200133 
200394 
200657 
200929 
201193 
201443 
201700 
201959 
202233 
202497 
202759 
203011 
203259 
203523 
203791 
204052 
204309 
204561 
204811 
205068 
205346 
205605 
205859 
206117 
206362 
206618 
206888 
207148 
207400 
207651 
207899 
208157 
208427 
208694 
208943 
209193 
209447 
209701 
209958 
210219 
210469 
210715 
210966 
211237 
211504 
211762 
212029 
212282 
212534 
212800 
213055 
213314 
213552 
213775 
214011 
214246 
214499 
214761 
215023 
215274 
215527 
215791 
216068 
216336 
216600 
216861 
217117 
217378 
217646 
217923 
218180 
218434 
218686 
218945 
219190 
219464 
219707 
219954 
220197 
220453 
220722 
220991 
221238 
221483 
221730 
221977 
222238 
222499 
222742 
222988 
223237 
223481 
223739 
223978 
224205 
224423 
224644 
224866 
225100 
225341 
225575 
225826 
226071 
226320 
226574 
226845 
227117 
227373 
227620 
227876 
228139 
228411 
228670 
228930 
229180 
229427 
229687 
229956 
230218 
230468 
230712 
230967 
231229 
231488 
231748 
231993 
232217 
232440 
232665 
232916 
233173 
233423 
233672 
233924 
234185 
234456 
234718 
234985 
235242 
235506 
235774 
236043 
236305 
236566 
236824 
237076 
237315 
237577 
237824 
238057 
238278 
238494 
238715 
238934 
239166 
239397 
239628 
239853 
240077 
240309 
240557 
240813 
241065 
241311 
241570 
241817 
242075 
242324 
242559 
242791 
243027 
243276 
243548 
243820 
244090 
244351 
244615 
244879 
245141 
245409 
245668 
245910 
246142 
246386 
246643 
246890 
247118 
247353 
247589 
247825 
248072 
248328 
248587 
248828 
249047 
249260 
249475 
249694 
249912 
250142 
250371 
250613 
250858 
251118 
251390 
251650 
251899 
252134 
252368 
252598 
252840 
253094 
253352 
253603 
253851 
254111 
254384 
254657 
254920 
255179 
255433 
255688 
255958 
256225 
256486 
256722 
256956 
257209 
257451 
257700 
257939 
258156 
258368 
258578 
258788 
259022 
259272 
259511 
259736 
259958 
260193 
260451 
260719 
260991 
261260 
261522 
261788 
262067 
262348 
262614 
262854 
263108 
263362 
263617 
263876 
264130 
264381 
264627 
264877 
265146 
265402 
265655 
265903 
266157 
266414 
266677 
266948 
267205 
267453 
267703 
267960 
268222 
268479 
268735 
268991 
269232 
269479 
269744 
270011 
270263 
270505 
270748 
271006 
271252 
271487 
271733 
271965 
272199 
272430 
272676 
272944 
273194 
273444 
273691 
273939 
274196 
274463 
274731 
274986 
275236 
275487 
275733 
275995 
276237 
276465 
276686 
276917 
277157 
277405 
277653 
277906 
278157 
278405 
278654 
278924 
279190 
279440 
279683 
279933 
280186 
280443 
280715 
280969 
281203 
281447 
281695 
281961 
282226 
282489 
282742 
282985 
283234 
283495 
283753 
284013 
284265 
284512 
284753 
285002 
285248 
285492 
285732 
285980 
286235 
286492 
286766 
287035 
287298 
287548 
287810 
288079 
288344 
288617 
288877 
289129 
289380 
289651 
289927 
290184 
290442 
290695 
290943 
291208 
291479 
291742 
291992 
292241 
292490 
292757 
293022 
293278 
293529 
293784 
294031 
294290 
294568 
294826 
295071 
295325 
295575 
295839 
296102 
296357 
296609 
296855 
297101 
297362 
297632 
297883 
298132 
298385 
298633 
298897 
299152 
299413 
299664 
299907 
300157 
300419 
300688 
300941 
301182 
301421 
301662 
301897 
302134 
302381 
302625 
302865 
303110 
303362 
303635 
303902 
304154 
304410 
304655 
304909 
305177 
305449 
305700 
305949 
306209 
306465 
306729 
306991 
307237 
307484 
307726 
307964 
308221 
308478 
308727 
308965 
309215 
309476 
309737 
310002 
310268 
310513 
310757 
311016 
311289 
311550 
311797 
312044 
312290 
312539 
312789 
313042 
313291 
313535 
313769 
314017 
314266 
314520 
314761 
314987 
315216 
315442 
315678 
315933 
316181 
316415 
316650 
316889 
317141 
317392 
317650 
317907 
318152 
318393 
318645 
318894 
319153 
319405 
319643 
319891 
320139 
320382 
320634 
320879 
321124 
321367 
321611 
321867 
322121 
322372 
322615 
322853 
323101 
323343 
323603 
323864 
324113 
324349 
324588 
324835 
325090 
325334 
325578 
325827 
326065 
326308 
326566 
326816 
327071 
327316 
327546 
327795 
328044 
328289 
328535 
328775 
329013 
329249 
329502 
329772 
330025 
330275 
330513 
330759 
331011 
331270 
331521 
331762 
331991 
332224 
332471 
332720 
332976 
333222 
333451 
333692 
333935 
334184 
334443 
334694 
334944 
335186 
335428 
335687 
335944 
336200 
336449 
336701 
336952 
337194 
337450 
337707 
337952 
338186 
338427 
338685 
338941 
339203 
339451 
339695 
339928 
340174 
340430 
340692 
340939 
341184 
341436 
341690 
341942 
342210 
342468 
342706 
342947 
343189 
343453 
343698 
343945 
344188 
344423 
344666 
344910 
345166 
345425 
345677 
345926 
346183 
346451 
346723 
346978 
347226 
347476 
347725 
347978 
348232 
348492 
348740 
348975 
349216 
349469 
349723 
349972 
350207 
350438 
350670 
350907 
351149 
351400 
351640 
351874 
352108 
352347 
352595 
352851 
353108 
353356 
353584 
353815 
354052 
354292 
354530 
354754 
354968 
355194 
355415 
355641 
355872 
356105 
356338 
356566 
356796 
357023 
357269 
357514 
357752 
357976 
358192 
358419 
358656 
358901 
359162 
359410 
359646 
359872 
360108 
360356 
360600 
360837 
361084 
361328 
361575 
361836 
362107 
362376 
362620 
362869 
363127 
363391 
363658 
363914 
364164 
364410 
364661 
364923 
365183 
365435 
365688 
365935 
366186 
366446 
366710 
366981 
367234 
367484 
367728 
367990 
368256 
368511 
368756 
369006 
369255 
369512 
369774 
370039 
370289 
370533 
370789 
371054 
371311 
371571 
371809 
372055 
372299 
372549 
372796 
373049 
373297 
373544 
373786 
374047 
374317 
374579 
374835 
375088 
375331 
375567 
375814 
376075 
376325 
376577 
376836 
377098 
377366 
377635 
377894 
378140 
378309 
378635 
378913 
379178 
379436 
379689 
379946 
380209 
380473 
380731 
380980 
381227 
381486 
381763 
382047 
382322 
382594 
382851 
383097 
383365 
383636 
383900 
384142 
384392 
384654 
384916 
385172 
385433 
385692 
385937 
386182 
386453 
386723 
386978 
387227 
387483 
387746 
388010 
388280 
388548 
388793 
389034 
389289 
389561 
389826 
390086 
390347 
390604 
390859 
391133 
391406 
391667 
391912 
392155 
392410 
392666 
392927 
393184 
393426 
393677 
393934 
394196 
394459 
394720 
394966 
395205 
395463 
395729 
395986 
396242 
396498 
396748 
396999 
397267 
397538 
397788 
398032 
398290 
398545 
398805 
399071 
399321 
399550 
399768 
399999 
400261 
400525 
400779 
401032 
401290 
401543 
401802 
402076 
402348 
402597 
402851 
403114 
403383 
403647 
403910 
404173 
404419 
404671 
404941 
405210 
405463 
405712 
405968 
406227 
406481 
406746 
407006 
407256 
407497 
407750 
408025 
408288 
408542 
408791 
409032 
409274 
409525 
409785 
410044 
410288 
410535 
410794 
411066 
411339 
411601 
411859 
412112 
412358 
412622 
412893 
413160 
413414 
413667 
413932 
414201 
414467 
414730 
414983 
415241 
415495 
415762 
416031 
416285 
416528 
416775 
417040 
417305 
417566 
417830 
418068 
418313 
418568 
418837 
419096 
419349 
419600 
419854 
420104 
420367 
420632 
420873 
421108 
421345 
421578 
421822 
422063 
422301 
422541 
422780 
423031 
423286 
423552 
423820 
424072 
424320 
424577 
424852 
425116 
425379 
425639 
425880 
426127 
426388 
426647 
426902 
427147 
427396 
427647 
427907 
428166 
428420 
428672 
428910 
429148 
429402 
429661 
429906 
430144 
430387 
430623 
430875 
431135 
431401 
431645 
431883 
432120 
432354 
432598 
432849 
433096 
433337 
433588 
433846 
434120 
434392 
434663 
434915 
435164 
435429 
435691 
435947 
436199 
436450 
436701 
436959 
437216 
437484 
437740 
437986 
438237 
438498 
438768 
439022 
439286 
439540 
439788 
440040 
440307 
440580 
440833 
441078 
441337 
441595 
441857 
442121 
442386 
442626 
442866 
443124 
443385 
443630 
443873 
444114 
444354 
444594 
444852 
445122 
445379 
445623 
445870 
446120 
446370 
446623 
446874 
447123 
447370 
447621 
447890 
448161 
448433 
448687 
448941 
449193 
449455 
449726 
449988 
450244 
450495 
450754 
451030 
451293 
451550 
451804 
452061 
452325 
452598 
452863 
453119 
453360 
453603 
453847 
454095 
454330 
454569 
454811 
455061 
455304 
455561 
455827 
456092 
456334 
456573 
456832 
457099 
457358 
457618 
457873 
458134 
458391 
458663 
458936 
459188 
459436 
459686 
459950 
460215 
460482 
460741 
460995 
461248 
461502 
461763 
462033 
