77 
212 
346 
490 
629 
770 
908 
1042 
1176 
1308 
1441 
1568 
1700 
1834 
1970 
2114 
2262 
2405 
2552 
2683 
2813 
2942 
3075 
3203 
3339 
3480 
3624 
3764 
3902 
4034 
4167 
4304 
4440 
4550 
4704 
4837 
4975 
5120 
5259 
5404 
5547 
5691 
5824 
5956 
6084 
6214 
6350 
6457 
6536 
6779 
6919 
7060 
7196 
7330 
7438 
7533 
7722 
7856 
7991 
8131 
8268 
8409 
8556 
8699 
8832 
8963 
9089 
9217 
9347 
9475 
9612 
9753 
9899 
10041 
10180 
10312 
10442 
10574 
10663 
10841 
10979 
11117 
11258 
11396 
11540 
11677 
11819 
11931 
12081 
12206 
12335 
12464 
12597 
12736 
12880 
13021 
13117 
13298 
13429 
13560 
13687 
13814 
13919 
14080 
14219 
14359 
14497 
14633 
14776 
14919 
15050 
15178 
15304 
15433 
15564 
15703 
15834 
15978 
16121 
16268 
16406 
16543 
16670 
16797 
16928 
17065 
17200 
17343 
17482 
17624 
17771 
17911 
18046 
18175 
18307 
18434 
18525 
18696 
18833 
18978 
19132 
19278 
19422 
19552 
19647 
19726 
19940 
20072 
20204 
20346 
20485 
20626 
20762 
20895 
21030 
21164 
21291 
21420 
21546 
21671 
21802 
21904 
22079 
22223 
22365 
22510 
22642 
22773 
22898 
23026 
23160 
23300 
23439 
23583 
23721 
23863 
24004 
24139 
24270 
24401 
24533 
24667 
24764 
24937 
25076 
25222 
25377 
25521 
25624 
25789 
25918 
26048 
26178 
26312 
26448 
26592 
26733 
26876 
27015 
27151 
27260 
27416 
27541 
27672 
27800 
27932 
28061 
28203 
28340 
28486 
28628 
28765 
28893 
29021 
29149 
29280 
29416 
29556 
29696 
29840 
29979 
30118 
30254 
30384 
30517 
30648 
30785 
30916 
31055 
31191 
31331 
31477 
31627 
31765 
31900 
32027 
32156 
32287 
32417 
32550 
32689 
32807 
32978 
33121 
33257 
33388 
33518 
33650 
33780 
33913 
34045 
34179 
34313 
34457 
34595 
34734 
34868 
35002 
35130 
35258 
35383 
35510 
35646 
35791 
35934 
36078 
36218 
36344 
36490 
36620 
36746 
36879 
37014 
37152 
37290 
37434 
37574 
37718 
37861 
38000 
38131 
38261 
38385 
38514 
38648 
38786 
38925 
39065 
39213 
39356 
39493 
39620 
39745 
39874 
40009 
40143 
40278 
40416 
40556 
40691 
40822 
40965 
41100 
41227 
41354 
41477 
41581 
41738 
41873 
41966 
42159 
42299 
42442 
42568 
42697 
42792 
42954 
43078 
43209 
43344 
43486 
43626 
43768 
43903 
44038 
44173 
44291 
44435 
44564 
44693 
44830 
44970 
45107 
45248 
45393 
45541 
45671 
45799 
45892 
45971 
46096 
46192 
46329 
46413 
46613 
46754 
46894 
47032 
47169 
47295 
47421 
47547 
47677 
47805 
47944 
48078 
48212 
48365 
48516 
48616 
48703 
48808 
48912 
49033 
49160 
49290 
49425 
49561 
49705 
49846 
49990 
50088 
50195 
50292 
50384 
50514 
50641 
50776 
50860 
50958 
51181 
51328 
51465 
51606 
51746 
51847 
52001 
52126 
52252 
52382 
52518 
52657 
52794 
52938 
53072 
53210 
53342 
53471 
53600 
53727 
53863 
53992 
54131 
54265 
54403 
54545 
54688 
54821 
54954 
55081 
55206 
55330 
55462 
55592 
55733 
55874 
56017 
56158 
56296 
56424 
56553 
56685 
56817 
56952 
57088 
57220 
57357 
57498 
57632 
57775 
57909 
58044 
58169 
58300 
58428 
58545 
58694 
58839 
58983 
59129 
59267 
59402 
59530 
59658 
59783 
59891 
60047 
60184 
60323 
60466 
60608 
60745 
60885 
61020 
61148 
61275 
61401 
61530 
61656 
61785 
61921 
62060 
62203 
62346 
62483 
62613 
62737 
62862 
62990 
63126 
63260 
63401 
63536 
63678 
63819 
63953 
64082 
64209 
64339 
64465 
64595 
64725 
64859 
65003 
65153 
65297 
65435 
65569 
65699 
65829 
65959 
66083 
66214 
66349 
66495 
66611 
66779 
66918 
67053 
67189 
67326 
67454 
67586 
67714 
67849 
67984 
68129 
68270 
68418 
68561 
68701 
68832 
68963 
69093 
69225 
69362 
69505 
69646 
69794 
69934 
70069 
70205 
70336 
70469 
70602 
70742 
70871 
71014 
71150 
71293 
71437 
71588 
71725 
71861 
71991 
72119 
72252 
72386 
72523 
72665 
72812 
72951 
73053 
73222 
73360 
73493 
73631 
73764 
73902 
74038 
74177 
74319 
74465 
74603 
74746 
74881 
75013 
75136 
75260 
75385 
75517 
75659 
75810 
75959 
76111 
76247 
76381 
76513 
76640 
76769 
76905 
77048 
77188 
77334 
77472 
77614 
77760 
77902 
78029 
78158 
78251 
78339 
78540 
78682 
78815 
78959 
79101 
79244 
79378 
79508 
79634 
79761 
79888 
80025 
80159 
80302 
80441 
80584 
80730 
80865 
80998 
81125 
81256 
81382 
81520 
81651 
81787 
81930 
82079 
82224 
82370 
82503 
82633 
82760 
82886 
83014 
83148 
83290 
83432 
83536 
83716 
83849 
83984 
84117 
84245 
84374 
84504 
84629 
84731 
84895 
85029 
85173 
85315 
85458 
85590 
85719 
85844 
85971 
86105 
86243 
86378 
86522 
86658 
86803 
86943 
87078 
87208 
87338 
87472 
87604 
87739 
87874 
88010 
88155 
88310 
88458 
88599 
88728 
88857 
88984 
89117 
89245 
89384 
89524 
89670 
89812 
89957 
90092 
90223 
90356 
90487 
90613 
90751 
90881 
91021 
91166 
91306 
91449 
91590 
91729 
91860 
91992 
92121 
92252 
92388 
92535 
92682 
92832 
92976 
93120 
93255 
93386 
93477 
93645 
93783 
93921 
94058 
94199 
94336 
94480 
94624 
94764 
94894 
95023 
95146 
95272 
95406 
95541 
95677 
95815 
95964 
96109 
96253 
96386 
96514 
96643 
96780 
96916 
97054 
97192 
97331 
97469 
97583 
97748 
97885 
97998 
98148 
98273 
98406 
98534 
98672 
98817 
98968 
99110 
99254 
99385 
99517 
99648 
99778 
99910 
100043 
100182 
100326 
100471 
100616 
100755 
100893 
101030 
101160 
101291 
101421 
101554 
101689 
101833 
101974 
102124 
102271 
102415 
102545 
102675 
102802 
102934 
103073 
103216 
103358 
103506 
103646 
103753 
103934 
104064 
104196 
104324 
104460 
104553 
104734 
104868 
105009 
105153 
105311 
105452 
105589 
105711 
105836 
105963 
106098 
106234 
106383 
106533 
106689 
106835 
106977 
107106 
107237 
107373 
107509 
107650 
107785 
107924 
108066 
108214 
108357 
108505 
108643 
108773 
108900 
109028 
109160 
109300 
109392 
109485 
109629 
109747 
109892 
110035 
110167 
110299 
110410 
110558 
110695 
110804 
110976 
111118 
111259 
111407 
111555 
111693 
111824 
111953 
112082 
112213 
112349 
112482 
112628 
112733 
112928 
113067 
113203 
113333 
113464 
113597 
113733 
113866 
114007 
114145 
114287 
114434 
114570 
114708 
114840 
114974 
115100 
115232 
115340 
115496 
115638 
115791 
115935 
116083 
116215 
116344 
116473 
116602 
116735 
116869 
117010 
117150 
117295 
117438 
117578 
117721 
117857 
117987 
118117 
118245 
118378 
118507 
118648 
118783 
118931 
119079 
119226 
119356 
119485 
119614 
119744 
119880 
120019 
120159 
120307 
120448 
120592 
120732 
120865 
120998 
121127 
121259 
121392 
121529 
121664 
121799 
121942 
122093 
122239 
122383 
122511 
122637 
122763 
122895 
123025 
123165 
123254 
123449 
123588 
123732 
123866 
123998 
124128 
124258 
124382 
124517 
124643 
124779 
124912 
125051 
125187 
125329 
125466 
125598 
125725 
125853 
125979 
126109 
126247 
126394 
126537 
126637 
126818 
126955 
127072 
127216 
127344 
127473 
127609 
127708 
127811 
128025 
128132 
128313 
128460 
128597 
128727 
128855 
128983 
129111 
129246 
129378 
129524 
129668 
129817 
129957 
130072 
130221 
130348 
130478 
130617 
130748 
130888 
131022 
131163 
131306 
131450 
131585 
131717 
131847 
131975 
132107 
132240 
132373 
132512 
132663 
132814 
132964 
133104 
133236 
133363 
133493 
133620 
133759 
133901 
134052 
134194 
134341 
134480 
134622 
134763 
134847 
135025 
135158 
135290 
135424 
135570 
135711 
135857 
136001 
136148 
136281 
136413 
136517 
136604 
136805 
136950 
137092 
137241 
137382 
137528 
137669 
137801 
137930 
138058 
138189 
138320 
138452 
138583 
138716 
138860 
139011 
139154 
139290 
139415 
139542 
139667 
139800 
139927 
140064 
140205 
140353 
140498 
140642 
140780 
140913 
141046 
141177 
141308 
141443 
141578 
141714 
141858 
141997 
142121 
142289 
142427 
142554 
142681 
142806 
142938 
143073 
143218 
143360 
143513 
143648 
143787 
143919 
144017 
144178 
144307 
144442 
144570 
144706 
144843 
144981 
145126 
145274 
145385 
145539 
145665 
145794 
145920 
146054 
146184 
146329 
146474 
146586 
146669 
146900 
147034 
147162 
147293 
147425 
147561 
147700 
147834 
147974 
148117 
148258 
148401 
148535 
148668 
148797 
148927 
149059 
149191 
149332 
149480 
149625 
149774 
149916 
150052 
150179 
150309 
150433 
150567 
150701 
150844 
150977 
151084 
151253 
151394 
151504 
151671 
151798 
151927 
152051 
152184 
152319 
152456 
152595 
152736 
152883 
153025 
153158 
153286 
153409 
153538 
153674 
153809 
153947 
154087 
154226 
154364 
154510 
154644 
154777 
154906 
155039 
155170 
155303 
155436 
155576 
155693 
155877 
156018 
156159 
156289 
156420 
156549 
156680 
156811 
156949 
157094 
157242 
157387 
157533 
157671 
157771 
157941 
158072 
158205 
158340 
158477 
158586 
158762 
158898 
159046 
159186 
159324 
159453 
159583 
159708 
159837 
159973 
160118 
160260 
160408 
160546 
160683 
160817 
160947 
161077 
161208 
161347 
161481 
161621 
161763 
161904 
162053 
162203 
162340 
162474 
162603 
162735 
162869 
163009 
163146 
163293 
163444 
163595 
163744 
163883 
164014 
164145 
164279 
164419 
164559 
164700 
164843 
164986 
165130 
165268 
165370 
165542 
165672 
165796 
165924 
166054 
166193 
166346 
166496 
166590 
166788 
166926 
167059 
167193 
167320 
167419 
167591 
167733 
167874 
168019 
168122 
168303 
168446 
168583 
168715 
168843 
168975 
169106 
169246 
169382 
169530 
169677 
169830 
169970 
170104 
170230 
170360 
170497 
170637 
170777 
170921 
171062 
171202 
171349 
171486 
171625 
171760 
171895 
172025 
172159 
172276 
172439 
172591 
172752 
172900 
173041 
173171 
173299 
173432 
173561 
173699 
173835 
173981 
174124 
174270 
174410 
174551 
174650 
174818 
174941 
175072 
175199 
175331 
175470 
175605 
175750 
175894 
176041 
176174 
176304 
176430 
176558 
176692 
176835 
176973 
177121 
177262 
177408 
177550 
177690 
177823 
177954 
178087 
178222 
178358 
178496 
178635 
178778 
178926 
179072 
179213 
179346 
179477 
179603 
179734 
179861 
180000 
180143 
180293 
180435 
180578 
180710 
180844 
180979 
181113 
181247 
181381 
181511 
181648 
181791 
181932 
182079 
182219 
182355 
182482 
182612 
182741 
182872 
183010 
183155 
183296 
183444 
183584 
183725 
183858 
183989 
184115 
184243 
184373 
184509 
184643 
184785 
184919 
185058 
185182 
185279 
185476 
185609 
185733 
185862 
185996 
186133 
186276 
186422 
186573 
186717 
186859 
186992 
187124 
187256 
187393 
187528 
187671 
187771 
187955 
188097 
188241 
188376 
188513 
188646 
188778 
188909 
189042 
189171 
189308 
189456 
189604 
189749 
189888 
190015 
190142 
190272 
190367 
190532 
190665 
190809 
190949 
191095 
191236 
191377 
191516 
191651 
191779 
191911 
192043 
192178 
192316 
192460 
192603 
192752 
192903 
193043 
193175 
193305 
193434 
193569 
193712 
193856 
194005 
194147 
194291 
194434 
194577 
194712 
194844 
194977 
195114 
195252 
195392 
195533 
195679 
195835 
195984 
196128 
196258 
196390 
196518 
196652 
196786 
196930 
197081 
197227 
197372 
197510 
197647 
197785 
197922 
198052 
198187 
198317 
198458 
198601 
198747 
198856 
199034 
199174 
199304 
199432 
199557 
199679 
199811 
199951 
200096 
200244 
200387 
200526 
200660 
200794 
200922 
201055 
201188 
201325 
201460 
201603 
201747 
201895 
202047 
202195 
202330 
202462 
202592 
202722 
202861 
202992 
203138 
203287 
203440 
203585 
203727 
203860 
203993 
204127 
204264 
204402 
204539 
204677 
204818 
204968 
205109 
205256 
205393 
205525 
205651 
205781 
205913 
206049 
206196 
206345 
206487 
206633 
206772 
206906 
207039 
207162 
207291 
207421 
207561 
207697 
207839 
207975 
208112 
208229 
208401 
208532 
208663 
208786 
208917 
209049 
209189 
209329 
209472 
209620 
209764 
209904 
210038 
210168 
210300 
210435 
210573 
210715 
210858 
211002 
211140 
211284 
211418 
211554 
211687 
211821 
211950 
212082 
212212 
212352 
212500 
212653 
212798 
212939 
213069 
213199 
213331 
213459 
213590 
213723 
213865 
213975 
214148 
214289 
214424 
214556 
214689 
214818 
214948 
215080 
215212 
215343 
215485 
215624 
215770 
215914 
216059 
216189 
216321 
216449 
216580 
216720 
216868 
217010 
217161 
217302 
217447 
217587 
217719 
217852 
217984 
218122 
218258 
218400 
218538 
218679 
218828 
218982 
219125 
219263 
219392 
219521 
219650 
219786 
219925 
220071 
220222 
220366 
220509 
220647 
220782 
220915 
221050 
221147 
221319 
221452 
221593 
221736 
221882 
222021 
222161 
222294 
222422 
222548 
222673 
222799 
222928 
223067 
223214 
223357 
223505 
223641 
223774 
223903 
224030 
224162 
224295 
224437 
224550 
224719 
224859 
225002 
225151 
225297 
225427 
225558 
225684 
225816 
225951 
226089 
226236 
226380 
226531 
226673 
226816 
226949 
227047 
227214 
227351 
227487 
227634 
227774 
227922 
228068 
228208 
228347 
228481 
228618 
228748 
228884 
229015 
229152 
229298 
229458 
229608 
229756 
229888 
230019 
230146 
230271 
230405 
230511 
230686 
230826 
230971 
231113 
231255 
231398 
231537 
231666 
231796 
231923 
232059 
232198 
232341 
232487 
232632 
232786 
232929 
233066 
233198 
233326 
233460 
233602 
233708 
233894 
234037 
234180 
234323 
234464 
234601 
234735 
234871 
235002 
235136 
235271 
235413 
235562 
235717 
235860 
236003 
236134 
236267 
236397 
236526 
236657 
236792 
236933 
237074 
237216 
237357 
237489 
237620 
237749 
237878 
238007 
238142 
238272 
238407 
238552 
238689 
238838 
238984 
239128 
239259 
239389 
239517 
239650 
239792 
239941 
240086 
240235 
240377 
240521 
240662 
240794 
240928 
241058 
241197 
241330 
241474 
241614 
241758 
241903 
242053 
242191 
242328 
242457 
242587 
242718 
242848 
242986 
243131 
243280 
243423 
243563 
243696 
243825 
243955 
244088 
244221 
244355 
244490 
244626 
244765 
244910 
245046 
245185 
245316 
245448 
245574 
245703 
245829 
245959 
246098 
246250 
246398 
246495 
246681 
246814 
246943 
247074 
247198 
247328 
247458 
247598 
247732 
247876 
248011 
248153 
248293 
248425 
248548 
248646 
248797 
248927 
249056 
249188 
249323 
249466 
249614 
249755 
249886 
250013 
250138 
250267 
250401 
250501 
250673 
250815 
250955 
251093 
251235 
251369 
251502 
251632 
251762 
251886 
252020 
252153 
252288 
252418 
252526 
252733 
252877 
253007 
253135 
253265 
253393 
253527 
253664 
253810 
253957 
254103 
254244 
254381 
254475 
254652 
254782 
254915 
255044 
255177 
255313 
255460 
255601 
255750 
255896 
256033 
256160 
256288 
256415 
256549 
256693 
256839 
256987 
257136 
257279 
257417 
257556 
257686 
257820 
257949 
258081 
258212 
258351 
258490 
258635 
258782 
258928 
259056 
259138 
259319 
259447 
259565 
259708 
259845 
259986 
260142 
260289 
260434 
260566 
260697 
260797 
260963 
261092 
261230 
261361 
261501 
261642 
261786 
261932 
262074 
262212 
262340 
262470 
262600 
262732 
262870 
263017 
263160 
263311 
263452 
263593 
263727 
263858 
263991 
264124 
264263 
264394 
264535 
264675 
264799 
264963 
265064 
265247 
265381 
265508 
265634 
265759 
265894 
266028 
266172 
266320 
266463 
266603 
266741 
266871 
267004 
267139 
267275 
267412 
267551 
267689 
267831 
267976 
268111 
268253 
268389 
268524 
268653 
268783 
268911 
269049 
269193 
269343 
269486 
269636 
269740 
269910 
270045 
270175 
270306 
270440 
270585 
270729 
270878 
271022 
271163 
271307 
271448 
271581 
271714 
271841 
271975 
272112 
272256 
272398 
272544 
272696 
272841 
272979 
273080 
273243 
273376 
273518 
273660 
273812 
273960 
274104 
274247 
274389 
274525 
274661 
274794 
274929 
275064 
275204 
275345 
275448 
275649 
275801 
275943 
276075 
276205 
276334 
276470 
276602 
276743 
276882 
277029 
277169 
277315 
277449 
277582 
277714 
277845 
277978 
278117 
278249 
278388 
278534 
278677 
278828 
278974 
279115 
279244 
279377 
279508 
279644 
279786 
279938 
280089 
280241 
280384 
280526 
280663 
280793 
280929 
281061 
281202 
281337 
281482 
281623 
281771 
281921 
282068 
282203 
282334 
282460 
282591 
282728 
282866 
283013 
283158 
283312 
283456 
283600 
283735 
283868 
284001 
284139 
284256 
284422 
284565 
284713 
284862 
285004 
285150 
285286 
285422 
285552 
285685 
285815 
285953 
286103 
286261 
286416 
286566 
286648 
286834 
286968 
287095 
287233 
287371 
287514 
287655 
287805 
287947 
288091 
288203 
288370 
288494 
288623 
288753 
288889 
289028 
289165 
289313 
289460 
289613 
289752 
289887 
290014 
290142 
290279 
290421 
290560 
290707 
290845 
290990 
291139 
291278 
291414 
291546 
291680 
291812 
291950 
292083 
292201 
292373 
292528 
292672 
292816 
292948 
293079 
293212 
293340 
293476 
293613 
293761 
293903 
294048 
294189 
294327 
294462 
294596 
294724 
294857 
294989 
295124 
295262 
295399 
295541 
295689 
295835 
295968 
296097 
296226 
296353 
296487 
296630 
296771 
296917 
297058 
297201 
297341 
297480 
297609 
297741 
297873 
298008 
298142 
298278 
298414 
298561 
298715 
298867 
299006 
299137 
299266 
299394 
299528 
299657 
299796 
299936 
300087 
300228 
300373 
300506 
300636 
300767 
300900 
301031 
301169 
301301 
301442 
301582 
301727 
301869 
302013 
302150 
302281 
302412 
302543 
302676 
302816 
302965 
303117 
303268 
303416 
303558 
303691 
303824 
303950 
304084 
304222 
304367 
304508 
304655 
304792 
304938 
305037 
305226 
305358 
305488 
305614 
305746 
305885 
306022 
306125 
306309 
306453 
306589 
306726 
306854 
306983 
307113 
307251 
307384 
307527 
307666 
307809 
307949 
308091 
308226 
308361 
308496 
308628 
308759 
308891 
309027 
309172 
309325 
309474 
309580 
309759 
309892 
310023 
310156 
310287 
310427 
310570 
310718 
310866 
311015 
311158 
311300 
311437 
311571 
311704 
311840 
311979 
312120 
312268 
312371 
312564 
312716 
312858 
312991 
313120 
313248 
313381 
313523 
313666 
313818 
313969 
314113 
314250 
314387 
314517 
314650 
314782 
314918 
315052 
315138 
315252 
315349 
315489 
315647 
315796 
315937 
316067 
316200 
316331 
316468 
316602 
316747 
316899 
317053 
317206 
317349 
317484 
317619 
317757 
317892 
318033 
318166 
318310 
318453 
318601 
318750 
318893 
319035 
319167 
319301 
319432 
319571 
319670 
319865 
320012 
320167 
320310 
320452 
320587 
320714 
320845 
320975 
321114 
321247 
321385 
321520 
321656 
321749 
321951 
322085 
322217 
322341 
322469 
322598 
322735 
322874 
323017 
323163 
323307 
323452 
323590 
323722 
323855 
323990 
324123 
324264 
324401 
324546 
324690 
324833 
324977 
325119 
325260 
325394 
325526 
325630 
325788 
325929 
326083 
326233 
326325 
326526 
326663 
326794 
326927 
327058 
327158 
327328 
327467 
327608 
327753 
327892 
328036 
328177 
328308 
328436 
328562 
328690 
328819 
328954 
329086 
329233 
329377 
329530 
329669 
329804 
329930 
330059 
330193 
330338 
330477 
330626 
330766 
330912 
331058 
331201 
331340 
331475 
331613 
331745 
331882 
332019 
332163 
332313 
332470 
332617 
332762 
332892 
333024 
333155 
333288 
333425 
333565 
333716 
333860 
333959 
334062 
334286 
334428 
334565 
334695 
334828 
334958 
335092 
335227 
335371 
335507 
335652 
335788 
335922 
336045 
336173 
336297 
336429 
336567 
336715 
336859 
337007 
337147 
337289 
337427 
337559 
337693 
337823 
337961 
338094 
338237 
338376 
338518 
338666 
338819 
338958 
339095 
339225 
339356 
339489 
339623 
339765 
339913 
340070 
340216 
340363 
340495 
340628 
340764 
340902 
341038 
341178 
341312 
341424 
341600 
341746 
341891 
342026 
342158 
342283 
342409 
342537 
342668 
342771 
342967 
343248 
343400 
343537 
343669 
343798 
343927 
344055 
344193 
344336 
344488 
344633 
344781 
344884 
345065 
345204 
345334 
345466 
345599 
345737 
345876 
346023 
346166 
346317 
346469 
346613 
346747 
346877 
347004 
347139 
347282 
347426 
347576 
347721 
347867 
348006 
348147 
348281 
348414 
348546 
348677 
348809 
348946 
349084 
349232 
349383 
349530 
349670 
349800 
349930 
350058 
350191 
350320 
350461 
350607 
350756 
350902 
351044 
351180 
351316 
351452 
351584 
351718 
351850 
351985 
352124 
352273 
352413 
352562 
352707 
352844 
352974 
353106 
353236 
353372 
353513 
353657 
353805 
353953 
354100 
354237 
354374 
354502 
354635 
354769 
354906 
355038 
355177 
355312 
355454 
355603 
355752 
355885 
356016 
356139 
356268 
356403 
356536 
356675 
356817 
356972 
357081 
357267 
357402 
357534 
357665 
357800 
357936 
358076 
358213 
358355 
358494 
358640 
358783 
358923 
359059 
359188 
359317 
359451 
359584 
359726 
359879 
360030 
360181 
360326 
360464 
360597 
360731 
360857 
360992 
361130 
361277 
361420 
361566 
361704 
361846 
361986 
362124 
362256 
362355 
362516 
362648 
362790 
362879 
363079 
363226 
363377 
363514 
363649 
363780 
363910 
364043 
364181 
364317 
364462 
364599 
364738 
364872 
365007 
365136 
365268 
365399 
365530 
365661 
365794 
365929 
366073 
366226 
366376 
366518 
366652 
366783 
366914 
367049 
367180 
367319 
367461 
367570 
367755 
367903 
368042 
368175 
368310 
368444 
368575 
368713 
368844 
368981 
369121 
369261 
369408 
369551 
369690 
369816 
369944 
370069 
370186 
370338 
370484 
370626 
370781 
370927 
371073 
371211 
371344 
371474 
371604 
371744 
371882 
371986 
372165 
372309 
372460 
372617 
372758 
372894 
373020 
373147 
373278 
373414 
373555 
373704 
373865 
374015 
374122 
374225 
374420 
374526 
374689 
374822 
374957 
375087 
375227 
375365 
375508 
375645 
375782 
375912 
376039 
376164 
376296 
376423 
376556 
376699 
376851 
376997 
377147 
377282 
377370 
377543 
377669 
377800 
377934 
378074 
378178 
378355 
378492 
378633 
378778 
378918 
379046 
379148 
379298 
379427 
379559 
379695 
379838 
379980 
380129 
380240 
380409 
380538 
380652 
380795 
380931 
381064 
381206 
381340 
381478 
381615 
381758 
381895 
382028 
382158 
382286 
382414 
382547 
382680 
382819 
382968 
383118 
383268 
383409 
383541 
383642 
383803 
383929 
384066 
384203 
384347 
384489 
384593 
384687 
384911 
385054 
385188 
385316 
385448 
385578 
385712 
385853 
385990 
386134 
386276 
386428 
386565 
386700 
386828 
386957 
387088 
387230 
387368 
387517 
387658 
387764 
387934 
388071 
388200 
388332 
388461 
388591 
388719 
388853 
388988 
389131 
389229 
389428 
389568 
389705 
389833 
389961 
390091 
390219 
390357 
390497 
390649 
390790 
390936 
391077 
391211 
391347 
391483 
391612 
391753 
391886 
392028 
392169 
392314 
392454 
392599 
392740 
392874 
393006 
393133 
393262 
393399 
393548 
393697 
393847 
393989 
394124 
394257 
394390 
394517 
394648 
394777 
394912 
395046 
395190 
395327 
395468 
395612 
395755 
395885 
396017 
396143 
396272 
396404 
396539 
396683 
396829 
396979 
397124 
397267 
397400 
397533 
397666 
397804 
397939 
398084 
398224 
398371 
398519 
398663 
398804 
398942 
399079 
399210 
399294 
399480 
399617 
399765 
399938 
400100 
400256 
400393 
400524 
400655 
400783 
400918 
401059 
401207 
401348 
401495 
401635 
401775 
401916 
402051 
402176 
402303 
402431 
402566 
402701 
402845 
402983 
403084 
403281 
403424 
403560 
403689 
403818 
403953 
404097 
404239 
404390 
404532 
404679 
404822 
404965 
405100 
405233 
405368 
405500 
405640 
405778 
405920 
406071 
406230 
406376 
406520 
406651 
406785 
406918 
407048 
407184 
407323 
407429 
407528 
407774 
407919 
408055 
408191 
408327 
408457 
408594 
408726 
408864 
409005 
409146 
409294 
409441 
409584 
409713 
409842 
409966 
410093 
410229 
410370 
410508 
410655 
410792 
410937 
411076 
411210 
411339 
411468 
411604 
411741 
411883 
411988 
412082 
412312 
412470 
412615 
412754 
412883 
413012 
413144 
413279 
413418 
413564 
413721 
413873 
414020 
414158 
414292 
414428 
414564 
414700 
414841 
414977 
415120 
415267 
415413 
415560 
415702 
415840 
415929 
416105 
416237 
416369 
416508 
416658 
416807 
416958 
417052 
417240 
417371 
417501 
417626 
417760 
417895 
418033 
418128 
418306 
418441 
418581 
418726 
418864 
418992 
419089 
419245 
419374 
419510 
419647 
419787 
419930 
420082 
420226 
420367 
420501 
420631 
420763 
420904 
421042 
421189 
421330 
421476 
421617 
421761 
421898 
422037 
422174 
422306 
422437 
422570 
422708 
422855 
423011 
423162 
423306 
423389 
423573 
423685 
423829 
423953 
424087 
424224 
424372 
424513 
424660 
424794 
424930 
425066 
425201 
425332 
425467 
425597 
425732 
425876 
426018 
426168 
426316 
426465 
426596 
426730 
426860 
426994 
427092 
427286 
427434 
427589 
427732 
427880 
428024 
428156 
428289 
428420 
428562 
428699 
428845 
428986 
429095 
429283 
429438 
429582 
429719 
429846 
429973 
430110 
430243 
430390 
430501 
430687 
430824 
430968 
431100 
431231 
431361 
431490 
431621 
431758 
431890 
432033 
432177 
432318 
432461 
432603 
432742 
432872 
433003 
433129 
433262 
433405 
433558 
433706 
433858 
433997 
434138 
434273 
434403 
434537 
434671 
434814 
434949 
435093 
435236 
435381 
435534 
435684 
435817 
435949 
436077 
436208 
436347 
436481 
436627 
436768 
436927 
437072 
437217 
437350 
437482 
437613 
437721 
437886 
438027 
438166 
438310 
438457 
438594 
438736 
438869 
439002 
439129 
439256 
439352 
439512 
439653 
439814 
439989 
440133 
440264 
440394 
440525 
440652 
440781 
440912 
441052 
441189 
441335 
441479 
441620 
441761 
441897 
442029 
442162 
442291 
442393 
442557 
442698 
442838 
442990 
443143 
443293 
443429 
443559 
443688 
443820 
443963 
444108 
444257 
444403 
444547 
444691 
444840 
444974 
445110 
445240 
445372 
445505 
445642 
445779 
445920 
446067 
446217 
446357 
446492 
446619 
446747 
446874 
447000 
447132 
447269 
447384 
447561 
447703 
447839 
447973 
448107 
448244 
448374 
448509 
448637 
448772 
448909 
449056 
449196 
449343 
449485 
449622 
449753 
449887 
450019 
450156 
450299 
450447 
450597 
450748 
450850 
451035 
451173 
451301 
451433 
451569 
451712 
451851 
451995 
452133 
452276 
452427 
452578 
452711 
452838 
452961 
453086 
453222 
453353 
453453 
453633 
453779 
453921 
454064 
454195 
454325 
454456 
454587 
454720 
454856 
454994 
455139 
455284 
455434 
455534 
455713 
455846 
455980 
456110 
456245 
456375 
456517 
456670 
456880 
457036 
457181 
457312 
457443 
457576 
457706 
457848 
457991 
458107 
458210 
458469 
458615 
458755 
458895 
459027 
459157 
459292 
459425 
459565 
459714 
459855 
460004 
460151 
460256 
460428 
460558 
460685 
460821 
460966 
461114 
461269 
461428 
461576 
461716 
461856 
461987 
462122 
