120 
325 
550 
779 
994 
1225 
1439 
1655 
1866 
2094 
2320 
2534 
2752 
2971 
3174 
3392 
3616 
3841 
4060 
4287 
4488 
4709 
4919 
5152 
5377 
5595 
5806 
6032 
6248 
6462 
6689 
6899 
7129 
7357 
7576 
7789 
8006 
8240 
8465 
8702 
8929 
9154 
9373 
9597 
9824 
10052 
10285 
10502 
10717 
10942 
11166 
11390 
11622 
11838 
12058 
12272 
12481 
12698 
12932 
13145 
13363 
13591 
13820 
14033 
14251 
14481 
14712 
14945 
15158 
15387 
15600 
15835 
16071 
16303 
16514 
16748 
16967 
17173 
17402 
17634 
17855 
18089 
18301 
18524 
18741 
18972 
19201 
19431 
19658 
19878 
20113 
20332 
20568 
20800 
21018 
21253 
21474 
21686 
21905 
22146 
22375 
22600 
22827 
23047 
23262 
23495 
23731 
23962 
24187 
24405 
24627 
24843 
25074 
25297 
25536 
25761 
25978 
26195 
26421 
26653 
26887 
27098 
27320 
27533 
27748 
27961 
28196 
28423 
28645 
28860 
29095 
29317 
29524 
29766 
30000 
30227 
30444 
30658 
30882 
31106 
31340 
31558 
31786 
32011 
32233 
32452 
32677 
32913 
33139 
33361 
33584 
33810 
34023 
34255 
34479 
34715 
34940 
35157 
35367 
35583 
35810 
36040 
36267 
36484 
36705 
36914 
37135 
37361 
37587 
37817 
38038 
38250 
38463 
38694 
38928 
39157 
39371 
39599 
39821 
40026 
40241 
40466 
40679 
40906 
41139 
41355 
41568 
41772 
42002 
42230 
42459 
42670 
42885 
43104 
43311 
43546 
43769 
43981 
44203 
44416 
44623 
44841 
45054 
45280 
45507 
45719 
45931 
46142 
46354 
46580 
46801 
47020 
47233 
47448 
47656 
47856 
48075 
48286 
48514 
48717 
48921 
49111 
49308 
49529 
49751 
49968 
50177 
50393 
50595 
50798 
51014 
51234 
51455 
51661 
51887 
52089 
52300 
52514 
52728 
52959 
53175 
53381 
53594 
53788 
54003 
54226 
54449 
54667 
54870 
55082 
55286 
55490 
55717 
55938 
56148 
56374 
56592 
56803 
57018 
57232 
57468 
57690 
57907 
58118 
58333 
58548 
58766 
58995 
59226 
59453 
59678 
59897 
60112 
60349 
60578 
60807 
61036 
61245 
61465 
61692 
61912 
62017 
62138 
62370 
62586 
62806 
63021 
63233 
63456 
63689 
63914 
64130 
64347 
64559 
64770 
64995 
65223 
65444 
65658 
65884 
66096 
66315 
66531 
66758 
66979 
67208 
67423 
67621 
67838 
68065 
68281 
68513 
68720 
68941 
69156 
69358 
69584 
69811 
70037 
70257 
70476 
70685 
70891 
71124 
71358 
71577 
71791 
72018 
72227 
72441 
72680 
72897 
73127 
73338 
73571 
73784 
73992 
74209 
74440 
74658 
74881 
75086 
75309 
75520 
75737 
75965 
76201 
76421 
76640 
76867 
77066 
77293 
77533 
77758 
77977 
78182 
78392 
78599 
78830 
79060 
79283 
79498 
79726 
79934 
80154 
80378 
80613 
80846 
81071 
81284 
81503 
81718 
81951 
82172 
82392 
82623 
82830 
83047 
83254 
83492 
83719 
83929 
84159 
84378 
84579 
84803 
85029 
85249 
85469 
85700 
85906 
86115 
86334 
86565 
86782 
87009 
87217 
87437 
87655 
87861 
88095 
88323 
88532 
88761 
88967 
89184 
89390 
89622 
89852 
90065 
90276 
90507 
90722 
90936 
91166 
91383 
91615 
91842 
92050 
92272 
92474 
92705 
92945 
93167 
93381 
93609 
93829 
94051 
94272 
94511 
94721 
94952 
95169 
95388 
95592 
95819 
96050 
96268 
96488 
96699 
96924 
97141 
97375 
97600 
97821 
98045 
98263 
98485 
98700 
98926 
99156 
99372 
99593 
99805 
100016 
100222 
100452 
100673 
100898 
101117 
101333 
101539 
101754 
101996 
102224 
102446 
102673 
102889 
103105 
103328 
103549 
103785 
104008 
104234 
104445 
104659 
104877 
105109 
105335 
105554 
105775 
105989 
106197 
106425 
106663 
106901 
107112 
107328 
107558 
107774 
107994 
108240 
108468 
108687 
108910 
109131 
109347 
109572 
109802 
110031 
110245 
110473 
110688 
110901 
111120 
111361 
111577 
111802 
112017 
112234 
112443 
112688 
112918 
113140 
113372 
113596 
113812 
114029 
114264 
114494 
114715 
114937 
115147 
115359 
115574 
115803 
116033 
116252 
116477 
116695 
116912 
117131 
117353 
117578 
117808 
118029 
118246 
118462 
118684 
118902 
119148 
119368 
119588 
119802 
120023 
120247 
120456 
120695 
120916 
121137 
121354 
121557 
121776 
122013 
122246 
122461 
122676 
122887 
123096 
123317 
123548 
123774 
123988 
124198 
124426 
124638 
124855 
125082 
125311 
125531 
125755 
125966 
126161 
126396 
126615 
126834 
127055 
127270 
127480 
127692 
127908 
128131 
128356 
128577 
128800 
129012 
129212 
129443 
129673 
129906 
130117 
130333 
130559 
130780 
130995 
131222 
131450 
131668 
131888 
132115 
132314 
132497 
132767 
132998 
133199 
133406 
133611 
133826 
134036 
134260 
134477 
134686 
134893 
135117 
135319 
135523 
135762 
135991 
136211 
136433 
136659 
136876 
137095 
137334 
137569 
137785 
138002 
138217 
138439 
138664 
138890 
139127 
139354 
139589 
139808 
140018 
140237 
140473 
140699 
140914 
141130 
141333 
141540 
141772 
141993 
142199 
142422 
142625 
142835 
143044 
143257 
143477 
143697 
143908 
144131 
144335 
144546 
144742 
144965 
145199 
145398 
145614 
145826 
146047 
146240 
146458 
146690 
146907 
147125 
147333 
147544 
147749 
147969 
148193 
148422 
148634 
148846 
149057 
149256 
149477 
149709 
149919 
150141 
150356 
150565 
150759 
150981 
151207 
151427 
151650 
151865 
152061 
152277 
152497 
152721 
152935 
153155 
153369 
153582 
153783 
153990 
154222 
154443 
154658 
154872 
155070 
155274 
155491 
155700 
155921 
156143 
156346 
156552 
156754 
156967 
157185 
157393 
157619 
157826 
158041 
158240 
158445 
158672 
158888 
159106 
159326 
159535 
159747 
159943 
160160 
160388 
160613 
160824 
161057 
161262 
161487 
161700 
161939 
162154 
162383 
162611 
162815 
163028 
163258 
163494 
163728 
163944 
164166 
164376 
164588 
164824 
165052 
165270 
165484 
165704 
165912 
166133 
166352 
166586 
166818 
167037 
167195 
167454 
167671 
167904 
168133 
168359 
168575 
168799 
169013 
169225 
169453 
169686 
169918 
170139 
170358 
170582 
170786 
171022 
171251 
171477 
171699 
171921 
172134 
172342 
172577 
172801 
173030 
173242 
173468 
173683 
173898 
174122 
174348 
174579 
174794 
175014 
175240 
175458 
175676 
175912 
176129 
176361 
176580 
176777 
177003 
177233 
177457 
177683 
177906 
178120 
178331 
178558 
178790 
179003 
179222 
179444 
179659 
179874 
180082 
180314 
180540 
180763 
180978 
181203 
181420 
181637 
181863 
182085 
182313 
182524 
182754 
182959 
183185 
183413 
183631 
183852 
184074 
184287 
184495 
184702 
184934 
185170 
185375 
185594 
185811 
186025 
186248 
186477 
186717 
186935 
187173 
187394 
187611 
187827 
188057 
188294 
188517 
188735 
188948 
189160 
189379 
189604 
189839 
190043 
190259 
190471 
190692 
190909 
191125 
191358 
191590 
191802 
192015 
192241 
192474 
192711 
192933 
193161 
193370 
193594 
193802 
194016 
194247 
194468 
194687 
194910 
195110 
195331 
195563 
195797 
196016 
196222 
196449 
196663 
196857 
197093 
197322 
197545 
197754 
197967 
198191 
198399 
198624 
198850 
199077 
199292 
199498 
199713 
199912 
200150 
200369 
200603 
200821 
201043 
201254 
201467 
201700 
201928 
202163 
202372 
202585 
202808 
203021 
203250 
203481 
203698 
203909 
204127 
204345 
204552 
204772 
204992 
205230 
205448 
205654 
205879 
206097 
206328 
206568 
206802 
207013 
207240 
207470 
207692 
207920 
208153 
208387 
208605 
208839 
209060 
209274 
209497 
209729 
209950 
210184 
210402 
210616 
210826 
211059 
211288 
211504 
211724 
211932 
212156 
212368 
212583 
212799 
213027 
213248 
213453 
213663 
213873 
214098 
214325 
214542 
214772 
214974 
215187 
215396 
215622 
215841 
216069 
216272 
216484 
216704 
216898 
217118 
217356 
217578 
217781 
218005 
218208 
218415 
218642 
218864 
219098 
219305 
219523 
219747 
219947 
220181 
220408 
220639 
220863 
221066 
221288 
221486 
221726 
221952 
222170 
222369 
222595 
222795 
223015 
223234 
223444 
223659 
223874 
224100 
224307 
224513 
224735 
224951 
225191 
225391 
225617 
225828 
226028 
226254 
226472 
226692 
226901 
227105 
227307 
227521 
227715 
227948 
228173 
228387 
228584 
228808 
229018 
229225 
229450 
229659 
229883 
230094 
230308 
230508 
230706 
230923 
231142 
231346 
231567 
231770 
231969 
232178 
232409 
232634 
232857 
233059 
233280 
233488 
233702 
233919 
234131 
234352 
234588 
234807 
235017 
235226 
235431 
235655 
235874 
236098 
236312 
236519 
236730 
236939 
237165 
237387 
237606 
237826 
238046 
238266 
238480 
238707 
238930 
239153 
239389 
239607 
239829 
240035 
240280 
240512 
240722 
240952 
241171 
241375 
241601 
241830 
242057 
242275 
242495 
242695 
242915 
243114 
243358 
243583 
243798 
244015 
244221 
244439 
244657 
244874 
245112 
245331 
245555 
245758 
245972 
246196 
246408 
246638 
246843 
247069 
247266 
247486 
247689 
247920 
248135 
248346 
248549 
248759 
248966 
249168 
249388 
249606 
249830 
250042 
250253 
250463 
250666 
250895 
251126 
251350 
251563 
251782 
251998 
252209 
252433 
252662 
252884 
253102 
253321 
253536 
253744 
253974 
254205 
254445 
254652 
254870 
255082 
255292 
255515 
255738 
255956 
256172 
256386 
256593 
256793 
257014 
257233 
257458 
257673 
257894 
258112 
258314 
258544 
258760 
258988 
259205 
259416 
259639 
259850 
260054 
260295 
260528 
260745 
260963 
261177 
261383 
261619 
261854 
262085 
262304 
262527 
262749 
262963 
263190 
263423 
263649 
263871 
264091 
264304 
264515 
264747 
264976 
265203 
265423 
265644 
265861 
266073 
266304 
266536 
266760 
266985 
267207 
267423 
267630 
267858 
268085 
268309 
268530 
268745 
268948 
269172 
269402 
269631 
269851 
270078 
270295 
270499 
270726 
270956 
271185 
271414 
271636 
271853 
272071 
272288 
272520 
272751 
272971 
273193 
273402 
273632 
273854 
274085 
274321 
274538 
274764 
274988 
275208 
275424 
275664 
275896 
276108 
276334 
276550 
276764 
276993 
277211 
277447 
277651 
277883 
278098 
278306 
278532 
278752 
278983 
279204 
279431 
279639 
279859 
280094 
280326 
280549 
280779 
281004 
281228 
281442 
281672 
281912 
282145 
282375 
282597 
282817 
283036 
283260 
283495 
283718 
283938 
284152 
284371 
284592 
284825 
285045 
285274 
285500 
285727 
285947 
286172 
286409 
286646 
286869 
287094 
287315 
287532 
287768 
288001 
288224 
288451 
288674 
288888 
289108 
289339 
289568 
289787 
290016 
290240 
290444 
290674 
290908 
291142 
291366 
291591 
291811 
292027 
292254 
292488 
292707 
292944 
293160 
293377 
293588 
293818 
294052 
294287 
294507 
294723 
294948 
295162 
295390 
295614 
295844 
296060 
296285 
296505 
296707 
296937 
297168 
297388 
297608 
297835 
298041 
298263 
298493 
298732 
298959 
299181 
299410 
299653 
299878 
300105 
300350 
300570 
300807 
301028 
301244 
301450 
301683 
301926 
302145 
302371 
302591 
302809 
303031 
303265 
303502 
303727 
303959 
304181 
304389 
304634 
304863 
305113 
305345 
305574 
305800 
306260 
306498 
306728 
306962 
307191 
307417 
307643 
307879 
308120 
308345 
308571 
308790 
308999 
309234 
309469 
309700 
309919 
310145 
310364 
310579 
310808 
311044 
311266 
311490 
311710 
311937 
312150 
312383 
312606 
312841 
313059 
313284 
313505 
313724 
313958 
314193 
314419 
314650 
314871 
315086 
315301 
315536 
315772 
316000 
316220 
316446 
316662 
316899 
317128 
317357 
317576 
317796 
318010 
318218 
318437 
318663 
318897 
319114 
319319 
319537 
319744 
319957 
320195 
320417 
320629 
320845 
321060 
321271 
321486 
321712 
321939 
322164 
322392 
322611 
322811 
323049 
323275 
323513 
323730 
323953 
324166 
324381 
324602 
324829 
325056 
325266 
325486 
325699 
325905 
326136 
326360 
326575 
326786 
326996 
327201 
327408 
327621 
327844 
328064 
328273 
328496 
328708 
328920 
329118 
329339 
329559 
329777 
329992 
330194 
330394 
330593 
330812 
331033 
331259 
331468 
331672 
331897 
332103 
332316 
332538 
332765 
332982 
333198 
333406 
333609 
333840 
334059 
334282 
334492 
334708 
334915 
335131 
335351 
335562 
335782 
335995 
336212 
336430 
336627 
336839 
337061 
337282 
337494 
337705 
337906 
338112 
338330 
338538 
338755 
338968 
339179 
339387 
339596 
339798 
340027 
340238 
340462 
340685 
340902 
341103 
341315 
341543 
341772 
342007 
342223 
342432 
342650 
342859 
343078 
343301 
343523 
343747 
343951 
344161 
344367 
344590 
344822 
345050 
345263 
345479 
345685 
345893 
346120 
346343 
346562 
346776 
346994 
347206 
347421 
347630 
347853 
348077 
348288 
348492 
348694 
348895 
349098 
349310 
349517 
349720 
349922 
350122 
350319 
350511 
350719 
350925 
351137 
351338 
351546 
351754 
351947 
352160 
352374 
352598 
352815 
353021 
353230 
353436 
353632 
353839 
354050 
354259 
354457 
354658 
354856 
355046 
355241 
355458 
355658 
355862 
356058 
356264 
356455 
356649 
356860 
357068 
357272 
357480 
357675 
357874 
358070 
358259 
358480 
358686 
358896 
359087 
359299 
359485 
359680 
359899 
360110 
360321 
360508 
360714 
360911 
361110 
361304 
361508 
361725 
361923 
362125 
362326 
362519 
362725 
362924 
363127 
363340 
363550 
363754 
363953 
364167 
364364 
364566 
364774 
364988 
365190 
365399 
365614 
365815 
366018 
366226 
366445 
366664 
366871 
367080 
367275 
367481 
367708 
367938 
368154 
368369 
368583 
368779 
368982 
369199 
369426 
369648 
369863 
370073 
370278 
370479 
370687 
370901 
371108 
371309 
371515 
371726 
371916 
372113 
372322 
372543 
372747 
372956 
373174 
373366 
373565 
373776 
374007 
374217 
374423 
374638 
374850 
375051 
375274 
375490 
375717 
375930 
376152 
376365 
376574 
376782 
377019 
377235 
377449 
377669 
377877 
378087 
378292 
378519 
378743 
378954 
379185 
379399 
379600 
379818 
380031 
380246 
380473 
380684 
380894 
381098 
381303 
381520 
381747 
381963 
382169 
382367 
382588 
382798 
383022 
383248 
383476 
383697 
383917 
384130 
384332 
384566 
384785 
385025 
385243 
385460 
385681 
385884 
386123 
386353 
386579 
386786 
387014 
387213 
387432 
387657 
387877 
388111 
388318 
388534 
388739 
388956 
389185 
389411 
389634 
389847 
390054 
390266 
390483 
390706 
390923 
391139 
391364 
391572 
391781 
391998 
392231 
392460 
392687 
392903 
393117 
393338 
393530 
393752 
393986 
394207 
394425 
394630 
394831 
395044 
395250 
395466 
395682 
395890 
396100 
396303 
396511 
396718 
396933 
397151 
397366 
397584 
397798 
398007 
398217 
398452 
398668 
398888 
399102 
399312 
399517 
399718 
399943 
400165 
400383 
400588 
400804 
401012 
401218 
401436 
401661 
401883 
402094 
402305 
402517 
402717 
402935 
403144 
403375 
403584 
403787 
403993 
404204 
404411 
404634 
404853 
405076 
405288 
405500 
405715 
405915 
406136 
406360 
406584 
406793 
407013 
407227 
407429 
407652 
407872 
408089 
408293 
408515 
408714 
408927 
409138 
409365 
409596 
409795 
410020 
410231 
410435 
410647 
410882 
411104 
411316 
411535 
411736 
411942 
412170 
412396 
412623 
412839 
413056 
413267 
413475 
413686 
413911 
414136 
414341 
414557 
414765 
414982 
415194 
415404 
415624 
415841 
416057 
416259 
416473 
416667 
416877 
417094 
417310 
417517 
417717 
417919 
418120 
418337 
418542 
418753 
418953 
419159 
419358 
419563 
419749 
419960 
420172 
420386 
420589 
420791 
421003 
421189 
421401 
421630 
421843 
422034 
422241 
422447 
422647 
422849 
423064 
423279 
423481 
423694 
423901 
424104 
424316 
424528 
424763 
424984 
425196 
425397 
425615 
425821 
426047 
426275 
426487 
426700 
426924 
427136 
427330 
427548 
427782 
428008 
428210 
428421 
428635 
428835 
429068 
429282 
429505 
429719 
429936 
430147 
430363 
430569 
430800 
431017 
431231 
431446 
431654 
431875 
432094 
432316 
432549 
432762 
432984 
433192 
433402 
433615 
433854 
434069 
434288 
434515 
434723 
434933 
435151 
435380 
435599 
435821 
436039 
436236 
436459 
436673 
436893 
437100 
437323 
437539 
437751 
437959 
438168 
438395 
438612 
438831 
439060 
439260 
439484 
439694 
439919 
440129 
440348 
440555 
440767 
440976 
441180 
441395 
441615 
441831 
442040 
442239 
442444 
442643 
442848 
443078 
443281 
443480 
443688 
443892 
444090 
444281 
444487 
444693 
444893 
445086 
445281 
445480 
445659 
445848 
446056 
446255 
446468 
446653 
446853 
447046 
447243 
447445 
447648 
447852 
448047 
448251 
448441 
448642 
448814 
449022 
449222 
449422 
449622 
449820 
450023 
450201 
450398 
450599 
450801 
450997 
451188 
451379 
451569 
451761 
451942 
452140 
452340 
452560 
452755 
452946 
453141 
453341 
453537 
453748 
453961 
454182 
454384 
454577 
454785 
454979 
455202 
455417 
455623 
455828 
456035 
456231 
456450 
456640 
456868 
457081 
457272 
457488 
457678 
457873 
458068 
458280 
458490 
458693 
458903 
459108 
459323 
459520 
459714 
459942 
460161 
460371 
460572 
460775 
460977 
461179 
461386 
461595 
461804 
462005 
