3.89453125 2.59368 1.064818 -1.528862
4.62890625 2.681766 1.573161 -1.108605
5.35546875 2.54475 1.464981 -1.079769
6.11328125 2.502116 1.56 -0.942116
6.85546875 2.843923 1.699967 -1.143956
7.57421875 3.154386 1.749011 -1.405375
8.29296875 3.046784 1.748304 -1.29848
9.01171875 3.0325170000000004 1.697899 -1.334618
9.73046875 3.2215350000000003 1.919871 -1.301664
10.45703125 2.8518670000000004 1.637949 -1.213918
11.1875 2.9499839999999997 1.821087 -1.128897
11.9453125 2.998698 1.76873 -1.229968
12.6953125 3.091824 1.816389 -1.275435
13.44921875 2.766982 1.689101 -1.077881
14.2109375 2.6754170000000004 1.574583 -1.100834
14.96875 3.197874 2.034669 -1.163205
15.73046875 2.884957 1.469968 -1.414989
16.46484375 2.885999 1.36572 -1.520279
17.20703125 3.093217 1.33346 -1.759757
17.94140625 2.9118950000000003 1.193713 -1.718182
18.703125 2.720003 1.228064 -1.491939
19.4609375 2.930327 1.194343 -1.735984
20.17578125 2.853523 1.222361 -1.631162
20.90625 2.9444049999999997 1.400993 -1.543412
21.6015625 2.670977 1.210509 -1.460468
22.29296875 3.03033 1.33337 -1.69696
22.984375 2.903313 1.26409 -1.639223
23.6796875 2.982709 1.248272 -1.734437
24.3984375 2.949858 1.238174 -1.711684
25.1484375 3.023327 1.274006 -1.749321
25.91796875 3.007918 1.299983 -1.707935
26.6640625 3.137324 1.859933 -1.277391
27.42578125 3.102221 1.898512 -1.203709
28.21484375 3.166709 1.975701 -1.191008
28.99609375 2.982967 1.769134 -1.213833
29.7734375 2.8531 1.67 -1.1831
30.53125 3.153654 1.895472 -1.258182
31.28125 2.920166 1.331194 -1.588972
32.03515625 2.9703749999999998 1.395483 -1.574892
32.796875 3.014887 1.35 -1.664887
33.5546875 2.93424 1.283252 -1.650988
34.33203125 2.578412 1.27854 -1.299872
35.12109375 1.976023 0.867034 -1.108989
35.90234375 2.8613999999999997 1.296408 -1.564992
36.69140625 3.019698 1.822775 -1.196923
37.5 2.912801 1.74 -1.172801
38.28125 3.311679 2.148359 -1.16332
39.046875 3.3178479999999997 2.076752 -1.241096
39.8125 3.036432 1.823333 -1.213099
40.58984375 3.164253 1.955942 -1.208311
41.32421875 2.96364 1.949405 -1.014235
42.09375 3.094443 1.974519 -1.119924
42.875 2.946555 1.47 -1.476555
43.63671875 2.911552 1.366132 -1.54542
44.40234375 2.816531 1.318886 -1.497645
45.1953125 2.624171 1.228882 -1.395289
46.03125 2.948842 1.278547 -1.670295
46.85546875 2.728411 1.203997 -1.524414
47.6796875 2.668261 1.175 -1.493261
48.4765625 2.432839 1.06454 -1.368299
49.25 1.962921 0.895 -1.067921
50.0234375 1.9330019999999999 0.788311 -1.144691
50.77734375 1.911681 0.792603 -1.119078
51.55859375 1.953824 0.794249 -1.159575
52.3671875 1.8266050000000003 0.717528 -1.109077
53.15234375 2.3392720000000002 1.071791 -1.267481
53.92578125 1.8232629999999999 0.793657 -1.029606
54.69921875 1.63127 0.641563 -0.989707
55.5 2.612036 1.075 -1.537036
56.30859375 2.730817 1.175859 -1.554958
57.1171875 2.688872 1.289213 -1.399659
57.87890625 2.626225 1.252616 -1.373609
58.64453125 2.669248 1.229953 -1.439295
59.43359375 2.6447279999999997 1.224843 -1.419885
60.25 2.445317 1.13 -1.315317
61.10546875 2.7540760000000004 1.259872 -1.494204
61.94921875 2.627392 1.248684 -1.378708
62.765625 2.388396 1.090955 -1.297441
63.59765625 2.3689210000000003 1.148921 -1.22
64.44921875 2.62473 1.229576 -1.395154
65.26171875 2.682153 1.415457 -1.266696
66.0546875 2.8337269999999997 1.417098 -1.416629
66.83203125 2.669947 1.375246 -1.294701
67.63671875 2.406332 1.151853 -1.254479
68.47265625 2.331074 1.093078 -1.237996
69.30078125 2.484568 0.98732 -1.497248
70.125 2.3048729999999997 0.865 -1.439873
70.95703125 2.162509 0.90884 -1.253669
71.74609375 2.418926 0.89416 -1.524766
72.47265625 2.425446 0.98245 -1.442996
73.20703125 2.7317470000000004 1.282026 -1.449721
73.953125 2.748266 1.294391 -1.453875
74.68359375 2.936784 1.277885 -1.658899
75.4453125 3.0263540000000004 1.346043 -1.680311
76.24609375 2.8912 1.311306 -1.579894
77.05859375 2.6390260000000003 1.215 -1.424026
77.875 2.723976 1.195 -1.528976
78.69921875 2.85023 1.144194 -1.706036
79.5390625 2.697976 1.198476 -1.4995
80.34375 2.797346 1.275 -1.522346
81.14453125 2.7785450000000003 1.276302 -1.502243
81.93359375 2.731108 1.204953 -1.526155
82.734375 2.707885 1.144084 -1.563801
83.5625 2.718521 1.175814 -1.542707
84.3984375 2.643627 1.169189 -1.474438
85.19921875 2.8171 1.302515 -1.514585
85.98046875 2.714256 1.189974 -1.524282
86.73046875 2.762505 1.201088 -1.561417
87.4921875 2.9434240000000003 1.219813 -1.723611
88.3046875 2.80685 1.248607 -1.558243
89.11328125 2.6792920000000002 1.159542 -1.51975
89.9375 2.7428369999999997 1.1192 -1.623637
90.7578125 2.7390600000000003 1.125 -1.61406
91.61328125 2.764111 1.191569 -1.572542
92.47265625 2.792701 1.185 -1.607701
93.2890625 2.577188 1.129957 -1.447231
94.0859375 2.746054 1.239713 -1.506341
94.87890625 2.781256 1.232646 -1.54861
95.66796875 2.660624 1.084053 -1.576571
96.4453125 3.099042 0.671992 -2.42705
97.25 3.064579 -0.025 -3.089579
98.0859375 3.300483 0.339653 -2.96083
98.94921875 2.902114 0.805626 -2.096488
99.85546875 2.368967 1.634951 -0.734016
100.7265625 2.8141239999999996 2.199124 -0.615
101.6015625 2.8080920000000003 2.023092 -0.785
102.4765625 3.019467 1.864467 -1.155
103.29296875 2.810764 1.569513 -1.241251
104.10546875 2.899088 1.114967 -1.784121
104.90234375 2.9228750000000003 1.170168 -1.752707
105.71484375 2.788852 1.212959 -1.575893
106.546875 2.958032 1.313229 -1.644803
107.41015625 2.67 1.255 -1.415
108.2734375 2.5969949999999997 1.277899 -1.319096
109.078125 2.884233 1.399297 -1.484936
109.87109375 2.644515 1.203663 -1.440852
110.66015625 2.887178 1.238205 -1.648973
111.45703125 2.731248 1.27947 -1.451778
112.23046875 2.8072179999999998 1.294969 -1.512249
113.01171875 2.5286799999999996 1.207075 -1.321605
113.796875 2.30098 1.043681 -1.257299
114.5625 1.9270239999999998 0.828947 -1.098077
115.3671875 2.306904 1.494006 -0.812898
116.1953125 2.570941 1.756959 -0.813982
117.05078125 2.373094 1.583506 -0.789588
117.8828125 2.271192 1.066026 -1.205166
118.73828125 1.874663 0.867647 -1.007016
119.625 2.003519 0.915 -1.088519
120.48046875 2.6624030000000003 1.14957 -1.512833
121.3046875 2.669115 1.16507 -1.504045
122.0703125 2.698534 1.124105 -1.574429
122.83203125 2.7490300000000003 1.059183 -1.689847
123.57421875 2.7572609999999997 1.132363 -1.624898
124.32421875 2.805064 1.148104 -1.65696
125.0859375 2.797472 1.192721 -1.604751
125.82421875 2.79795 1.269269 -1.528681
126.57421875 2.955917 1.493161 -1.462756
127.328125 2.7571969999999997 1.577197 -1.18
128.09375 2.9479759999999997 1.647363 -1.300613
128.8671875 2.816967 1.573969 -1.242998
129.62109375 2.843935 1.438946 -1.404989
130.4140625 3.091281 1.316657 -1.774624
131.31640625 3.052378 1.233967 -1.818411
132.22265625 3.099574 1.634574 -1.465
133.1484375 3.004357 1.683993 -1.320364
134.0234375 2.634395 1.621234 -1.013161
134.85546875 2.4861519999999997 1.589897 -0.896255
135.671875 2.597884 1.694592 -0.903292
136.4921875 2.695946 1.720972 -0.974974
137.30078125 3.109542 1.988422 -1.12112
138.08984375 3.122322 1.900763 -1.221559
138.87890625 3.2514079999999996 2.101809 -1.149599
139.64453125 3.227181 2.149947 -1.077234
140.42578125 3.240956 2.200047 -1.040909
141.21875 3.117159 2.062845 -1.054314
142.0234375 3.045409 2.037305 -1.008104
142.84375 3.130457 2.018088 -1.112369
143.6640625 3.3396489999999996 2.124268 -1.215381
144.4609375 3.351705 2.134703 -1.217002
145.265625 3.163759 2.103047 -1.060712
146.1015625 2.934146 1.816623 -1.117523
146.921875 3.033289 2.034823 -0.998466
147.71484375 3.044826 1.992465 -1.052361
148.49609375 2.94818 1.598225 -1.349955
149.2578125 3.1037150000000002 1.944145 -1.15957
150.0234375 2.988254 1.494012 -1.494242
150.765625 3.107913 1.548619 -1.559294
151.51953125 3.190251 1.549931 -1.64032
152.28125 3.159441 1.485956 -1.673485
153.0390625 3.127178 1.519905 -1.607273
153.828125 3.3293850000000003 2.089414 -1.239971
154.64453125 3.3945040000000004 2.099962 -1.294542
155.453125 3.3464840000000002 2.24453 -1.101954
156.21484375 3.502712 2.209386 -1.293326
156.96875 3.4112099999999996 2.17175 -1.23946
157.703125 3.308515 2.107656 -1.200859
158.4375 3.282683 1.994679 -1.288004
159.1640625 3.3941440000000003 2.149144 -1.245
159.91015625 3.224887 2.108673 -1.116214
160.66796875 3.0133919999999996 1.360326 -1.653066
161.43359375 3.142035 1.983553 -1.158482
162.19921875 3.2248229999999998 2.004549 -1.220274
162.94921875 3.0163729999999997 1.891333 -1.12504
163.734375 2.820933 1.714263 -1.10667
164.55078125 2.519596 1.615 -0.904596
165.3359375 2.805182 1.37946 -1.425722
166.08984375 2.954491 1.35057 -1.603921
166.796875 3.025515 1.416145 -1.60937
167.48828125 2.8529850000000003 1.289741 -1.563244
168.16015625 2.924757 1.32571 -1.599047
168.82421875 2.763763 1.210224 -1.553539
169.48828125 2.845625 1.320454 -1.525171
170.17578125 2.998563 1.308134 -1.690429
170.84765625 3.0942239999999996 1.249224 -1.845
171.53515625 3.0666 1.29303 -1.77357
172.21875 2.826076 1.216261 -1.609815
172.93359375 2.804881 1.094901 -1.70998
173.65234375 2.8413589999999997 1.196033 -1.645326
174.3515625 3.112343 1.841875 -1.270468
175.05859375 3.308615 1.958615 -1.35
175.7421875 3.192469 1.888016 -1.304453
176.41796875 2.74934 1.626429 -1.122911
177.11328125 3.047357 1.97 -1.077357
177.78125 2.787105 1.831236 -0.955869
178.46875 2.554272 1.691103 -0.863169
179.15625 2.244175 1.350212 -0.893963
179.8125 2.2192109999999996 1.067273 -1.151938
180.4765625 2.372218 1.52 -0.852218
181.125 2.444727 1.555 -0.889727
181.765625 1.99221 0.873355 -1.118855
182.421875 2.138781 1.009317 -1.129464
183.05859375 2.075409 0.894838 -1.180571
183.6875 1.978824 0.783824 -1.195
184.29296875 2.158178 0.863178 -1.295
184.90234375 2.7942970000000003 1.223797 -1.5705
185.5078125 2.9412979999999997 1.288208 -1.65309
186.15234375 2.888957 1.228957 -1.66
186.82421875 3.010593 1.354576 -1.656017
187.54296875 2.839465 1.246687 -1.592778
188.32421875 2.805902 1.67243 -1.133472
189.1015625 2.8140419999999997 1.149042 -1.665
189.86328125 2.647828 1.240469 -1.407359
190.578125 2.8556980000000003 1.137609 -1.718089
191.28125 2.7362159999999998 1.273563 -1.462653
191.96484375 2.780063 1.324784 -1.455279
192.6015625 2.903356 1.188278 -1.715078
193.24609375 2.980536 1.209136 -1.7714
193.8671875 2.943387 1.193659 -1.749728
194.49609375 3.080772 1.210822 -1.86995
195.14453125 3.040865 1.239937 -1.800928
195.8046875 2.893911 1.26186 -1.632051
196.48828125 2.985253 1.24947 -1.735783
197.21484375 2.8522030000000003 1.195597 -1.656606
197.9453125 2.792634 1.191813 -1.600821
198.66796875 2.659388 1.071145 -1.588243
199.39453125 2.3265469999999997 0.889878 -1.436669
200.15234375 2.375047 0.892256 -1.482791
200.8984375 2.281075 0.882145 -1.39893
201.61328125 2.7404479999999998 1.019611 -1.720837
202.33984375 2.791382 1.044468 -1.746914
203.03515625 2.7484 1.104374 -1.644026
203.73046875 2.548203 1.06496 -1.483243
204.4296875 1.997824 0.818217 -1.179607
205.12890625 2.789065 1.191703 -1.597362
205.85546875 2.4667700000000004 1.049932 -1.416838
206.61328125 2.261196 0.91703 -1.344166
207.34375 2.072232 0.846035 -1.226197
208.06640625 2.105522 0.854952 -1.25057
208.7890625 1.974675 0.78483 -1.189845
209.5234375 2.065022 0.800442 -1.26458
210.2578125 2.614166 1.085153 -1.529013
210.98046875 2.847277 1.24901 -1.598267
211.7109375 2.948422 1.22446 -1.723962
212.44921875 2.945277 1.234577 -1.7107
213.16796875 3.0565689999999996 1.838531 -1.218038
213.86328125 3.1040349999999997 1.79347 -1.310565
214.5625 2.9875499999999997 1.908261 -1.079289
215.24609375 2.842797 1.760168 -1.082629
215.91796875 3.143017 1.929432 -1.213585
216.57421875 3.234731 1.89 -1.344731
217.21875 2.912483 1.777156 -1.135327
217.859375 2.873831 1.741604 -1.132227
218.51171875 2.947378 1.713144 -1.234234
219.18359375 3.207233 1.918287 -1.288946
219.85546875 3.072767 1.654539 -1.418228
220.55859375 3.25376 1.904416 -1.349344
221.2421875 3.150938 1.806158 -1.34478
221.94921875 3.149389 1.820139 -1.32925
222.6640625 3.2751479999999997 1.864851 -1.410297
223.390625 3.1008940000000003 1.659727 -1.441167
224.09765625 3.106931 1.836396 -1.270535
224.81640625 3.0553470000000003 1.824777 -1.23057
225.5 3.1602680000000003 1.86 -1.300268
226.1953125 3.136873 1.902566 -1.234307
226.87890625 3.304264 2.016558 -1.287706
227.55078125 3.3481119999999995 2.095588 -1.252524
228.23046875 2.8742850000000004 1.636084 -1.238201
228.87890625 2.577897 0.991138 -1.586759
229.51953125 2.760848 1.240572 -1.520276
230.15234375 3.0587109999999997 1.265 -1.793711
230.8046875 3.0504360000000004 1.309039 -1.741397
231.49609375 3.1423129999999997 1.271072 -1.871241
232.19140625 3.005127 1.272471 -1.732656
232.9140625 3.027229 1.674668 -1.352561
233.63671875 2.87295 1.701738 -1.171212
234.3515625 3.1313259999999996 1.826326 -1.305
235.03515625 2.983063 1.820429 -1.162634
235.703125 3.1773379999999998 1.866319 -1.311019
236.39453125 3.031803 1.664817 -1.366986
237.07421875 2.817377 1.221286 -1.596091
237.7421875 3.161258 1.841393 -1.319865
238.421875 3.0284839999999997 1.838283 -1.190201
239.09765625 3.234196 1.905207 -1.328989
239.82421875 3.039099 1.735 -1.304099
240.5703125 3.019741 1.736551 -1.28319
241.265625 3.042608 1.877926 -1.164682
241.953125 2.681111 1.251122 -1.429989
242.64453125 2.6629690000000004 1.234895 -1.428074
243.3359375 2.132856 0.924637 -1.208219
244.01953125 2.0196009999999998 0.855791 -1.16381
244.69921875 2.496084 1.430206 -1.065878
245.38671875 2.269529 1.30474 -0.964789
246.08203125 2.122643 1.35612 -0.766523
246.76171875 2.20812 1.30329 -0.90483
247.44921875 2.423012 1.450086 -0.972926
248.1328125 2.227442 1.376026 -0.851416
248.859375 2.127162 1.310801 -0.816361
249.62109375 2.70765 1.648163 -1.059487
250.34375 3.0644739999999997 1.865 -1.199474
251.078125 3.106535 1.954732 -1.151803
251.8515625 2.986008 1.761008 -1.225
252.55859375 3.049881 1.83 -1.219881
253.26171875 3.094886 1.862392 -1.232494
253.95703125 2.980691 1.777624 -1.203067
254.6796875 2.9111469999999997 1.691999 -1.219148
255.4375 2.763095 1.219333 -1.543762
256.19140625 2.930948 1.184899 -1.746049
256.91015625 2.882924 1.186212 -1.696712
257.61328125 3.007455 1.186316 -1.821139
258.33203125 2.869169 1.109864 -1.759305
259.046875 2.864842 1.103219 -1.761623
259.7890625 2.805485 1.064956 -1.740529
260.5390625 2.552382 0.979956 -1.572426
261.265625 2.7433810000000003 1.01966 -1.723721
261.96875 2.775193 1.077915 -1.697278
262.6640625 2.679344 1.049674 -1.62967
263.40234375 2.493138 0.993584 -1.499554
264.23046875 2.358821 0.919883 -1.438938
265.08203125 2.31582 0.90092 -1.4149
265.9453125 2.589875 1.135312 -1.454563
266.8046875 2.9077479999999998 1.29643 -1.611318
267.62109375 3.2450520000000003 1.975057 -1.269995
268.3671875 3.481546 2.094629 -1.386917
269.10546875 3.2792250000000003 1.174911 -2.104314
269.8203125 2.682416 0.342117 -2.340299
270.50390625 2.083313 1.01721 -1.066103
271.1953125 1.677773 1.454048 -0.223725
271.87109375 2.169455 0.995484 -1.173971
272.54296875 2.2399430000000002 1.134136 -1.105807
273.21875 2.515282 1.941 -0.574282
273.87890625 2.704003 2.244952 -0.459051
274.55078125 2.929328 2.01265 -0.916678
275.20703125 3.193733 1.949039 -1.244694
275.8984375 2.918759 1.664735 -1.254024
276.59375 2.980578 1.961037 -1.019541
277.26953125 2.678458 1.784895 -0.893563
277.96484375 2.695808 1.564837 -1.130971
278.640625 2.6794849999999997 1.659463 -1.020022
279.3359375 2.642023 1.486106 -1.155917
280.0625 2.622413 1.539062 -1.083351
280.79296875 2.601241 1.56098 -1.040261
281.55859375 2.7141390000000003 1.708978 -1.005161
282.29296875 2.893416 1.803626 -1.08979
282.984375 2.743154 1.698571 -1.044583
283.70703125 2.775607 1.599716 -1.175891
284.4609375 2.671456 1.639742 -1.031714
285.25 2.689549 1.635 -1.054549
286.078125 2.630633 1.555706 -1.074927
287.0234375 2.8108820000000003 1.774507 -1.036375
287.91015625 2.7914120000000002 1.760555 -1.030857
288.828125 2.8631789999999997 1.838531 -1.024648
289.76171875 3.1107050000000003 1.943581 -1.167124
290.734375 2.817835 1.876211 -0.941624
291.73828125 2.653483 1.708066 -0.945417
292.6328125 2.773651 1.875598 -0.898053
293.4765625 2.549804 1.706041 -0.843763
294.34375 2.721826 1.793499 -0.928327
295.2578125 2.884541 1.896748 -0.987793
296.2421875 2.9739630000000004 1.844162 -1.129801
297.24609375 2.975385 1.915084 -1.060301
298.22265625 2.9625459999999997 1.938694 -1.023852
299.19140625 2.876621 1.893863 -0.982758
300.140625 2.970817 2.057768 -0.913049
301.08984375 2.760895 1.813287 -0.947608
302.015625 2.7921839999999998 1.852344 -0.93984
302.92578125 2.913093 1.919861 -0.993232
303.890625 2.942197 1.762352 -1.179845
304.87109375 2.97837 1.775428 -1.202942
305.796875 3.0022510000000002 1.879244 -1.123007
306.70703125 2.738178 1.716937 -1.021241
307.6484375 2.56076 1.617914 -0.942846
308.55078125 1.9615420000000001 1.346317 -0.615225
309.4921875 2.1311419999999996 1.456206 -0.674936
310.46875 2.194866 1.469597 -0.725269
311.3671875 2.244517 1.554562 -0.689955
312.234375 2.26316 1.496685 -0.766475
313.1875 1.84084 1.235948 -0.604892
314.16796875 2.036017 1.373435 -0.662582
315.109375 2.474996 1.606491 -0.868505
316.0625 2.765832 1.903672 -0.86216
316.90234375 2.7335380000000002 1.858964 -0.874574
317.7421875 2.6047279999999997 1.52481 -1.079918
318.6484375 2.618665 1.615445 -1.00322
319.5390625 2.719617 1.724617 -0.995
320.43359375 2.831225 1.558933 -1.272292
321.375 2.9645989999999998 1.83 -1.134599
322.33203125 2.939652 1.816982 -1.12267
323.3046875 2.9043609999999997 1.737387 -1.166974
324.25 2.909294 1.715 -1.194294
325.1953125 2.7063420000000002 1.606315 -1.100027
326.16796875 2.503357 1.434845 -1.068512
327.109375 2.414632 1.168878 -1.245754
328.015625 2.418576 1.480868 -0.937708
328.94140625 2.386437 1.405 -0.981437
329.8984375 2.167595 1.32403 -0.843565
330.90625 2.362886 1.409005 -0.953881
331.92578125 2.554781 1.611987 -0.942794
332.87890625 2.597568 1.350879 -1.246689
333.8125 2.662814 1.542283 -1.120531
334.78515625 2.388948 1.374554 -1.014394
335.734375 2.429798 1.594153 -0.835645
336.6953125 2.322397 1.468293 -0.854104
337.66015625 2.365586 1.405 -0.960586
338.60546875 2.536151 1.544298 -0.991853
339.59375 2.558638 1.506346 -1.052292
340.578125 3.080042 1.413288 -1.666754
341.4296875 3.137883 1.606237 -1.531646
342.2890625 2.9936740000000004 1.839903 -1.153771
343.171875 2.963775 2.063187 -0.900588
344.1328125 2.848256 1.883591 -0.964665
345.0703125 3.000212 1.98748 -1.012732
345.94921875 3.1869189999999996 1.875001 -1.311918
346.80078125 3.043333 1.907628 -1.135705
347.6484375 3.029096 1.259792 -1.769304
348.52734375 2.913594 1.449712 -1.463882
349.46484375 3.108028 2.024864 -1.083164
350.41796875 2.9549469999999998 2.002302 -0.952645
351.30078125 2.8636410000000003 2.20597 -0.657671
352.1328125 2.809231 2.156562 -0.652669
352.9765625 2.934914 2.266749 -0.668165
353.86328125 2.8683769999999997 2.1069 -0.761477
354.828125 2.781805 1.902693 -0.879112
355.81640625 2.8567349999999996 1.841681 -1.015054
356.78515625 2.839515 1.505869 -1.333646
357.74609375 2.723098 1.508166 -1.214932
358.62109375 2.621379 1.336439 -1.28494
359.44921875 2.859038 1.530364 -1.328674
360.234375 3.024372 1.961657 -1.062715
361.03125 3.024757 1.845329 -1.179428
361.84375 3.016103 1.771103 -1.245
362.7109375 2.992868 1.775582 -1.217286
363.66796875 2.94703 1.383745 -1.563285
364.6328125 2.7283530000000003 1.339811 -1.388542
365.6015625 2.712957 1.292957 -1.42
366.484375 2.678385 1.348007 -1.330378
367.36328125 2.702501 1.33847 -1.364031
368.171875 2.7156000000000002 1.438459 -1.277141
368.98046875 2.788567 1.814832 -0.973735
369.828125 2.849888 1.764917 -1.084971
370.7421875 2.8784039999999997 1.909671 -0.968733
371.6640625 2.7171250000000002 1.89337 -0.823755
372.67578125 2.450111 1.58616 -0.863951
373.71484375 2.1670499999999997 1.36272 -0.80433
374.703125 2.315606 1.406122 -0.909484
375.67578125 2.097665 1.308093 -0.789572
376.65234375 2.310042 1.47005 -0.839992
377.58203125 2.250124 1.487629 -0.762495
378.5078125 2.0136 1.426604 -0.586996
379.38671875 2.666818 1.756864 -0.909954
380.3046875 2.842447 1.763396 -1.079051
381.2734375 2.90863 1.708341 -1.200289
382.19921875 2.819678 1.630662 -1.189016
383.1328125 2.6495059999999997 1.459808 -1.189698
384.07421875 2.724677 1.523773 -1.200904
385.0546875 2.722104 1.522418 -1.199686
386.03515625 2.595683 1.40291 -1.192773
387.0 2.541402 1.08 -1.461402
387.94921875 2.588191 1.081103 -1.507088
388.83203125 2.610897 1.091021 -1.519876
389.6796875 2.553628 1.094639 -1.458989
390.52734375 2.683076 1.151524 -1.531552
391.39453125 2.738699 1.609982 -1.128717
392.2890625 2.509236 1.506106 -1.00313
393.2265625 2.375887 1.513789 -0.862098
394.16015625 2.238387 1.440753 -0.797634
395.140625 2.111245 1.321319 -0.789926
396.12890625 2.497017 1.56703 -0.929987
397.0703125 2.76331 1.682306 -1.081004
398.0 2.7420619999999998 1.69 -1.052062
398.96875 2.5247479999999998 1.571056 -0.953692
399.99609375 2.321837 1.432942 -0.888895
401.015625 2.360312 1.523142 -0.83717
401.953125 2.296694 1.493064 -0.80363
402.90625 2.289098 1.456711 -0.832387
403.90234375 2.278877 1.428897 -0.84998
404.84765625 2.567159 1.647159 -0.92
405.81640625 2.542766 1.584241 -0.958525
406.79296875 2.518086 1.526247 -0.991839
407.78515625 2.377338 1.466752 -0.910586
408.796875 2.5553920000000003 1.317725 -1.237667
409.72265625 2.649071 1.336743 -1.312328
410.6171875 2.5981940000000003 1.553241 -1.044953
411.515625 2.709654 1.634255 -1.075399
412.4375 2.542865 1.512391 -1.030474
413.4140625 2.670796 1.414879 -1.255917
414.3203125 2.677943 1.32897 -1.348973
415.203125 2.860344 1.784256 -1.076088
416.10546875 2.870251 1.634311 -1.23594
417.015625 2.785392 1.657531 -1.127861
417.94140625 2.7514719999999997 1.396472 -1.355
418.828125 2.794858 1.760005 -1.034853
419.71875 2.879678 1.804563 -1.075115
420.6484375 2.8069990000000002 1.747112 -1.059887
421.609375 2.7741059999999997 1.309299 -1.464807
422.5703125 2.6409890000000003 1.263539 -1.37745
423.46484375 2.241417 1.054259 -1.187158
424.3515625 2.689223 1.547354 -1.141869
425.265625 2.696174 1.559488 -1.136686
426.1171875 2.760987 1.601005 -1.159982
427.05078125 2.7263070000000003 1.618807 -1.1075
428.046875 2.612579 1.574712 -1.037867
429.05859375 2.5466800000000003 1.542403 -1.004277
430.09765625 2.74505 1.70005 -1.045
430.99609375 2.8229670000000002 1.687852 -1.135115
431.90234375 2.6739189999999997 1.34178 -1.332139
432.8125 2.542278 1.186375 -1.355903
433.71484375 2.722778 1.284381 -1.438397
434.55078125 2.70617 1.26 -1.44617
435.36328125 2.859787 1.676874 -1.182913
436.21875 2.771067 1.619839 -1.151228
437.10546875 2.5583479999999996 1.504257 -1.054091
438.015625 2.237066 1.019257 -1.217809
438.94921875 2.161528 0.963964 -1.197564
439.92578125 2.032737 0.914658 -1.118079
440.875 1.972351 0.895 -1.077351
441.8203125 2.013809 0.92 -1.093809
442.66796875 2.156154 1.001361 -1.154793
443.5078125 1.7814870000000003 0.774808 -1.006679
444.3515625 2.325425 1.046295 -1.27913
445.25 2.575222 1.205 -1.370222
446.1484375 2.4852980000000002 1.197765 -1.287533
447.04296875 2.5482959999999997 1.203673 -1.344623
447.8671875 2.689089 1.271737 -1.417352
448.65625 2.802402 1.366418 -1.435984
449.4296875 2.837412 1.340716 -1.496696
450.23828125 2.773736 1.316907 -1.456829
451.109375 2.827609 1.379342 -1.448267
451.9609375 2.85707 1.759411 -1.097659
452.8671875 2.806436 1.716622 -1.089814
453.7890625 2.764758 1.704523 -1.060235
454.71875 2.90093 1.462568 -1.438362
455.5390625 2.9739079999999998 1.96493 -1.008978
456.33984375 2.900695 1.92 -0.980695
457.1328125 2.9516750000000003 2.023922 -0.927753
457.90625 2.7418 1.787917 -0.953883
458.703125 2.483658 1.593727 -0.889931
459.54296875 2.4005300000000003 1.532331 -0.868199
460.44140625 2.501952 1.549415 -0.952537
461.359375 2.5821009999999998 1.352285 -1.229816
462.21875 2.719933 1.661677 -1.058256
463.10546875 2.5738839999999996 1.559864 -1.01402
464.0 2.51457 1.22 -1.29457
464.84765625 2.504868 1.574868 -0.93
465.6953125 2.5030259999999998 1.556045 -0.946981
466.55078125 2.6513150000000003 1.712344 -0.938971
467.4140625 2.55324 1.654554 -0.898686
468.3046875 2.562565 1.695497 -0.867068
469.20703125 2.742397 1.457814 -1.284583
470.04296875 2.830955 1.516212 -1.314743
470.89453125 2.664779 1.709501 -0.955278
471.765625 2.623506 1.616807 -1.006699
472.6796875 2.557329 1.538793 -1.018536
473.578125 2.638324 1.393324 -1.245
474.42578125 2.8060210000000003 1.541017 -1.265004
475.265625 2.7964510000000002 1.775859 -1.020592
476.13671875 2.663511 1.733837 -0.929674
477.046875 2.558907 1.633817 -0.92509
477.97265625 2.7807589999999998 1.445759 -1.335
478.85546875 2.75544 1.734312 -1.021128
479.76171875 2.808924 1.724464 -1.08446
480.68359375 2.6493200000000003 1.624775 -1.024545
481.6484375 2.558732 1.594631 -0.964101
482.6015625 2.62473 1.599138 -1.025592
483.515625 2.648113 1.370715 -1.277398
484.4140625 2.645341 1.364432 -1.280909
485.28515625 2.688974 1.355446 -1.333528
486.11328125 2.6726099999999997 1.708532 -0.964078
486.96875 2.718302 1.793073 -0.925229
487.8671875 2.766959 1.782132 -0.984827
488.78515625 2.195524 1.540741 -0.654783
489.73828125 2.664721 1.737033 -0.927688
490.73828125 2.516818 1.6204 -0.896418
491.7421875 2.78754 1.774038 -1.013502
492.6484375 2.764494 1.433875 -1.330619
493.4921875 2.799502 1.799567 -0.999935
494.359375 2.6132660000000003 1.721351 -0.891915
495.26171875 2.6529990000000003 1.733157 -0.919842
496.234375 2.55324 1.348343 -1.204897
497.18359375 2.652195 1.389609 -1.262586
498.12890625 2.638884 1.314267 -1.324617
499.0 2.651384 1.405 -1.246384
499.90625 2.784084 1.750212 -1.033872
500.765625 2.82069 1.852274 -0.968416
501.66796875 2.657927 1.796913 -0.861014
502.55859375 2.604827 1.723615 -0.881212
503.4921875 2.092338 1.483824 -0.608514
504.45703125 2.221411 1.2326 -0.988811
505.34375 2.409779 1.286679 -1.1231
506.23046875 2.368881 1.594948 -0.773933
507.12890625 2.361292 1.597582 -0.76371
508.046875 2.099494 1.419205 -0.680289
509.00390625 2.198316 1.439117 -0.759199
509.9453125 2.460885 1.277065 -1.18382
510.89453125 2.63626 1.379848 -1.256412
511.8046875 2.5544510000000002 1.288303 -1.266148
512.71484375 2.566086 1.183935 -1.382151
513.6328125 2.5376279999999998 1.185833 -1.351795
514.4921875 2.6223780000000003 1.302529 -1.319849
515.328125 2.679204 1.338185 -1.341019
516.1171875 2.8134889999999997 1.375969 -1.43752
516.8828125 2.6509359999999997 1.303603 -1.347333
517.71484375 2.564335 1.256476 -1.307859
518.5859375 2.622133 1.229222 -1.392911
519.5 2.515238 1.225 -1.290238
520.421875 2.5872200000000003 1.23222 -1.355
521.37890625 2.575756 1.268228 -1.307528
522.24609375 2.667935 1.224136 -1.443799
523.13671875 2.618645 1.209177 -1.409468
524.0546875 2.37456 1.090046 -1.284514
524.921875 2.399443 1.08353 -1.315913
525.78515625 2.5996319999999997 1.23877 -1.360862
526.6640625 2.811643 1.3295 -1.482143
527.58203125 2.7383819999999996 1.713925 -1.024457
528.4921875 2.757197 1.672306 -1.084891
529.4140625 2.814174 1.661633 -1.152541
530.37109375 2.520548 1.536278 -0.98427
531.24609375 2.58134 1.615132 -0.966208
532.15625 2.596571 1.564094 -1.032477
533.09765625 2.604199 1.499199 -1.105
534.05078125 2.5734899999999996 1.449007 -1.124483
535.01171875 2.660383 1.266768 -1.393615
535.9296875 2.624491 1.229831 -1.39466
536.84375 2.6794260000000003 1.584562 -1.094864
537.78125 2.654959 1.569814 -1.085145
538.6953125 2.723712 1.652575 -1.071137
539.6484375 2.529063 1.519486 -1.009577
540.5703125 2.62811 1.266626 -1.361484
541.4765625 2.6780429999999997 1.57789 -1.100153
542.40625 2.7423770000000003 1.602082 -1.140295
543.34765625 2.593667 1.573667 -1.02
544.31640625 2.697443 1.304641 -1.392802
545.30078125 2.54296 1.212638 -1.330322
546.2109375 2.551939 1.187138 -1.364801
547.109375 2.6498850000000003 1.196971 -1.452914
548.0390625 2.715519 1.183151 -1.532368
548.9609375 2.722095 1.21916 -1.502935
549.859375 2.583133 1.174732 -1.408401
550.76171875 2.592415 1.227889 -1.364526
551.66796875 2.447867 1.173096 -1.274771
552.52734375 2.8167 1.358311 -1.458389
553.37890625 2.404488 1.470269 -0.934219
554.25390625 2.637748 1.656748 -0.981
555.08984375 2.7816140000000003 1.72989 -1.051724
555.9609375 2.666067 1.614479 -1.051588
556.85546875 2.562596 1.499864 -1.062732
557.7890625 2.597925 1.579648 -1.018277
558.65234375 2.665591 1.619546 -1.046045
559.54296875 2.5737300000000003 1.54384 -1.02989
560.4375 2.5166709999999997 1.503712 -1.012959
561.3046875 2.749088 1.674956 -1.074132
562.1640625 2.814194 1.664979 -1.149215
563.05859375 2.620055 1.555851 -1.064204
563.9765625 2.546101 1.266101 -1.28
564.890625 2.5348300000000004 1.237608 -1.297222
565.76171875 2.760974 1.252643 -1.508331
566.625 2.560468 1.555 -1.005468
567.46875 2.5015989999999997 1.522117 -0.979482
568.2734375 2.443111 1.070519 -1.372592
569.0546875 2.311917 0.93373 -1.378187
569.7734375 2.639495 1.111759 -1.527736
570.46875 2.373711 0.953879 -1.419832
571.15234375 2.209383 0.919184 -1.290199
571.8515625 2.3380900000000002 1.008514 -1.329576
572.5390625 2.489859 1.059955 -1.429904
573.2109375 2.170177 1.139479 -1.030698
573.94140625 2.1126110000000002 1.057424 -1.055187
574.84765625 2.602339 1.403887 -1.198452
575.8125 2.7062049999999997 1.482308 -1.223897
576.75390625 2.656729 1.385535 -1.271194
577.74609375 2.569304 1.614309 -0.954995
578.71484375 2.441144 1.556338 -0.884806
579.640625 2.684948 1.738773 -0.946175
580.5625 2.663552 1.707321 -0.956231
581.47265625 2.779568 1.744568 -1.035
582.34375 2.703617 1.7076 -0.996017
583.21875 2.78504 1.69929 -1.08575
584.109375 2.7290289999999997 1.668971 -1.060058
585.046875 2.678972 1.345276 -1.333696
585.98046875 2.8248569999999997 1.399893 -1.424964
586.9296875 2.481969 1.262587 -1.219382
587.83984375 2.542246 1.240474 -1.301772
588.75 2.580711 1.59 -0.990711
589.6640625 2.474696 1.599742 -0.874954
590.6015625 2.523473 1.421702 -1.101771
591.5 2.503278 1.42 -1.083278
592.3984375 2.482387 1.264005 -1.218382
593.2578125 2.513357 1.413688 -1.099669
594.078125 2.529989 1.354176 -1.175813
594.85546875 2.6178559999999997 1.389912 -1.227944
595.62890625 2.493185 1.281399 -1.211786
596.46875 2.332853 1.231591 -1.101262
597.3984375 2.3693109999999997 1.256912 -1.112399
598.34375 2.374024 1.296211 -1.077813
599.3125 2.507237 1.254375 -1.252862
600.21875 2.74591 1.778003 -0.967907
601.11328125 2.7289510000000003 1.756655 -0.972296
601.9921875 2.684832 1.695 -0.989832
602.921875 2.6729659999999997 1.709342 -0.963624
603.87109375 2.670702 1.662629 -1.008073
604.80859375 2.719092 1.759186 -0.959906
605.73046875 2.748645 1.689968 -1.058677
606.65625 2.746598 1.6735 -1.073098
607.5703125 2.704574 1.711471 -0.993103
608.48828125 2.845776 1.851899 -0.993877
609.40234375 2.909934 1.895238 -1.014696
610.3203125 2.817888 1.807863 -1.010025
611.234375 2.651135 1.705722 -0.945413
612.15625 2.883317 1.869635 -1.013682
613.0390625 2.7488 1.774333 -0.974467
613.94140625 2.69247 1.654345 -1.038125
614.8515625 2.599347 1.339347 -1.26
615.70703125 2.678759 1.303788 -1.374971
616.54296875 2.605311 1.589535 -1.015776
617.41015625 2.7413730000000003 1.658274 -1.083099
618.3125 2.654002 1.349483 -1.304519
619.21875 2.178655 1.119664 -1.058991
620.08203125 2.692402 1.337647 -1.354755
620.95703125 2.704962 1.316959 -1.388003
621.82421875 2.7377320000000003 1.263811 -1.473921
622.70703125 2.5594080000000003 1.217624 -1.341784
623.58203125 2.473828 1.219958 -1.25387
624.4375 2.6399540000000004 1.280887 -1.359067
625.30859375 2.586551 1.276669 -1.309882
626.1875 2.728643 1.339429 -1.389214
627.06640625 2.532092 1.254843 -1.277249
627.9609375 2.560648 1.569867 -0.990781
628.86328125 2.60133 1.634045 -0.967285
629.75 2.674077 1.71 -0.964077
630.67578125 2.575222 1.636479 -0.938743
631.57421875 2.68414 1.699691 -0.984449
632.50390625 2.487323 1.578142 -0.909181
633.43359375 2.3594530000000002 1.50963 -0.849823
634.34765625 2.314079 1.200922 -1.113157
635.22265625 2.31745 1.22745 -1.09
636.140625 2.181254 1.08673 -1.094524
637.05078125 2.313498 1.175632 -1.137866
637.9453125 2.289344 1.13334 -1.156004
638.828125 1.884601 0.919606 -0.964995
639.73046875 2.377386 1.484995 -0.892391
640.6484375 2.511246 1.577665 -0.933581
641.546875 2.611793 1.378459 -1.233334
642.359375 2.78244 1.756328 -1.026112
643.1640625 2.723879 1.749955 -0.973924
643.96875 2.639202 1.415036 -1.224166
644.859375 2.6539989999999998 1.403882 -1.250117
645.79296875 2.536461 1.338858 -1.197603
646.68359375 2.5713 1.315867 -1.255433
647.55859375 2.761509 1.382464 -1.379045
648.4453125 2.650139 1.330739 -1.3194
649.328125 2.66973 1.327596 -1.342134
650.1953125 2.611392 1.307702 -1.30369
651.04296875 2.729254 1.351456 -1.377798
651.91015625 2.6405209999999997 1.342209 -1.298312
652.8125 2.644592 1.333192 -1.3114
653.75390625 2.494697 1.223223 -1.271474
654.6875 2.33852 1.224333 -1.114187
655.62109375 2.329859 1.489109 -0.84075
656.55859375 2.430425 1.529351 -0.901074
657.48046875 2.731928 1.454864 -1.277064
658.3515625 2.706743 1.453515 -1.253228
659.234375 2.690529 1.716685 -0.973844
660.13671875 2.651778 1.691758 -0.96002
661.0234375 2.538792 1.333792 -1.205
661.8984375 2.348489 1.235577 -1.112912
662.8515625 2.315986 1.515973 -0.800013
663.8046875 2.4281420000000002 1.599294 -0.828848
664.703125 2.568144 1.673669 -0.894475
665.5859375 2.603901 1.679697 -0.924204
666.5078125 2.42583 1.556951 -0.868879
667.37109375 2.5712529999999996 1.286277 -1.284976
668.2109375 2.6413900000000003 1.694797 -0.946593
669.0703125 2.728946 1.721913 -1.007033
669.9453125 2.73515 1.742895 -0.992255
670.84765625 2.693886 1.372917 -1.320969
671.74609375 2.659819 1.249956 -1.409863
672.59765625 2.624698 1.269698 -1.355
673.453125 2.621594 1.325 -1.296594
674.3203125 2.705829 1.349274 -1.356555
675.203125 2.701231 1.350838 -1.350393
676.046875 2.70298 1.37925 -1.32373
676.875 2.6785629999999996 1.38 -1.298563
677.72265625 2.798265 1.428311 -1.369954
678.5546875 2.618117 1.328907 -1.28921
679.36328125 2.786268 1.381795 -1.404473
680.1796875 2.738555 1.408928 -1.329627
681.03125 2.827961 1.424803 -1.403158
681.89453125 2.731478 1.444809 -1.286669
682.7734375 2.6661270000000004 1.428365 -1.237762
683.6484375 2.549719 1.403373 -1.146346
684.515625 2.199148 1.209597 -0.989551
685.32421875 2.640593 1.399007 -1.241586
686.1484375 2.6743069999999998 1.362932 -1.311375
686.9765625 2.678299 1.413299 -1.265
687.78515625 2.767381 1.426507 -1.340874
688.61328125 2.833303 1.483675 -1.349628
689.51171875 2.586675 1.586874 -0.999801
690.46484375 2.661216 1.619084 -1.042132
691.3828125 2.552164 1.304368 -1.247796
692.27734375 2.726599 1.683223 -1.043376
693.2421875 2.588796 1.633891 -0.954905
694.18359375 2.704392 1.769898 -0.934494
695.109375 2.6425579999999997 1.673914 -0.968644
696.03125 2.568826 1.6245 -0.944326
696.8984375 2.575069 1.385438 -1.189631
697.76171875 2.646532 1.692126 -0.954406
698.67578125 2.435592 1.571387 -0.864205
699.63671875 2.330018 1.465454 -0.864564
700.58203125 2.328818 1.508818 -0.82
701.5546875 2.110041 1.377418 -0.732623
702.53515625 2.177654 1.375106 -0.802548
703.4453125 2.330991 1.215017 -1.115974
704.328125 1.957881 1.028062 -0.929819
705.20703125 2.577168 1.322411 -1.254757
706.05078125 2.642088 1.404375 -1.237713
706.89453125 2.7193709999999998 1.444784 -1.274587
707.75 2.78038 1.445 -1.33538
708.625 2.661321 1.725 -0.936321
709.515625 2.682563 1.781971 -0.900592
710.40625 2.725206 1.789339 -0.935867
711.3046875 2.58173 1.359484 -1.222246
712.16015625 2.808028 1.423708 -1.38432
713.03125 2.7658009999999997 1.406636 -1.359165
713.921875 2.8304600000000004 1.399609 -1.430851
714.796875 2.649865 1.382495 -1.26737
715.625 2.723041 1.41 -1.313041
716.47265625 2.806401 1.461401 -1.345
717.35546875 2.751841 1.464943 -1.286898
718.1875 2.568157 1.287308 -1.280849
719.0390625 2.451167 1.173799 -1.277368
719.91015625 2.338574 1.105102 -1.233472
720.8046875 2.307074 1.128143 -1.178931
721.72265625 2.513936 1.218936 -1.295
722.5859375 2.606254 1.289357 -1.316897
723.41015625 2.685264 1.260729 -1.424535
724.21484375 2.672071 1.207048 -1.465023
725.0 2.5718199999999998 1.215 -1.35682
725.859375 2.3998229999999996 1.126618 -1.273205
726.78515625 2.423905 1.154671 -1.269234
727.66796875 2.29351 1.110059 -1.183451
728.51171875 2.2652010000000002 1.096717 -1.168484
729.37890625 2.293332 1.109908 -1.183424
730.25390625 2.429656 1.224069 -1.205587
731.125 2.685942 1.345 -1.340942
732.0078125 2.738701 1.368137 -1.370564
732.8671875 2.7007649999999996 1.276063 -1.424702
733.73828125 2.653178 1.24947 -1.403708
734.55859375 2.3787380000000002 1.058804 -1.319934
735.3828125 2.5192639999999997 1.114244 -1.40502
736.2265625 2.487881 1.152881 -1.335
737.0859375 2.515148 1.229222 -1.285926
737.94921875 2.442699 1.194584 -1.248115
738.82421875 2.480021 1.241509 -1.238512
739.61328125 2.599422 1.194959 -1.404463
740.40625 2.590318 1.191719 -1.398599
741.21875 2.708101 1.279671 -1.42843
742.01953125 2.498462 1.199217 -1.299245
742.8125 2.596496 1.218358 -1.378138
743.6015625 2.720088 1.23007 -1.490018
744.40234375 2.629921 1.223849 -1.406072
745.22265625 2.627465 1.202465 -1.425
746.078125 2.590739 1.244286 -1.346453
746.93359375 2.547041 1.209473 -1.337568
747.80859375 2.3749789999999997 1.158449 -1.21653
748.62890625 2.463138 1.134788 -1.32835
749.46875 2.388504 1.172969 -1.215535
750.30078125 2.58523 1.261544 -1.323686
751.109375 2.6544470000000002 1.27658 -1.377867
751.9296875 2.531315 1.252256 -1.279059
752.78125 2.729606 1.306975 -1.422631
753.6875 2.6352029999999997 1.391094 -1.244109
754.62109375 2.717946 1.728604 -0.989342
755.5625 2.680529 1.650943 -1.029586
756.5078125 2.4960809999999998 1.584361 -0.91172
757.43359375 2.6286329999999998 1.374784 -1.253849
758.2890625 2.693196 1.394765 -1.298431
759.1171875 2.8013389999999996 1.497607 -1.303732
759.953125 2.639771 1.427912 -1.211859
760.80078125 2.8628400000000003 1.491162 -1.371678
761.7109375 2.574237 1.61664 -0.957597
762.640625 2.56775 1.7007 -0.86705
763.56640625 2.642169 1.719403 -0.922766
764.48046875 2.2327969999999997 1.414893 -0.817904
765.36328125 2.35621 1.191982 -1.164228
766.24609375 2.4801130000000002 1.235219 -1.244894
767.11328125 2.183213 1.094129 -1.089084
767.9453125 2.323966 1.115738 -1.208228
768.77734375 2.5039670000000003 1.187727 -1.31624
769.62890625 2.026403 0.947843 -1.07856
770.51171875 2.4617269999999998 1.188867 -1.27286
771.43359375 2.5667910000000003 1.277414 -1.289377
772.33984375 2.6248329999999997 1.312831 -1.312002
773.24609375 2.725979 1.401072 -1.324907
774.13671875 2.703622 1.320761 -1.382861
775.03515625 2.749253 1.369531 -1.379722
775.87109375 2.754591 1.379446 -1.375145
776.71875 2.6364460000000003 1.385132 -1.251314
777.59375 2.693974 1.352736 -1.341238
778.4765625 2.607221 1.281132 -1.326089
779.359375 2.624485 1.344394 -1.280091
780.23828125 2.730721 1.342108 -1.388613
781.13671875 2.7715889999999996 1.332841 -1.438748
782.03125 2.586387 1.330329 -1.256058
782.9140625 2.5941289999999997 1.30791 -1.286219
783.77734375 2.6494600000000004 1.235502 -1.413958
784.6640625 2.4262230000000002 1.119437 -1.306786
785.578125 2.092459 0.979244 -1.113215
786.49609375 2.3006219999999997 1.094128 -1.206494
787.328125 2.463202 1.158219 -1.304983
788.171875 2.574665 1.252788 -1.321877
789.03515625 2.743202 1.295849 -1.447353
789.96484375 2.664944 1.244864 -1.42008
790.8515625 2.826137 1.369998 -1.456139
791.7109375 2.535049 1.275 -1.260049
792.58984375 2.4820529999999996 1.205304 -1.276749
793.4765625 2.4455340000000003 1.210534 -1.235
794.390625 2.453446 1.476771 -0.976675
795.296875 2.571928 1.61423 -0.957698
796.12890625 2.610484 1.34818 -1.262304
796.94140625 2.668612 1.358989 -1.309623
797.734375 2.6792740000000004 1.374365 -1.304909
798.59765625 2.656047 1.376192 -1.279855
799.46875 2.692444 1.342629 -1.349815
800.375 2.82072 1.385 -1.43572
801.3125 2.745356 1.358846 -1.38651
802.1875 2.82469 1.340833 -1.483857
803.07421875 2.746148 1.34765 -1.398498
804.0 2.774278 1.345 -1.429278
804.9140625 2.711524 1.344932 -1.366592
805.7890625 2.777837 1.329549 -1.448288
806.6640625 2.784602 1.274356 -1.510246
807.56640625 2.683019 1.227442 -1.455577
808.48046875 2.742409 1.289853 -1.452556
809.375 2.7456449999999997 1.315 -1.430645
810.24609375 2.78622 1.346448 -1.439772
811.05078125 2.750745 1.326324 -1.424421
811.828125 2.7660780000000003 1.307061 -1.459017
812.625 2.867362 1.33 -1.537362
813.47265625 2.85771 1.28771 -1.57
814.359375 2.480716 1.151713 -1.329003
815.28125 1.6970999999999998 0.757137 -0.939963
816.16796875 2.524031 1.205219 -1.318812
817.0546875 2.751376 1.318821 -1.432555
817.9296875 2.7217890000000002 1.366074 -1.355715
818.81640625 2.6598129999999998 1.314356 -1.345457
819.72265625 2.622033 1.302033 -1.32
820.65234375 2.567285 1.245732 -1.321553
821.58984375 2.641944 1.23496 -1.406984
822.46875 2.5854489999999997 1.185703 -1.399746
823.3046875 2.527326 1.244568 -1.282758
824.10546875 2.713369 1.354484 -1.358885
824.96484375 2.6464980000000002 1.355763 -1.290735
825.86328125 2.591917 1.334153 -1.257764
826.75390625 2.578045 1.240821 -1.337224
827.58203125 2.5534369999999997 1.16855 -1.384887
828.37109375 2.55816 1.193191 -1.364969
829.15234375 2.451002 1.113526 -1.337476
829.9375 2.120476 1.0373 -1.083176
830.76171875 2.418409 1.150365 -1.268044
831.5625 2.42232 1.157634 -1.264686
832.3671875 2.130909 1.019851 -1.111058
833.21875 2.223232 0.995132 -1.2281
834.07421875 2.332097 1.088054 -1.244043
834.953125 2.034004 0.924049 -1.109955
835.8046875 2.377412 1.142495 -1.234917
836.66796875 2.733396 1.327523 -1.405873
837.53515625 2.579902 1.31 -1.269902
838.3359375 2.661394 1.244243 -1.417151
839.13671875 2.858539 1.292516 -1.566023
839.953125 2.814816 1.305 -1.509816
840.80859375 2.7983960000000003 1.313396 -1.485
841.67578125 2.7532259999999997 1.271286 -1.48194
842.546875 2.5738649999999996 1.278765 -1.2951
843.390625 2.601751 1.272529 -1.329222
844.24609375 2.763776 1.323188 -1.440588
845.07421875 2.621836 1.229583 -1.392253
845.9140625 2.622738 1.229601 -1.393137
846.7734375 2.681737 1.267973 -1.413764
847.60546875 2.61705 1.234756 -1.382294
848.39453125 2.795177 1.316322 -1.478855
849.1796875 2.551373 1.241315 -1.310058
849.984375 2.466819 1.173591 -1.293228
850.81640625 2.265762 1.084171 -1.181591
851.6328125 2.108251 0.981114 -1.127137
852.49609375 2.356896 1.181935 -1.174961
853.421875 2.506466 1.24 -1.266466
854.2734375 2.674047 1.205812 -1.468235
855.1171875 2.643979 1.179699 -1.46428
855.98046875 2.758531 1.219954 -1.538577
856.85546875 2.569149 1.171096 -1.398053
857.69921875 2.432657 1.183637 -1.24902
858.4921875 2.5796089999999996 1.252892 -1.326717
859.25390625 2.557466 1.252466 -1.305
860.01171875 2.50447 1.255995 -1.248475
860.765625 2.543799 1.308686 -1.235113
861.57421875 2.515586 1.311635 -1.203951
862.4453125 2.697781 1.394448 -1.303333
863.34765625 2.609871 1.404871 -1.205
864.25390625 2.530792 1.348182 -1.18261
865.19921875 2.513412 1.669955 -0.843457
866.14453125 2.674808 1.70489 -0.969918
867.08203125 2.53858 1.618737 -0.919843
867.9921875 2.757853 1.431539 -1.326314
868.83203125 2.850186 1.773215 -1.076971
869.671875 2.777447 1.711132 -1.066315
870.51953125 2.724773 1.759945 -0.964828
871.359375 2.757791 1.812259 -0.945532
872.22265625 2.709863 1.754863 -0.955
873.1328125 2.638738 1.723138 -0.9156
874.05859375 2.65229 1.688379 -0.963911
874.98828125 2.681892 1.419003 -1.262889
875.87890625 2.776132 1.734469 -1.041663
876.77734375 2.726788 1.708636 -1.018152
877.68359375 2.699351 1.459608 -1.239743
878.484375 2.920465 1.454528 -1.465937
879.26953125 2.984233 2.069929 -0.914304
880.0859375 2.659774 1.871132 -0.788642
880.90625 2.3749320000000003 1.489063 -0.885869
881.75 2.670329 1.8 -0.870329
882.62890625 2.554476 1.664809 -0.889667
883.5234375 2.628538 1.456931 -1.171607
884.3828125 2.777297 1.491322 -1.285975
885.27734375 2.562715 1.603136 -0.959579
886.171875 2.655496 1.618129 -1.037367
887.04296875 2.788211 1.378777 -1.409434
887.859375 2.647759 1.661016 -0.986743
888.69140625 2.545615 1.597442 -0.948173
889.56640625 2.632476 1.379783 -1.252693
890.4296875 2.6840770000000003 1.402721 -1.281356
891.3046875 2.4912720000000004 1.315352 -1.17592
892.1484375 2.639496 1.330741 -1.308755
892.953125 2.695673 1.342349 -1.353324
893.734375 2.616787 1.310922 -1.305865
894.52734375 2.574936 1.285376 -1.28956
895.34765625 2.103172 1.030467 -1.072705
896.140625 2.3977370000000002 1.215529 -1.182208
896.9453125 2.4107649999999996 1.309732 -1.101033
897.78515625 2.2241109999999997 1.545424 -0.678687
898.671875 2.428096 1.708236 -0.71986
899.6015625 2.311046 1.634792 -0.676254
900.515625 2.068572 1.495 -0.573572
901.45703125 2.439619 1.61 -0.829619
902.37890625 2.644364 1.734695 -0.909669
903.31640625 2.6697670000000002 1.678884 -0.990883
904.234375 2.677794 1.340028 -1.337766
905.10546875 2.752564 1.379842 -1.372722
905.9453125 2.75899 1.359343 -1.399647
906.7890625 2.76294 1.41944 -1.3435
907.640625 2.881665 1.392292 -1.489373
908.4921875 2.8975169999999997 1.332854 -1.564663
909.37109375 2.734222 1.260132 -1.47409
910.21484375 2.763935 1.238935 -1.525
911.08203125 2.92498 1.66521 -1.25977
911.94921875 2.7535629999999998 1.620832 -1.132731
912.8203125 2.793488 1.673912 -1.119576
913.6953125 2.773382 1.353604 -1.419778
914.51171875 2.778422 1.3 -1.478422
915.30859375 2.6744909999999997 1.659584 -1.014907
916.125 2.512841 1.575 -0.937841
916.9609375 2.524712 1.514556 -1.010156
917.828125 2.4738249999999997 1.459049 -1.014776
918.72265625 2.7052829999999997 1.346949 -1.358334
919.5859375 2.740069 1.339472 -1.400597
920.45703125 2.6566970000000003 1.604136 -1.052561
921.359375 2.790467 1.666935 -1.123532
922.2421875 2.710923 1.640972 -1.069951
923.15625 2.64393 1.630329 -1.013601
924.08203125 2.6144369999999997 1.694621 -0.919816
925.01171875 2.638014 1.80345 -0.834564
925.9609375 2.664433 1.804296 -0.860137
926.90234375 2.5340230000000004 1.734722 -0.799301
927.83203125 2.623805 1.662007 -0.961798
928.734375 2.6599709999999996 1.364456 -1.295515
929.6015625 2.724177 1.688983 -1.035194
930.47265625 2.702716 1.342716 -1.36
931.375 2.6500000000000004 1.35 -1.3
932.296875 2.643678 1.373859 -1.269819
933.2265625 2.5562959999999997 1.281296 -1.275
934.1875 2.470994 1.266228 -1.204766
935.1171875 2.502625 1.263675 -1.23895
936.0 2.646756 1.23 -1.416756
936.83984375 2.676923 1.268622 -1.408301
937.66796875 2.686121 1.27 -1.416121
938.46875 2.784077 1.304672 -1.479405
939.30078125 2.80147 1.353901 -1.447569
940.203125 2.8401240000000003 1.442596 -1.397528
941.1171875 2.582855 1.371645 -1.21121
942.01953125 2.67423 1.429907 -1.244323
942.9453125 2.695895 1.748311 -0.947584
943.88671875 2.832636 1.818157 -1.014479
944.82421875 2.713544 1.725581 -0.987963
945.73046875 2.5713679999999997 1.624847 -0.946521
946.640625 2.6357869999999997 1.375246 -1.260541
947.5234375 2.66825 1.378712 -1.289538
948.40625 2.6289160000000003 1.348529 -1.280387
949.28125 2.6333349999999998 1.316201 -1.317134
950.1015625 2.7230369999999997 1.358037 -1.365
950.875 2.8570450000000003 1.405 -1.452045
951.6484375 2.811401 1.364059 -1.447342
952.453125 2.950152 1.424297 -1.525855
953.2890625 2.750069 1.359058 -1.391011
954.19921875 2.730569 1.347999 -1.38257
955.11328125 2.6737130000000002 1.205469 -1.468244
956.0 2.794766 1.295 -1.499766
956.88671875 2.7194019999999997 1.509447 -1.209955
957.8203125 2.6975819999999997 1.522017 -1.175565
958.74609375 2.61468 1.485305 -1.129375
959.64453125 2.453594 1.199988 -1.253606
960.5234375 2.217034 1.010578 -1.206456
961.359375 2.037844 0.832574 -1.20527
962.17578125 2.225086 1.022025 -1.203061
962.9609375 2.311897 1.004871 -1.307026
963.7265625 1.9020420000000002 0.782042 -1.12
964.51953125 2.089156 0.925 -1.164156
965.3828125 2.118581 1.024669 -1.093912
966.296875 1.769076 0.909447 -0.859629
967.19140625 2.382854 1.224654 -1.1582
968.09375 2.5000609999999996 1.310455 -1.189606
968.953125 2.70173 1.374194 -1.327536
969.80859375 2.714295 1.724443 -0.989852
970.6875 2.500352 1.6175 -0.882852
971.5390625 2.545422 1.594577 -0.950845
972.39453125 2.4644779999999997 1.534052 -0.930426
973.23046875 2.489762 1.254762 -1.235
974.0546875 2.4376759999999997 1.184612 -1.253064
974.84765625 2.3967210000000003 1.155467 -1.241254
975.62890625 2.532141 1.163604 -1.368537
976.3984375 2.477948 1.170225 -1.307723
977.125 2.590895 1.245 -1.345895
977.84375 2.716705 1.2485 -1.468205
978.5546875 2.784926 1.310716 -1.47421
979.28515625 2.678147 1.271496 -1.406651
980.09375 2.531536 1.239051 -1.292485
980.96484375 2.3724439999999998 1.124185 -1.248259
981.77734375 2.260897 1.047394 -1.213503
982.62109375 2.204982 1.084993 -1.119989
983.46875 2.336728 1.167268 -1.16946
984.3046875 2.644212 1.254486 -1.389726
985.09375 2.680402 1.315402 -1.365
985.87109375 2.7330389999999998 1.338906 -1.394133
986.65234375 2.5965540000000003 1.329059 -1.267495
987.421875 2.773099 1.362788 -1.410311
988.21875 2.739174 1.328906 -1.410268
989.046875 2.565581 1.222849 -1.342732
989.890625 2.540765 1.185765 -1.355
990.765625 2.571632 1.242583 -1.329049
991.6328125 2.591456 1.233253 -1.358203
992.49609375 2.569801 1.275098 -1.294703
993.3515625 2.5687569999999997 1.322934 -1.245823
994.21875 2.608395 1.345068 -1.263327
995.109375 2.741798 1.396797 -1.345001
996.01171875 2.368308 1.195454 -1.172854
996.8515625 2.606508 1.310286 -1.296222
997.67578125 2.725149 1.379133 -1.346016
998.46875 2.7805020000000003 1.482224 -1.298278
999.2421875 2.8201869999999998 1.430187 -1.39
999.9765625 2.862172 1.408687 -1.453485
1000.734375 2.737266 1.358152 -1.379114
1001.5703125 2.660841 1.419005 -1.241836
1002.46484375 2.547429 1.430466 -1.116963
1003.32421875 2.727732 1.446143 -1.281589
1004.171875 2.690258 1.439391 -1.250867
1005.03125 2.447463 1.522625 -0.924838
1005.86328125 2.754585 1.771624 -0.982961
1006.72265625 2.62883 1.63383 -0.995
1007.5234375 2.72106 1.676392 -1.044668
1008.3203125 2.6752640000000003 1.6227 -1.052564
1009.1015625 2.712415 1.656931 -1.055484
1009.88671875 2.6734 1.559158 -1.114242
1010.69140625 2.623908 1.275869 -1.348039
1011.49609375 2.174352 0.981459 -1.192893
1012.28515625 2.6228629999999997 1.106987 -1.515876
1013.02734375 2.651128 1.085868 -1.56526
1013.75390625 2.716551 1.158227 -1.558324
1014.46484375 2.664805 1.188022 -1.476783
1015.20703125 2.624733 1.2 -1.424733
1015.9921875 2.653434 1.233667 -1.419767
1016.78515625 2.6885649999999996 1.192996 -1.495569
1017.5859375 2.748027 1.144875 -1.603152
1018.3984375 2.606992 1.186682 -1.42031
1019.234375 2.7730420000000002 1.239302 -1.53374
1020.01953125 2.7943540000000002 1.389914 -1.40444
1020.8046875 2.845206 1.376417 -1.468789
1021.57421875 2.767744 1.360796 -1.406948
1022.33203125 2.7234249999999998 1.283851 -1.439574
1023.1171875 2.59647 1.25238 -1.34409
1023.91796875 2.588539 1.237636 -1.350903
1024.7421875 2.6001060000000003 1.230162 -1.369944
1025.54296875 2.4157960000000003 0.961608 -1.454188
1026.30859375 2.175668 0.718989 -1.456679
1027.0703125 2.260403 1.511887 -0.748516
1027.84765625 2.483311 1.568311 -0.915
1028.62890625 2.428351 1.643288 -0.785063
1029.421875 2.078007 1.409914 -0.668093
1030.20703125 2.468947 1.652411 -0.816536
1030.984375 2.481274 1.645776 -0.835498
1031.7578125 2.113474 1.348151 -0.765323
1032.51953125 2.447616 1.514995 -0.932621
1033.33203125 2.591692 1.59846 -0.993232
1034.1796875 2.6109340000000003 1.624732 -0.986202
1035.0625 2.71856 1.695714 -1.022846
1035.9609375 2.544024 1.558365 -0.985659
1036.87890625 2.7100400000000002 1.349145 -1.360895
1037.72265625 2.759646 1.379871 -1.379775
1038.55078125 2.81143 1.746073 -1.065357
1039.37109375 2.663344 1.683352 -0.979992
1040.19140625 2.567613 1.634055 -0.933558
1041.0078125 2.6865259999999997 1.296197 -1.390329
1041.796875 2.781367 1.348765 -1.432602
1042.60546875 2.742754 1.344885 -1.397869
1043.41796875 2.7210400000000003 1.390065 -1.330975
1044.25 2.62943 1.745 -0.88443
1045.09375 2.7347010000000003 1.776532 -0.958169
1045.94921875 2.580265 1.567571 -1.012694
1046.82421875 2.399969 1.552032 -0.847937
1047.68359375 2.2614840000000003 1.573755 -0.687729
1048.56640625 2.379621 1.68995 -0.689671
1049.44140625 2.584591 1.824065 -0.760526
1050.28125 2.714764 1.798947 -0.915817
1051.07421875 2.825519 1.692564 -1.132955
1051.84765625 2.779036 1.739036 -1.04
1052.6171875 2.682709 1.75784 -0.924869
1053.421875 2.65555 1.703021 -0.952529
1054.25390625 2.6762240000000004 1.653153 -1.023071
1055.12109375 2.710092 1.652172 -1.05792
1056.00390625 2.652875 1.610428 -1.042447
1056.91796875 2.575985 1.608435 -0.96755
1057.83984375 2.683922 1.680701 -1.003221
1058.6875 2.687157 1.272949 -1.414208
1059.51953125 2.834792 1.745568 -1.089224
1060.36328125 2.8382240000000003 1.770847 -1.067377
1061.2421875 2.644129 1.339129 -1.305
1062.109375 2.6308040000000004 1.340062 -1.290742
1062.9765625 2.644267 1.64861 -0.995657
1063.87890625 2.709277 1.639098 -1.070179
1064.8046875 2.578496 1.56367 -1.014826
1065.734375 2.578404 1.296683 -1.281721
1066.625 2.571641 1.21 -1.361641
1067.4453125 2.636276 1.289488 -1.346788
1068.2578125 2.662381 1.29821 -1.364171
1069.06640625 2.837351 1.764466 -1.072885
1069.9140625 2.714344 1.677944 -1.0364
1070.76171875 2.7643050000000002 1.704462 -1.059843
1071.6484375 2.7749949999999997 1.736738 -1.038257
1072.515625 2.8209090000000003 1.361058 -1.459851
1073.37109375 2.7933779999999997 1.745987 -1.047391
1074.21484375 2.8757710000000003 1.764747 -1.111024
1075.08203125 2.770404 1.685998 -1.084406
1075.9765625 2.811417 1.775454 -1.035963
1076.88671875 2.516388 1.640244 -0.876144
1077.796875 2.459426 1.489915 -0.969511
1078.7265625 2.598426 1.148426 -1.45
1079.6171875 2.7036610000000003 1.24 -1.463661
1080.515625 2.772339 1.618476 -1.153863
1081.40625 2.621131 1.6476 -0.973531
1082.3125 2.511304 1.237372 -1.273932
1083.21875 2.603853 1.258883 -1.34497
1084.12109375 2.485009 1.239528 -1.245481
1085.015625 2.438972 1.236971 -1.202001
1085.8984375 2.640428 1.287852 -1.352576
1086.6875 2.5672620000000004 1.145391 -1.421871
1087.46484375 2.637136 1.215 -1.422136
1088.2421875 2.615628 1.264642 -1.350986
1088.95703125 2.694698 1.304808 -1.38989
1089.6953125 2.658904 1.308904 -1.35
1090.45703125 2.585067 1.228426 -1.356641
1091.28125 2.288965 1.024667 -1.264298
1092.15234375 1.593953 0.529479 -1.064474
1093.0 1.9940419999999999 0.85 -1.144042
1093.8125 2.392797 1.550781 -0.842016
1094.59765625 2.238765 1.453765 -0.785
1095.37109375 2.210542 1.342218 -0.868324
1096.125 2.619496 2.08 -0.539496
1096.87109375 2.511666 1.658779 -0.852887
1097.609375 2.177272 1.530625 -0.646647
1098.3203125 2.609883 1.637572 -0.972311
1098.99609375 3.268788 2.270308 -0.99848
1099.6796875 3.3397449999999997 2.285031 -1.054714
1100.3515625 3.246161 2.166749 -1.079412
1101.015625 3.156968 1.722337 -1.434631
1101.68359375 3.229371 1.659595 -1.569776
1102.34765625 3.229581 1.639581 -1.59
1103.0234375 3.209662 1.568312 -1.64135
1103.671875 3.102979 1.574827 -1.528152
1104.31640625 2.9609389999999998 1.438232 -1.522707
1104.94921875 3.165266 1.54727 -1.617996
1105.5859375 3.012618 1.45478 -1.557838
1106.21484375 3.101772 1.435557 -1.666215
1106.83203125 3.375013 1.480395 -1.894618
1107.4453125 3.334841 1.247452 -2.087389
1108.0390625 3.3434220000000003 1.378565 -1.964857
1108.65234375 3.0221080000000002 1.617732 -1.404376
1109.2734375 3.0448370000000002 1.663264 -1.381573
1109.921875 2.903069 1.569917 -1.333152
1110.5859375 3.185791 1.482635 -1.703156
1111.2578125 2.737731 1.456977 -1.280754
1111.96875 2.622908 1.296618 -1.32629
1112.65234375 2.408549 1.073237 -1.335312
1113.359375 2.466616 1.179269 -1.287347
1114.05859375 2.534754 1.099901 -1.434853
1114.79296875 3.157956 1.470573 -1.687383
1115.55859375 3.200951 1.458631 -1.74232
1116.31640625 2.9592609999999997 1.419123 -1.540138
1117.0546875 3.219251 1.589714 -1.629537
1117.7734375 3.06847 1.485169 -1.583301
1118.4765625 3.176234 1.506234 -1.67
1119.19921875 3.078845 1.364399 -1.714446
1119.9375 2.938448 1.393837 -1.544611
1120.65234375 2.861847 1.225345 -1.636502
1121.34765625 2.9149719999999997 1.436157 -1.478815
1122.02734375 3.1050649999999997 1.698064 -1.407001
1122.67578125 3.085734 1.581027 -1.504707
1123.33203125 3.196413 1.568696 -1.627717
1124.015625 3.0575039999999998 1.406411 -1.651093
1124.7265625 2.9772 1.324005 -1.653195
1125.453125 3.081117 1.256128 -1.824989
1126.18359375 3.217817 1.303177 -1.91464
1126.9375 3.181412 1.299439 -1.881973
1127.7109375 3.236941 1.234634 -2.002307
1128.4609375 3.035633 1.399296 -1.636337
1129.2109375 2.94489 1.282645 -1.662245
1129.95703125 2.9646489999999996 1.274665 -1.689984
1130.63671875 2.832034 1.090422 -1.741612
1131.3125 3.042168 1.277895 -1.764273
1131.9375 3.197101 1.320395 -1.876706
1132.578125 3.300198 1.528966 -1.771232
1133.203125 3.1962979999999996 1.407708 -1.78859
1133.828125 3.208101 1.473171 -1.73493
1134.46484375 3.158103 1.464001 -1.694102
1135.1328125 3.201173 1.374819 -1.826354
1135.8203125 3.286676 1.548472 -1.738204
1136.5390625 3.444819 1.676132 -1.768687
1137.26171875 3.47901 2.206132 -1.272878
1138.0546875 3.2288379999999997 2.039484 -1.189354
1138.8359375 3.290976 2.074599 -1.216377
1139.58203125 3.4003189999999996 2.10396 -1.296359
1140.328125 3.348135 1.998171 -1.349964
1141.046875 3.336984 1.983471 -1.353513
1141.76953125 3.354894 1.999976 -1.354918
1142.49609375 3.229805 1.997209 -1.232596
1143.19921875 2.789668 1.825662 -0.964006
1143.90625 3.276758 2.042002 -1.234756
1144.6015625 3.4494979999999997 2.167629 -1.281869
1145.30859375 3.3330219999999997 2.042627 -1.290395
1146.03125 3.2689390000000005 2.042133 -1.226806
1146.7734375 3.297101 2.151539 -1.145562
1147.5078125 3.387595 2.201302 -1.186293
1148.25390625 3.3976809999999995 2.163607 -1.234074
1149.00390625 3.238372 2.124707 -1.113665
1149.734375 3.4466859999999997 2.242991 -1.203695
1150.46875 2.9507950000000003 1.546179 -1.404616
1151.203125 3.3815 2.229735 -1.151765
1151.91015625 3.34724 2.173328 -1.173912
1152.60546875 3.630039 2.084976 -1.545063
1153.265625 3.618399 1.817805 -1.800594
1153.94921875 3.269152 1.176498 -2.092654
1154.6328125 3.080916 1.455122 -1.625794
1155.31640625 3.258203 1.483212 -1.774991
1156.0078125 3.000438 1.401934 -1.598504
1156.69921875 2.761511 1.807299 -0.954212
1157.375 2.782695 1.9 -0.882695
1158.05859375 2.534201 1.734298 -0.799903
1158.73828125 2.670243 1.35042 -1.319823
1159.4296875 2.635873 1.268851 -1.367022
1160.1640625 2.588953 1.209842 -1.379111
1160.890625 2.2033110000000002 0.938355 -1.264956
1161.609375 2.587034 1.203464 -1.38357
1162.31640625 2.492545 1.128918 -1.363627
1163.0 2.161694 0.82 -1.341694
1163.671875 2.579022 1.199819 -1.379203
1164.34765625 2.9590870000000002 1.342756 -1.616331
1165.0390625 3.0893829999999998 1.289383 -1.8
1165.71875 2.995489 1.496167 -1.499322
1166.39453125 3.2209820000000002 1.511063 -1.709919
1167.09375 3.180243 1.481948 -1.698295
1167.796875 3.215077 1.407113 -1.807964
1168.50390625 3.2644789999999997 1.365 -1.899479
1169.23046875 3.470815 2.155 -1.315815
1169.94921875 3.409814 2.044723 -1.365091
1170.67578125 3.4473019999999996 2.556593 -0.890709
1171.36328125 3.241393 2.382216 -0.859177
1172.08203125 3.461955 2.382118 -1.079837
1172.77734375 3.1658120000000003 2.095 -1.070812
1173.453125 3.084828 2.029916 -1.054912
1174.14453125 3.090917 1.516267 -1.57465
1174.8203125 2.813398 1.472168 -1.34123
1175.4765625 3.1007860000000003 1.53431 -1.566476
1176.12890625 3.238703 1.48422 -1.754483
1176.77734375 3.048076 1.41987 -1.628206
1177.4296875 2.89431 1.274243 -1.620067
1178.09765625 2.895663 1.324977 -1.570686
1178.78515625 2.79981 1.053776 -1.746034
1179.48046875 2.868189 1.149988 -1.718201
1180.15625 3.3017469999999998 0.603942 -2.697805
1180.84375 3.5580789999999998 0.522264 -3.035815
1181.546875 3.474772 0.952087 -2.522685
1182.25 3.418394 1.105 -2.313394
1182.97265625 3.3595990000000002 1.714599 -1.645
1183.74609375 2.903283 2.332233 -0.57105
1184.515625 3.062468 1.867586 -1.194882
1185.28515625 3.0051379999999996 1.911797 -1.093341
1186.046875 3.013805 1.587758 -1.426047
1186.8046875 2.9657869999999997 1.63755 -1.328237
1187.58203125 2.958603 1.53847 -1.420133
1188.328125 2.922173 1.462184 -1.459989
1189.08984375 3.058268 1.445842 -1.612426
1189.875 2.8663410000000002 1.335 -1.531341
1190.63671875 2.88503 1.37186 -1.51317
1191.390625 2.8083460000000002 1.475413 -1.332933
1192.171875 3.064504 1.529617 -1.534887
1192.9296875 3.006482 1.556943 -1.449539
1193.68359375 2.8430989999999996 1.459307 -1.383792
1194.44140625 3.077293 1.555 -1.522293
1195.16015625 3.070732 1.49114 -1.579592
1195.9296875 3.0875570000000003 2.062186 -1.025371
1196.6953125 3.3416629999999996 2.189421 -1.152242
1197.453125 3.158085 2.058157 -1.099928
1198.2265625 3.363473 2.198473 -1.165
1198.95703125 3.2647079999999997 2.09963 -1.165078
1199.6953125 2.888826 1.446103 -1.442723
1200.44921875 2.775321 1.328068 -1.447253
1201.203125 3.0996129999999997 1.318593 -1.78102
1201.984375 3.014016 1.322635 -1.691381
1202.76953125 2.963341 1.186084 -1.777257
1203.5546875 2.8653329999999997 1.341019 -1.524314
1204.34375 2.7654360000000002 1.275986 -1.48945
1205.171875 2.856072 1.226532 -1.62954
1205.953125 3.001493 1.353803 -1.64769
1206.73046875 2.713029 1.274869 -1.43816
1207.53125 2.897764 1.439725 -1.458039
1208.3671875 2.6443250000000003 1.349601 -1.294724
1209.21484375 2.744529 1.37438 -1.370149
1210.08984375 3.012462 1.654775 -1.357687
1210.9375 3.010867 1.696596 -1.314271
1211.75390625 3.1097609999999998 1.721287 -1.388474
1212.578125 2.996995 1.58 -1.416995
1213.36328125 3.1161250000000003 1.392955 -1.72317
1214.15625 3.049814 1.181543 -1.868271
1214.96875 3.052085 1.160518 -1.891567
1215.7890625 2.876696 1.179788 -1.696908
1216.6171875 2.892067 1.143196 -1.748871
1217.453125 3.011924 1.218055 -1.793869
1218.31640625 2.950628 1.264447 -1.686181
1219.1875 2.895905 1.239295 -1.65661
1220.02734375 2.9218840000000004 1.196519 -1.725365
1220.87109375 2.88471 1.323067 -1.561643
1221.72265625 2.8358369999999997 1.273375 -1.562462
1222.5390625 2.459603 1.059929 -1.399674
1223.37109375 2.215436 0.993742 -1.221694
1224.21484375 2.208489 1.027764 -1.180725
1225.05859375 2.603666 1.108458 -1.495208
1225.87109375 2.5407219999999997 1.110029 -1.430693
1226.69140625 2.164619 0.924766 -1.239853
1227.51953125 2.436181 1.039914 -1.396267
1228.33203125 2.20184 1.033291 -1.168549
1229.1171875 2.285733 1.105807 -1.179926
1229.88671875 2.716498 1.38703 -1.329468
1230.6328125 2.96258 1.450122 -1.512458
1231.390625 2.984393 1.345021 -1.639372
1232.16015625 2.78568 1.323157 -1.462523
1232.94921875 3.0955440000000003 1.43405 -1.661494
1233.734375 3.093421 1.390003 -1.703418
1234.53515625 2.966722 1.42824 -1.538482
1235.359375 3.0878699999999997 1.42427 -1.6636
1236.1953125 2.92006 1.451466 -1.468594
1237.0390625 2.962491 1.336619 -1.625872
1237.859375 3.103598 1.341683 -1.761915
1238.69140625 3.079878 1.408763 -1.671115
1239.4765625 3.026663 1.361663 -1.665
1240.25 3.0950249999999997 1.565 -1.530025
1241.01953125 3.203655 1.549769 -1.653886
1241.796875 2.990812 1.468625 -1.522187
1242.58203125 3.028983 1.454179 -1.574804
1243.390625 2.783506 1.213741 -1.569765
1244.21875 2.669961 1.174961 -1.495
1245.06640625 2.52318 1.110861 -1.412319
1245.9140625 2.814332 1.199979 -1.614353
1246.75390625 2.916606 1.326202 -1.590404
1247.59375 2.910278 1.232356 -1.677922
1248.39453125 2.9800329999999997 1.2689 -1.711133
1249.18359375 2.971709 1.35 -1.621709
1249.9921875 2.8981589999999997 1.454615 -1.443544
1250.83984375 3.042402 1.470951 -1.571451
1251.65234375 3.043102 1.432432 -1.61067
1252.4765625 2.997461 1.571132 -1.426329
1253.328125 2.81553 1.424422 -1.391108
1254.20703125 3.198105 1.573321 -1.624784
1255.078125 2.97324 1.443394 -1.529846
1255.9765625 3.0551009999999996 1.510101 -1.545
1256.875 3.093325 1.43 -1.663325
1257.75 3.2547639999999998 1.53 -1.724764
1258.58984375 3.198983 1.444937 -1.754046
1259.45703125 3.103422 1.448798 -1.654624
1260.31640625 3.257743 1.553401 -1.704342
1261.12109375 3.095763 1.634639 -1.461124
1261.9140625 3.328956 1.809084 -1.519872
1262.7421875 3.397111 1.730568 -1.666543
1263.50390625 3.477693 1.712565 -1.765128
1264.26953125 3.3796790000000003 1.656096 -1.723583
1265.05078125 3.2876149999999997 1.761324 -1.526291
1265.80859375 3.324325 1.482894 -1.841431
1266.51171875 3.012097 1.292253 -1.719844
1267.19140625 3.0492559999999997 1.533642 -1.515614
1267.88671875 3.360807 1.836812 -1.523995
1268.6171875 3.172389 1.780049 -1.39234
1269.3828125 3.267346 1.708014 -1.559332
1270.17578125 3.1276010000000003 1.625 -1.502601
1270.96875 3.0765469999999997 1.551731 -1.524816
1271.76953125 3.008101 1.479976 -1.528125
1272.58984375 3.0040139999999997 1.439856 -1.564158
1273.40234375 2.793228 1.354557 -1.438671
1274.16796875 2.8043240000000003 1.33509 -1.469234
1274.890625 2.866243 1.365333 -1.50091
1275.62109375 3.104725 1.354956 -1.749769
1276.34765625 3.087061 1.492716 -1.594345
1277.09375 2.957705 1.295243 -1.662462
1277.8515625 3.220376 1.587596 -1.63278
1278.57421875 2.971918 1.491635 -1.480283
1279.3359375 2.934131 1.404248 -1.529883
1280.078125 3.083748 1.491191 -1.592557
1280.84375 3.0991210000000002 1.377211 -1.72191
1281.64453125 2.929411 1.348935 -1.580476
1282.45703125 3.168527 1.273858 -1.894669
1283.28125 3.090039 1.296325 -1.793714
1284.07421875 3.1136920000000003 1.29031 -1.823382
1284.85546875 2.9304829999999997 1.365584 -1.564899
1285.6328125 3.1354439999999997 1.531887 -1.603557
1286.44921875 3.000281 1.476898 -1.523383
1287.2578125 2.9483699999999997 1.41837 -1.53
1288.05859375 3.0098000000000003 1.459533 -1.550267
1288.8671875 2.537741 1.298004 -1.239737
1289.70703125 2.2278969999999996 1.157949 -1.069948
1290.49609375 2.570697 1.355862 -1.214835
1291.2890625 2.585007 1.37472 -1.210287
1292.06640625 2.402396 1.234396 -1.168
1292.80859375 2.3132279999999996 1.164524 -1.148704
1293.53125 2.560857 1.247126 -1.313731
1294.25 2.25278 1.135 -1.11778
1295.01953125 2.4523330000000003 1.239532 -1.212801
1295.82421875 2.851562 1.339338 -1.512224
1296.6171875 3.083627 1.453933 -1.629694
1297.44921875 3.096218 1.477102 -1.619116
1298.30859375 3.049152 1.48467 -1.564482
1299.1328125 3.1249390000000004 1.471977 -1.652962
1299.9453125 2.9789149999999998 1.369622 -1.609293
1300.7578125 2.93106 1.397901 -1.533159
1301.53515625 3.0447509999999998 1.420714 -1.624037
1302.28515625 2.987802 1.357802 -1.63
1303.02734375 2.93881 1.355406 -1.583404
1303.75390625 2.919046 1.275 -1.644046
1304.51171875 3.045773 1.454132 -1.591641
1305.2890625 2.925414 1.494979 -1.430435
1306.08203125 3.148267 1.494836 -1.653431
1306.8359375 2.968798 1.539425 -1.429373
1307.625 2.824593 1.37 -1.454593
1308.42578125 2.97731 1.36214 -1.61517
1309.203125 2.741213 1.199631 -1.541582
1310.01171875 2.616256 1.174909 -1.441347
1310.828125 2.4325650000000003 1.184039 -1.248526
1311.65234375 2.594341 1.327183 -1.267158
1312.4453125 2.902661 1.39367 -1.508991
1313.2578125 2.92742 1.456908 -1.470512
1314.06640625 2.959091 1.543391 -1.4157
1314.87109375 2.918517 1.478548 -1.439969
1315.64453125 2.9149089999999998 1.41557 -1.499339
1316.43359375 2.93145 1.465861 -1.465589
1317.23046875 2.782045 1.414961 -1.367084
1317.9921875 2.892581 1.374166 -1.518415
1318.734375 2.907469 1.324342 -1.583127
1319.47265625 3.077743 1.39643 -1.681313
1320.1796875 2.961569 1.36329 -1.598279
1320.91796875 3.023844 1.305151 -1.718693
1321.66796875 2.882377 1.301376 -1.581001
1322.453125 2.9740510000000002 1.307843 -1.666208
1323.26953125 3.060434 1.476302 -1.584132
1324.08984375 3.001328 1.402236 -1.599092
1324.890625 3.1027560000000003 1.418511 -1.684245
1325.671875 3.099079 1.473262 -1.625817
1326.47265625 3.16676 1.607271 -1.559489
1327.25 3.194585 1.54 -1.654585
1328.0234375 3.1502470000000002 1.525334 -1.624913
1328.8125 3.196489 1.537357 -1.659132
1329.5859375 3.236309 1.479401 -1.756908
1330.36328125 3.023958 1.437246 -1.586712
1331.13671875 3.149363 1.515383 -1.63398
1331.9140625 3.010863 1.386123 -1.62474
1332.69140625 2.949592 1.518884 -1.430708
1333.4609375 3.085565 1.457741 -1.627824
1334.234375 3.0387709999999997 1.481696 -1.557075
1335.03125 3.101458 1.508917 -1.592541
1335.8359375 2.944669 1.415588 -1.529081
1336.640625 3.0677659999999998 1.463 -1.604766
1337.44140625 3.092826 1.494953 -1.597873
1338.23046875 3.0242240000000002 1.354803 -1.669421
1339.0 3.0668629999999997 1.39 -1.676863
1339.74609375 2.859579 1.319267 -1.540312
1340.5 2.392409 1.11 -1.282409
1341.26171875 2.970013 1.378558 -1.591455
1341.9921875 2.959948 1.295057 -1.664891
1342.72265625 3.2298999999999998 1.331618 -1.898282
1343.4921875 3.029311 1.296563 -1.732748
1344.30859375 2.9683729999999997 1.343308 -1.625065
1345.12109375 2.910958 1.290174 -1.620784
1345.95703125 2.867423 1.308846 -1.558577
1346.80078125 2.997122 1.384586 -1.612536
1347.62109375 2.8710069999999996 1.342064 -1.528943
1348.44140625 2.778104 1.279953 -1.498151
1349.21484375 2.931006 1.364095 -1.566911
1349.9765625 2.97217 1.435 -1.53717
1350.703125 3.009964 1.445 -1.564964
1351.4453125 2.9826870000000003 1.489459 -1.493228
1352.19140625 3.110113 1.47959 -1.630523
1352.921875 2.901867 1.333727 -1.56814
1353.66796875 2.6938079999999998 1.195199 -1.498609
1354.3984375 2.30382 1.12 -1.18382
1355.16015625 1.9692530000000001 0.990569 -0.978684
1355.95703125 2.422802 1.075786 -1.347016
1356.75390625 2.537809 1.09096 -1.446849
1357.5546875 2.394032 1.129209 -1.264823
1358.36328125 2.247681 0.888084 -1.359597
1359.17578125 2.3623969999999996 0.995161 -1.367236
1359.9609375 2.224119 0.971123 -1.252996
1360.734375 2.361694 0.973591 -1.388103
1361.46875 2.798109 1.207082 -1.591027
1362.21484375 2.957881 1.304468 -1.653413
1362.96484375 2.8373169999999996 1.198861 -1.638456
1363.74609375 2.858108 1.183303 -1.674805
1364.51953125 3.049616 1.354968 -1.694648
1365.29296875 2.9373630000000004 1.239238 -1.698125
1366.09765625 2.8738900000000003 1.343685 -1.530205
1366.88671875 2.9275510000000002 1.439478 -1.488073
1367.6875 2.910161 1.338711 -1.57145
1368.4921875 2.834967 1.401483 -1.433484
1369.2734375 2.87408 1.458791 -1.415289
1370.05078125 3.032837 1.33323 -1.699607
1370.8203125 3.1842120000000005 1.112481 -2.071731
1371.56640625 2.9548620000000003 1.564292 -1.39057
1372.31640625 3.05875 1.358866 -1.699884
1373.1015625 3.134474 1.336313 -1.798161
1373.9296875 2.765973 1.227582 -1.538391
1374.703125 2.827126 1.137142 -1.689984
1375.49609375 2.592515 0.922805 -1.66971
1376.26953125 2.286087 1.019953 -1.266134
1377.07421875 2.314055 0.913738 -1.400317
1377.890625 2.9526139999999996 1.259423 -1.693191
1378.74609375 3.034069 1.164265 -1.869804
1379.55859375 3.049145 1.239849 -1.809296
1380.37890625 3.0634319999999997 1.288214 -1.775218
1381.15625 2.951597 1.214933 -1.736664
1381.9375 3.1807160000000003 1.3625 -1.818216
1382.703125 3.159363 1.404405 -1.754958
1383.4375 3.003979 1.344719 -1.65926
1384.1953125 3.001263 1.322159 -1.679104
1384.96484375 2.959861 1.355405 -1.604456
1385.76171875 3.129992 1.33955 -1.790442
1386.5859375 2.936693 1.391693 -1.545
1387.41015625 2.970598 1.357458 -1.61314
1388.19921875 3.270684 1.477592 -1.793092
1389.03125 3.0393179999999997 1.497129 -1.542189
1389.87109375 2.9373940000000003 1.444528 -1.492866
1390.703125 3.0691420000000003 1.381629 -1.687513
1391.51953125 3.018568 1.364889 -1.653679
1392.3203125 2.853132 1.249301 -1.603831
1393.09375 3.004913 1.170138 -1.834775
1393.8515625 2.8566380000000002 1.251638 -1.605
1394.6171875 3.103672 1.423672 -1.68
1395.37890625 3.084144 1.394594 -1.68955
1396.09765625 3.240067 1.359431 -1.880636
1396.81640625 2.995883 1.308111 -1.687772
1397.5234375 3.260092 1.350634 -1.909458
1398.2265625 3.285418 1.415418 -1.87
1398.94921875 3.357375 1.506788 -1.850587
1399.6953125 3.1261200000000002 1.485 -1.64112
1400.46484375 3.162593 1.453622 -1.708971
1401.22265625 3.114027 1.409027 -1.705
1401.9609375 3.185375 1.262656 -1.922719
1402.6796875 3.207827 1.395554 -1.812273
1403.4296875 3.2503149999999996 1.491207 -1.759108
1404.15234375 3.1454310000000003 1.390314 -1.755117
1404.8671875 3.100804 1.398103 -1.702701
1405.5859375 3.0976109999999997 1.498524 -1.599087
1406.29296875 3.135134 1.497065 -1.638069
1406.98046875 3.024775 1.419816 -1.604959
1407.69140625 3.037247 1.573401 -1.463846
1408.41015625 3.22892 1.525562 -1.703358
1409.12109375 3.01 1.19 -1.82
1409.8203125 2.897391 1.932773 -0.964618
1410.5234375 3.0141020000000003 1.878373 -1.135729
1411.22265625 2.689955 1.46786 -1.222095
1411.90234375 2.916187 1.850216 -1.065971
1412.578125 2.886979 1.411979 -1.475
1413.2421875 3.034227 1.34439 -1.689837
1413.8984375 2.961135 1.712045 -1.24909
1414.546875 2.950605 1.828716 -1.121889
1415.203125 2.793899 1.81783 -0.976069
1415.87109375 3.079361 1.923219 -1.156142
1416.56640625 3.128146 1.90381 -1.224336
1417.26171875 3.049305 1.764459 -1.284846
1417.984375 3.095935 1.625877 -1.470058
1418.69921875 2.912741 1.603624 -1.309117
1419.3828125 3.072787 1.726618 -1.346169
1420.06640625 2.5610809999999997 1.564701 -0.99638
1420.75390625 2.307916 1.471994 -0.835922
1421.4375 2.042146 1.087548 -0.954598
1422.140625 2.3434980000000003 1.236841 -1.106657
1422.83984375 2.510268 1.242717 -1.267551
1423.55078125 2.3327150000000003 1.097715 -1.235
1424.23828125 2.2990399999999998 1.103549 -1.195491
1424.9453125 2.389217 1.482017 -0.9072
1425.68359375 2.460112 1.603982 -0.85613
1426.4453125 2.1313079999999998 1.527245 -0.604063
1427.21875 2.878107 1.907915 -0.970192
1427.98828125 2.835375 1.866865 -0.96851
1428.7890625 2.749549 1.84487 -0.904679
1429.609375 2.9159439999999996 1.892054 -1.02389
1430.41015625 2.927959 1.852582 -1.075377
1431.25 2.858802 1.78 -1.078802
1432.109375 2.821255 1.757947 -1.063308
1432.953125 2.7081910000000002 1.324526 -1.383665
1433.7890625 2.797903 1.744754 -1.053149
1434.65234375 2.881162 1.838462 -1.0427
1435.4921875 2.9680489999999997 1.888123 -1.079926
1436.33203125 3.088025 1.96705 -1.120975
1437.16796875 3.087921 2.016687 -1.071234
1437.984375 2.9717529999999996 1.634744 -1.337009
1438.75 2.91256 1.775 -1.13756
1439.5390625 3.1314189999999997 2.319736 -0.811683
1440.3203125 2.7849950000000003 1.775681 -1.009314
1441.0546875 2.921595 1.677675 -1.24392
1441.7734375 2.715265 1.726665 -0.9886
1442.48046875 2.544992 1.759943 -0.785049
1443.21484375 2.5901810000000003 1.940411 -0.64977
1443.984375 3.06292 2.16585 -0.89707
1444.78515625 3.283906 2.077103 -1.206803
1445.5703125 3.042693 1.889209 -1.153484
1446.37890625 3.0526099999999996 1.88 -1.17261
1447.1953125 3.132111 1.965119 -1.166992
1447.99609375 2.961995 1.958948 -1.003047
1448.85546875 3.0386940000000005 2.039982 -0.998712
1449.73828125 2.997681 1.968829 -1.028852
1450.62890625 2.806794 1.542158 -1.264636
1451.50390625 2.938571 1.400336 -1.538235
1452.3671875 2.95581 1.356062 -1.599748
1453.23046875 2.9370979999999998 1.384831 -1.552267
1454.12890625 2.753539 1.570848 -1.182691
1454.953125 2.7621149999999997 1.417212 -1.344903
1455.7578125 2.957026 1.684699 -1.272327
1456.5390625 2.94827 1.408511 -1.539759
1457.3125 3.0375490000000003 1.303099 -1.73445
1458.11328125 2.746288 1.439443 -1.306845
1458.88671875 2.712153 1.606073 -1.10608
1459.62890625 2.849446 1.39 -1.459446
1460.34765625 2.6395619999999997 1.524562 -1.115
1461.05859375 2.7395240000000003 1.539647 -1.199877
1461.765625 2.714585 1.735593 -0.978992
1462.45703125 2.509365 1.404552 -1.104813
1463.140625 2.7807329999999997 1.66875 -1.111983
1463.84765625 2.938936 1.763936 -1.175
1464.52734375 3.025342 1.713998 -1.311344
1465.2265625 2.986954 1.662596 -1.324358
1465.94140625 3.065894 1.77396 -1.291934
1466.66015625 2.960765 1.762465 -1.1983
1467.41015625 3.071593 1.792544 -1.279049
1468.1484375 3.0777330000000003 1.801806 -1.275927
1468.921875 2.9431830000000003 1.651018 -1.292165
1469.69921875 2.736761 1.397917 -1.338844
1470.4921875 3.155817 1.902682 -1.253135
1471.23046875 3.247976 1.96991 -1.278066
1471.96484375 3.086033 1.958831 -1.127202
1472.703125 3.298985 2.194159 -1.104826
1473.4140625 3.433433 2.159549 -1.273884
1474.14453125 3.18867 2.089214 -1.099456
1474.8515625 3.3122420000000004 2.253007 -1.059235
1475.58203125 3.673418 2.598608 -1.07481
1476.33984375 3.412307 2.452369 -0.959938
1477.0859375 3.27267 2.279771 -0.992899
1477.8203125 3.1702 2.077578 -1.092622
1478.55078125 3.0791560000000002 2.033617 -1.045539
1479.26171875 3.49993 2.020316 -1.479614
1479.98046875 3.385299 2.049995 -1.335304
1480.7265625 3.2675680000000003 2.112042 -1.155526
1481.5078125 3.206466 2.181653 -1.024813
1482.28515625 3.420836 2.412836 -1.008
1483.05859375 3.036087 2.193404 -0.842683
1483.80078125 3.525605 2.318649 -1.206956
1484.5390625 3.1894159999999996 1.984684 -1.204732
1485.29296875 2.959504 1.741476 -1.218028
1486.02734375 2.77008 1.659868 -1.110212
1486.75390625 3.145108 1.965 -1.180108
1487.46875 2.96051 1.971563 -0.988947
1488.21484375 2.981728 1.940466 -1.041262
1489.0234375 3.0675369999999997 1.989526 -1.078011
1489.8515625 3.0449149999999996 2.006725 -1.03819
1490.63671875 2.821278 1.899611 -0.921667
1491.4296875 2.904435 1.933396 -0.971039
1492.25 2.7199999999999998 1.895 -0.825
1493.04296875 3.2925250000000004 2.219406 -1.073119
1493.8203125 3.442853 2.330882 -1.111971
1494.60546875 3.0164299999999997 1.99 -1.02643
1495.375 3.0393660000000002 2.095 -0.944366
1496.15625 3.226253 2.117733 -1.10852
1496.9296875 3.166282 2.035 -1.131282
1497.6953125 2.9179019999999998 1.734638 -1.183264
1498.42578125 2.726781 1.513187 -1.213594
1499.1875 2.994827 1.747283 -1.247544
1499.93359375 2.759684 1.674779 -1.084905
1500.6640625 2.700723 1.716115 -0.984608
1501.390625 2.909773 1.69115 -1.218623
1502.12109375 3.029169 1.754169 -1.275
1502.87109375 2.842003 1.675168 -1.166835
1503.6640625 2.8133790000000003 1.639591 -1.173788
1504.453125 2.873715 1.758781 -1.114934
1505.234375 2.885481 1.700898 -1.184583
1506.015625 2.806552 1.721532 -1.08502
1506.80859375 2.5869429999999998 1.527334 -1.059609
1507.57421875 2.4529449999999997 1.505 -0.947945
1508.33203125 2.245429 1.296086 -0.949343
1509.0859375 2.498405 1.629665 -0.86874
1509.81640625 2.9203289999999997 1.883872 -1.036457
1510.56640625 2.890948 1.85406 -1.036888
1511.3359375 2.877476 1.774496 -1.10298
1512.16015625 2.704323 1.603562 -1.100761
1513.0078125 2.696116 1.573578 -1.122538
1513.86328125 2.600537 1.53031 -1.070227
1514.69140625 2.997607 1.793232 -1.204375
1515.50390625 3.1656329999999997 2.011399 -1.154234
1516.265625 3.558579 2.335417 -1.223162
1517.015625 3.5062430000000004 2.405921 -1.100322
1517.75390625 3.5486 2.423352 -1.125248
1518.51171875 3.288954 2.164475 -1.124479
1519.2890625 3.294311 2.419826 -0.874485
1520.08203125 3.509378 2.445498 -1.06388
1520.9140625 3.5730969999999997 2.494179 -1.078918
1521.78125 3.148533 1.991574 -1.156959
1522.640625 3.5303259999999996 2.299733 -1.230593
1523.44140625 3.274213 2.069108 -1.205105
1524.2421875 3.06343 1.918942 -1.144488
1525.03515625 3.3903600000000003 2.160921 -1.229439
1525.7890625 3.100654 2.144793 -0.955861
1526.52734375 3.246798 2.173988 -1.07281
1527.24609375 3.55411 2.407255 -1.146855
1527.9375 3.390191 2.322182 -1.068009
1528.62890625 3.4136919999999997 2.323231 -1.090461
1529.3359375 3.3955729999999997 2.234202 -1.161371
1530.10546875 3.2337759999999998 2.104864 -1.128912
1530.88671875 3.447082 2.273558 -1.173524
1531.65234375 3.248024 2.161507 -1.086517
1532.40625 3.429892 2.377266 -1.052626
1533.171875 3.527008 2.48 -1.047008
1533.93359375 3.61724 2.419548 -1.197692
1534.70703125 3.2872960000000004 2.080522 -1.206774
1535.5078125 3.067605 1.904812 -1.162793
1536.296875 3.3511810000000004 2.053669 -1.297512
1537.0546875 3.280454 2.021072 -1.259382
1537.80859375 2.9472490000000002 1.814535 -1.132714
1538.5703125 2.6272 1.576226 -1.050974
1539.328125 3.062824 1.888176 -1.174648
1540.08203125 2.946369 1.876942 -1.069427
1540.828125 3.1056619999999997 1.957075 -1.148587
1541.56640625 2.939349 1.788826 -1.150523
1542.3125 3.241784 2.182889 -1.058895
1543.05078125 3.175085 2.093351 -1.081734
1543.8046875 2.9994129999999997 1.855352 -1.144061
1544.58984375 2.8417630000000003 1.779713 -1.06205
1545.37109375 3.143167 2.013249 -1.129918
1546.140625 2.997327 1.913476 -1.083851
1546.92578125 2.8304859999999996 1.715874 -1.114612
1547.73828125 2.887772 1.8022 -1.085572
1548.54296875 3.193866 2.033737 -1.160129
1549.34765625 3.072965 1.927965 -1.145
1550.15625 2.752598 1.684318 -1.06828
1550.9609375 2.94828 1.854812 -1.093468
1551.79296875 2.695131 1.700476 -0.994655
1552.62890625 2.3865879999999997 1.519952 -0.866636
1553.5 2.305072 1.69 -0.615072
1554.3359375 2.6901089999999996 1.749348 -0.940761
1555.15234375 2.850873 1.862733 -0.98814
1555.9453125 2.735029 1.789118 -0.945911
1556.7578125 2.622779 1.717402 -0.905377
1557.59765625 2.620401 1.681172 -0.939229
1558.44921875 2.433617 1.535662 -0.897955
1559.32421875 2.798088 1.908088 -0.89
1560.16796875 2.896532 1.756423 -1.140109
1560.9921875 3.4382840000000003 2.238284 -1.2
1561.7578125 3.091106 1.963866 -1.12724
1562.4921875 3.195446 1.656062 -1.539384
1563.1953125 3.026033 1.355094 -1.670939
1563.8515625 2.9649020000000004 1.106216 -1.858686
1564.50390625 3.126906 1.687769 -1.439137
1565.140625 3.072185 1.770765 -1.30142
1565.796875 3.234086 1.718908 -1.515178
1566.46875 3.139086 1.869672 -1.269414
1567.1484375 3.0337449999999997 1.72 -1.313745
1567.859375 2.9785589999999997 1.613934 -1.364625
1568.55859375 2.92998 1.5 -1.42998
1569.28125 2.961271 1.613 -1.348271
1570.015625 2.8468169999999997 1.417619 -1.429198
1570.734375 2.81417 1.447352 -1.366818
1571.4296875 2.830616 1.267595 -1.563021
1572.10546875 2.640347 1.099974 -1.540373
1572.75390625 2.466889 1.059707 -1.407182
1573.40625 2.192185 0.927936 -1.264249
1574.06640625 2.33879 0.928951 -1.409839
1574.75390625 2.2364100000000002 1.043873 -1.192537
1575.4609375 2.618105 1.634925 -0.98318
1576.16796875 2.9939340000000003 1.761376 -1.232558
1576.921875 2.982091 1.86 -1.122091
1577.69140625 2.916187 1.833951 -1.082236
1578.49609375 2.949815 1.853163 -1.096652
1579.296875 3.4457340000000003 2.349375 -1.096359
1580.12109375 3.1463520000000003 1.965672 -1.18068
1580.953125 2.979076 1.733781 -1.245295
1581.73046875 3.044053 1.839853 -1.2042
1582.515625 2.741366 1.557608 -1.183758
1583.29296875 3.009207 1.775948 -1.233259
1584.05078125 2.7740229999999997 1.629376 -1.144647
1584.80859375 2.784716 1.973189 -0.811527
1585.54296875 3.036265 2.20743 -0.828835
1586.26171875 3.057577 1.907216 -1.150361
1586.9609375 3.1488039999999997 2.074956 -1.073848
1587.66796875 3.122098 2.141456 -0.980642
1588.375 3.3086279999999997 2.195 -1.113628
1589.1015625 3.149236 2.014236 -1.135
1589.859375 3.205285 2.029534 -1.175751
1590.6015625 3.210875 2.138913 -1.071962
1591.375 3.1617179999999996 2.09 -1.071718
1592.13671875 2.734365 1.765022 -0.969343
1592.9453125 3.08375 2.022711 -1.061039
1593.7421875 3.244625 2.149814 -1.094811
1594.5234375 3.254469 2.154883 -1.099586
1595.28515625 3.1486549999999998 2.04303 -1.105625
1596.046875 3.4266500000000004 2.231977 -1.194673
1596.80078125 3.180752 1.975342 -1.20541
1597.53515625 3.268098 2.053314 -1.214784
1598.28125 3.259301 2.119633 -1.139668
1599.0 3.079227 2.04 -1.039227
1599.7109375 3.002665 1.999393 -1.003272
1600.43359375 3.256453 2.094275 -1.162178
1601.15625 3.120451 2.007141 -1.11331
1601.890625 2.856058 1.825419 -1.030639
1602.6484375 2.960009 1.84282 -1.117189
1603.37109375 3.1052609999999996 1.959137 -1.146124
1604.09375 2.6872100000000003 1.558632 -1.128578
1604.80859375 2.914755 1.7449 -1.169855
1605.51171875 2.984426 1.379688 -1.604738
1606.2265625 2.960991 1.410991 -1.55
1606.92578125 2.8918299999999997 1.291246 -1.600584
1607.6328125 2.838972 1.331214 -1.507758
1608.34375 2.884848 1.246126 -1.638722
1609.05078125 2.751524 1.249592 -1.501932
1609.75 2.780762 1.3 -1.480762
1610.44921875 2.868842 1.413984 -1.454858
1611.16015625 2.81235 1.427938 -1.384412
1611.8828125 2.7950720000000002 1.483239 -1.311833
1612.6015625 2.7781320000000003 1.528132 -1.25
1613.3125 2.768672 1.395841 -1.372831
1614.04296875 2.887404 1.605356 -1.282048
1614.765625 2.7585300000000004 1.574505 -1.184025
1615.48046875 2.7891630000000003 1.414975 -1.374188
1616.20703125 2.795114 1.240312 -1.554802
1616.9140625 2.8395029999999997 1.320579 -1.518924
1617.61328125 2.745879 1.119747 -1.626132
1618.30859375 2.564482 0.934953 -1.629529
1618.98828125 2.423256 1.034447 -1.388809
1619.66796875 2.2521269999999998 0.915889 -1.336238
1620.3671875 2.273733 1.038905 -1.234828
1621.05859375 2.386011 0.914654 -1.471357
1621.7421875 2.446204 0.901786 -1.544418
1622.41015625 2.400583 0.860583 -1.54
1623.08203125 2.472543 0.952811 -1.519732
1623.75390625 2.525721 0.827472 -1.698249
1624.42578125 2.419678 0.76643 -1.653248
1625.1171875 2.5098320000000003 0.83609 -1.673742
1625.8125 2.720907 1.112647 -1.60826
1626.52734375 2.7476510000000003 1.159036 -1.588615
1627.22265625 2.6813900000000004 1.10139 -1.58
1627.9296875 2.647891 1.078907 -1.568984
1628.63671875 2.703791 1.285046 -1.418745
1629.33984375 3.093843 0.631835 -2.462008
1630.0234375 2.8499410000000003 1.053951 -1.79599
1630.703125 3.1635 1.471551 -1.691949
1631.36328125 3.109437 1.563728 -1.545709
1632.01171875 3.116932 1.231712 -1.88522
1632.66015625 3.047162 1.036987 -2.010175
1633.328125 2.9965260000000002 1.432804 -1.563722
1634.0078125 3.0269500000000003 1.172786 -1.854164
1634.69140625 2.874169 1.607019 -1.26715
1635.41796875 2.6835370000000003 1.742007 -0.94153
1636.125 2.721261 1.89 -0.831261
1636.8125 2.621632 1.542283 -1.079349
1637.48828125 2.70586 1.782104 -0.923756
1638.1796875 2.667157 1.818531 -0.848626
1638.8671875 2.373606 1.404614 -0.968992
1639.5390625 2.229308 1.334746 -0.894562
1640.21484375 2.2798819999999997 1.297987 -0.981895
1640.88671875 2.6686360000000002 1.183771 -1.484865
1641.578125 2.452745 1.36783 -1.084915
1642.296875 3.09868 1.76294 -1.33574
1643.0 3.2448699999999997 2.17 -1.07487
1643.69921875 3.228848 1.938068 -1.29078
1644.40625 3.2058910000000003 1.841609 -1.364282
1645.10546875 2.955678 1.63058 -1.325098
1645.8125 3.0612380000000003 1.856375 -1.204863
1646.50390625 2.9543150000000002 1.552861 -1.401454
1647.234375 2.9639420000000003 1.688571 -1.275371
1647.95703125 2.723325 1.587506 -1.135819
1648.6796875 2.8723729999999996 1.869079 -1.003294
1649.39453125 2.9692439999999998 1.773736 -1.195508
1650.12109375 2.967385 1.81243 -1.154955
1650.86328125 2.952727 1.864455 -1.088272
1651.63671875 2.8476160000000004 1.76374 -1.083876
1652.4296875 2.794752 1.693531 -1.101221
1653.25 2.783312 1.33 -1.453312
1654.0234375 2.650782 1.50819 -1.142592
1654.77734375 2.668669 1.480281 -1.188388
1655.51171875 2.715447 1.756061 -0.959386
1656.23046875 3.07734 1.994942 -1.082398
1656.94921875 2.860049 1.474658 -1.385391
1657.65625 2.701804 1.496325 -1.205479
1658.359375 2.663349 1.502258 -1.161091
1659.08203125 2.776757 1.602007 -1.17475
1659.8125 2.527838 1.188684 -1.339154
1660.52734375 2.6636800000000003 1.223277 -1.440403
1661.28125 2.934518 1.61 -1.324518
1662.0546875 2.7708320000000004 1.516501 -1.254331
1662.8046875 2.919716 1.062598 -1.857118
1663.55078125 2.955604 1.616893 -1.338711
1664.23828125 3.21945 1.743718 -1.475732
1664.93359375 3.3598280000000003 1.30086 -2.058968
1665.6171875 3.508023 1.394044 -2.113979
1666.28515625 3.1451580000000003 1.32562 -1.819538
1666.953125 3.140039 1.320134 -1.819905
1667.59375 3.233618 1.362629 -1.870989
1668.24609375 3.171804 1.286878 -1.884926
1668.9140625 3.158832 1.30317 -1.855662
1669.55859375 3.189181 1.124495 -2.064686
1670.234375 2.777919 1.392643 -1.385276
1670.90625 2.5296779999999996 1.046689 -1.482989
1671.57421875 2.956376 1.455289 -1.501087
1672.22265625 3.016082 1.720679 -1.295403
1672.87109375 2.929207 1.664252 -1.264955
1673.5234375 2.991785 1.657899 -1.333886
1674.1875 3.0904350000000003 1.511538 -1.578897
1674.86328125 2.754642 1.732786 -1.021856
1675.5546875 3.004309 1.504872 -1.499437
1676.2578125 2.854757 1.604137 -1.25062
1677.015625 2.8717110000000003 1.616856 -1.254855
1677.80078125 3.056006 1.579586 -1.47642
1678.61328125 2.796398 1.569464 -1.226934
1679.4609375 2.7481780000000002 1.26 -1.488178
1680.30078125 2.9022550000000003 1.460626 -1.441629
1681.109375 2.933742 1.378652 -1.55509
1681.9140625 2.8001050000000003 1.564143 -1.235962
1682.703125 2.9249650000000003 1.415 -1.509965
1683.5078125 2.9818569999999998 1.554669 -1.427188
1684.28515625 2.699803 1.418424 -1.281379
1685.05859375 2.6842819999999996 1.208829 -1.475453
1685.8203125 2.27668 1.061074 -1.215606
1686.5859375 2.243037 1.189479 -1.053558
1687.359375 2.54642 1.105 -1.44142
1688.13671875 2.515368 1.02705 -1.488318
1688.87109375 2.61576 1.065814 -1.549946
1689.58984375 2.653561 1.073981 -1.57958
1690.3359375 2.592319 1.179634 -1.412685
1691.05859375 2.6473370000000003 1.202379 -1.444958
1691.8125 2.9509540000000003 1.446228 -1.504726
1692.58984375 2.818048 1.342729 -1.475319
1693.3671875 2.769112 1.354616 -1.414496
1694.15625 2.573161 1.220132 -1.353029
1694.90625 3.015251 1.608948 -1.406303
1695.64453125 2.831636 1.489826 -1.34181
1696.359375 2.782042 1.419153 -1.362889
1697.07421875 2.6937930000000003 1.486264 -1.207529
1697.7421875 2.7652390000000002 1.311868 -1.453371
1698.421875 2.667795 1.182917 -1.484878
1699.08203125 3.0214600000000003 1.823565 -1.197895
1699.76171875 3.186677 1.906169 -1.280508
1700.421875 3.294669 1.911956 -1.382713
1701.11328125 3.161021 1.845354 -1.315667
1701.81640625 3.355741 2.238793 -1.116948
1702.515625 3.289454 1.907195 -1.382259
1703.21875 3.030805 1.796509 -1.234296
1703.91015625 3.096329 1.365287 -1.731042
1704.609375 2.8646789999999998 1.122963 -1.741716
1705.29296875 2.7603479999999996 1.171574 -1.588774
1705.984375 2.482802 1.045 -1.437802
1706.66796875 2.358681 0.873605 -1.485076
1707.35546875 2.260034 0.889923 -1.370111
1708.01953125 2.3410599999999997 0.95993 -1.38113
1708.68359375 3.0919280000000002 1.339533 -1.752395
1709.3515625 3.234292 1.309292 -1.925
1710.03515625 3.1286329999999998 1.563724 -1.564909
1710.7109375 3.086356 1.394577 -1.691779
1711.359375 3.00735 1.340815 -1.666535
1712.03515625 3.047431 1.414382 -1.633049
1712.69921875 3.172263 1.423088 -1.749175
1713.37109375 3.194323 1.395346 -1.798977
1714.09765625 3.268004 1.367383 -1.900621
1714.83203125 2.769316 1.224621 -1.544695
1715.58203125 3.123241 1.382809 -1.740432
1716.35546875 3.120549 1.169892 -1.950657
1717.125 3.140422 1.325 -1.815422
1717.87890625 2.9333419999999997 1.241161 -1.692181
1718.61328125 3.193085 1.42385 -1.769235
1719.33984375 2.896178 1.260456 -1.635722
1720.0546875 2.793518 1.291692 -1.501826
1720.75 2.796412 1.275 -1.521412
1721.4453125 2.707633 1.178937 -1.528696
1722.15625 2.987356 1.392133 -1.595223
1722.859375 2.96487 1.226778 -1.738092
1723.546875 2.788913 1.093297 -1.695616
1724.2578125 2.791801 1.241808 -1.549993
1724.96875 2.810793 1.486179 -1.324614
1725.67578125 2.94961 1.569861 -1.379749
1726.3984375 2.963653 1.369003 -1.59465
1727.125 3.0974709999999996 1.275 -1.822471
1727.8828125 2.892639 1.288829 -1.60381
1728.671875 2.921726 1.188727 -1.732999
1729.42578125 3.077366 1.097361 -1.980005
1730.1875 2.8646190000000002 1.150938 -1.713681
1730.9375 2.798298 1.114595 -1.683703
1731.6875 2.8888610000000003 1.104896 -1.783965
1732.42578125 2.814534 0.991598 -1.822936
1733.1484375 2.945781 1.054542 -1.891239
1733.859375 2.9691039999999997 1.039734 -1.92937
1734.57421875 3.015905 0.99727 -2.018635
1735.2734375 2.855183 0.958365 -1.896818
1735.98046875 2.9124239999999997 1.264004 -1.64842
1736.67578125 2.671062 1.108656 -1.562406
1737.39453125 2.860378 1.274947 -1.585431
1738.12890625 3.0622249999999998 1.36416 -1.698065
1738.83984375 3.0809680000000004 1.158554 -1.922414
1739.55078125 3.089527 1.387699 -1.701828
1740.28125 3.141648 1.593269 -1.548379
1741.015625 3.1618709999999997 1.557586 -1.604285
1741.74609375 2.876491 1.536159 -1.340332
1742.50390625 3.0660119999999997 1.404142 -1.66187
1743.25390625 3.115494 1.596161 -1.519333
1743.9921875 3.295125 1.632671 -1.662454
1744.74609375 3.183087 1.618225 -1.564862
1745.4921875 2.947492 1.3797 -1.567792
1746.2265625 2.937456 1.597456 -1.34
1746.94921875 3.180288 1.44815 -1.732138
1747.63671875 2.977512 1.508395 -1.469117
1748.27734375 2.518141 0.093496 -2.424645
1748.91015625 3.258189 2.118189 -1.14
1749.5625 3.253893 2.148705 -1.105188
1750.23046875 2.893906 1.92 -0.973906
1750.87890625 2.890157 1.970683 -0.919474
1751.55859375 2.778711 1.953412 -0.825299
1752.25 2.78957 1.885 -0.90457
1752.93359375 2.8979619999999997 1.888299 -1.009663
1753.62890625 2.8842749999999997 1.867101 -1.017174
1754.3359375 2.7142359999999996 1.68976 -1.024476
1755.0625 2.751827 1.679056 -1.072771
1755.8671875 2.853021 1.788178 -1.064843
1756.6640625 2.598176 1.495 -1.103176
1757.5078125 2.662519 1.638222 -1.024297
1758.29296875 3.1911430000000003 1.901332 -1.289811
1759.078125 2.9719249999999997 2.357016 -0.614909
1759.8515625 3.0635820000000002 1.958073 -1.105509
1760.63671875 3.0463389999999997 1.891527 -1.154812
1761.4453125 3.154796 2.093658 -1.061138
1762.203125 3.1396680000000003 1.949726 -1.189942
1762.9609375 3.160602 2.148588 -1.012014
1763.71484375 3.016686 2.035361 -0.981325
1764.4921875 2.956606 1.966637 -0.989969
1765.27734375 2.859967 1.783772 -1.076195
1766.046875 2.8343119999999997 1.734823 -1.099489
1766.78125 3.164222 2.297387 -0.866835
1767.50390625 3.5879960000000004 2.540398 -1.047598
1768.23046875 3.220152 2.019982 -1.20017
1768.93359375 2.6592700000000002 1.569366 -1.089904
1769.65234375 2.590572 1.528173 -1.062399
1770.40234375 2.85425 1.822091 -1.032159
1771.125 2.246725 1.355 -0.891725
1771.859375 2.701423 1.932134 -0.769289
1772.5703125 2.5907 1.936315 -0.654385
1773.29296875 2.497842 1.713728 -0.784114
1774.0546875 2.6179750000000004 1.61691 -1.001065
1774.80078125 2.813469 1.900749 -0.91272
1775.51953125 3.0303940000000003 1.984963 -1.045431
1776.2265625 3.119514 1.751295 -1.368219
1776.9375 3.003416 1.702649 -1.300767
1777.6484375 2.963971 1.446835 -1.517136
1778.359375 3.6877009999999997 2.034452 -1.653249
1779.05859375 3.674996 2.367865 -1.307131
1779.7421875 3.42007 1.995339 -1.424731
1780.41796875 3.272851 1.925772 -1.347079
1781.11328125 3.324764 1.844946 -1.479818
1781.828125 3.2033 1.853002 -1.350298
1782.5859375 3.369103 2.109352 -1.259751
1783.33984375 3.307232 2.104084 -1.203148
1784.1171875 3.424321 2.256327 -1.167994
1784.87890625 3.305661 2.266277 -1.039384
1785.67578125 3.275858 2.283738 -0.99212
1786.51171875 3.2646750000000004 2.251599 -1.013076
1787.33984375 3.270225 2.215714 -1.054511
1788.15234375 3.280485 2.202672 -1.077813
1788.9375 3.034633 2.201014 -0.833619
1789.70703125 3.0562259999999997 2.036167 -1.020059
1790.48046875 2.8687620000000003 2.025573 -0.843189
1791.23046875 3.080693 2.058732 -1.021961
1791.99609375 3.251286 2.314374 -0.936912
1792.73046875 3.18863 2.134935 -1.053695
1793.4765625 3.213324 2.158324 -1.055
1794.21875 3.202262 2.12967 -1.072592
1794.984375 3.026269 1.992635 -1.033634
1795.76953125 3.14499 2.145 -0.99999
1796.5390625 3.119555 2.074758 -1.044797
1797.328125 3.209168 2.224281 -0.984887
1798.09765625 3.119578 2.189578 -0.93
1798.86328125 3.0047949999999997 2.144468 -0.860327
1799.6171875 3.049948 2.354239 -0.695709
1800.34765625 3.279091 2.404091 -0.875
1801.0703125 3.686316 2.534285 -1.152031
1801.74609375 3.0970690000000003 1.496656 -1.600413
1802.42578125 3.1926639999999997 1.603276 -1.589388
1803.07421875 2.941966 1.355196 -1.58677
1803.71875 3.119969 1.423813 -1.696156
1804.3671875 3.34614 1.656509 -1.689631
