12.1015625 0.5791769999999999 -0.101014 -0.680191
12.32421875 0.078741 0.009491 -0.06925
12.75390625 0.02629099999999998 -0.19639 -0.222681
13.14453125 0.652908 0.04496 -0.607948
13.4375 0.24807200000000001 0.151667 -0.096405
14.2890625 0.606409 0.021592 -0.584817
14.58984375 0.24371199999999998 0.053198 -0.190514
15.421875 0.617283 -0.136141 -0.753424
15.65625 0.065346 7.81E-4 -0.064565
16.5078125 0.60766 0.01766 -0.59
17.58984375 0.617637 -0.024158 -0.641795
18.65234375 0.609063 -0.091353 -0.700416
18.921875 0.334391 0.110215 -0.224176
19.7109375 0.620953 -0.040394 -0.661347
20.0078125 0.223447 0.076748 -0.146699
20.86328125 0.601797 -0.122408 -0.724205
21.12109375 0.11179900000000001 -0.063945 -0.175744
21.97265625 0.6350169999999999 -0.086389 -0.721406
22.2421875 0.31883 0.02883 -0.29
23.0546875 0.582035 -0.157813 -0.739848
23.2890625 0.123544 -0.080141 -0.203685
24.1171875 0.628213 -0.136312 -0.764525
24.35546875 0.073104 -0.044766 -0.11787
25.18359375 0.618039 -0.060337 -0.678376
26.33203125 0.5784530000000001 -0.099161 -0.677614
27.50390625 0.615515 -0.022828 -0.638343
28.61328125 0.619177 -0.001371 -0.620548
29.7265625 0.6415630000000001 -0.022233 -0.663796
30.87109375 0.675512 -0.048898 -0.72441
32.0 0.6425500000000001 -0.085 -0.72755
33.1953125 0.631471 -0.088203 -0.719674
34.3515625 0.594866 -0.040225 -0.635091
35.4453125 0.613413 -0.037921 -0.651334
36.55859375 0.644215 -0.005852 -0.650067
36.80078125 0.09067 0.042054 -0.048616
37.6484375 0.629216 -0.050629 -0.679845
38.78125 0.603372 -0.09919 -0.702562
39.953125 0.668011 -0.028799 -0.69681
41.03515625 0.60916 -0.054353 -0.663513
42.11328125 0.5972609999999999 -0.097739 -0.695
43.1796875 0.6656369999999999 -0.018352 -0.683989
44.33984375 0.588072 -0.066928 -0.655
45.46484375 0.606256 -0.099542 -0.705798
46.5859375 0.609606 -0.005394 -0.615
46.8828125 0.265 0.135 -0.13
47.65234375 0.606833 -0.025788 -0.632621
47.8828125 0.08268700000000001 -0.025 -0.107687
48.71484375 0.613543 -0.059589 -0.673132
48.98046875 0.47167000000000003 0.174968 -0.296702
49.81640625 0.627579 0.044179 -0.5834
50.11328125 0.262594 0.144023 -0.118571
50.9140625 0.60016 0.019875 -0.580285
51.1796875 0.110898 0.080898 -0.03
52.02734375 0.5833579999999999 -0.019812 -0.60317
52.25 0.073535 0.1 0.026465
53.11328125 0.637116 0.047116 -0.59
53.37890625 0.312135 0.2 -0.112135
54.12109375 0.589716 -0.007876 -0.597592
54.4140625 0.23994500000000002 0.129945 -0.11
55.13671875 0.5896790000000001 -0.028855 -0.618534
55.4296875 0.25 0.225 -0.025
56.25 0.584994 0.055 -0.529994
56.49609375 0.092696 0.112696 0.02
57.32421875 0.6280359999999999 0.019373 -0.608663
58.4140625 0.591095 0.014904 -0.576191
58.62890625 0.06556000000000001 0.14 0.07444
59.45703125 0.642138 0.049827 -0.592311
59.70703125 0.14320699999999997 0.145135 0.001928
60.48828125 0.6182139999999999 -0.021449 -0.639663
60.76171875 0.277593 0.118378 -0.159215
61.515625 0.572024 -0.006285 -0.578309
61.8125 0.236347 0.144844 -0.091503
62.640625 0.590479 -0.040436 -0.630915
62.94140625 0.244561 0.144569 -0.099992
63.73046875 0.605525 -0.055019 -0.660544
63.95703125 0.067867 0.052937 -0.01493
64.82421875 0.63471 0.005139 -0.629571
65.859375 0.578261 0.019142 -0.559119
66.9765625 0.5942419999999999 0.009242 -0.585
67.98828125 0.615353 0.107248 -0.508105
68.29296875 0.248807 0.274078 0.025271
69.09765625 0.6050770000000001 0.060077 -0.545
70.171875 0.6142599999999999 0.072896 -0.541364
70.45703125 0.167876 0.236589 0.068713
71.2578125 0.618437 0.090404 -0.528033
71.52734375 0.12250000000000001 0.147653 0.025153
72.2890625 0.60467 0.059878 -0.544792
73.28515625 0.6329509999999999 0.127817 -0.505134
74.40625 0.635453 0.071056 -0.564397
75.484375 0.621016 0.061016 -0.56
75.7734375 0.24689599999999998 0.283141 0.036245
76.54296875 0.595331 0.096365 -0.498966
76.84375 0.276351 0.273571 -0.00278
77.60546875 0.66156 0.094898 -0.566662
77.83203125 0.080203 0.105203 0.025
78.61328125 0.635043 -0.012712 -0.647755
78.87109375 0.285823 0.160974 -0.124849
79.640625 0.5845389999999999 0.004539 -0.58
79.9375 0.245577 0.1765 -0.069077
80.75 0.584605 -0.015 -0.599605
80.98828125 0.066586 0.038802 -0.027784
81.8359375 0.611404 -0.01836 -0.629764
82.10546875 0.32426900000000003 0.159985 -0.164284
82.890625 0.598147 0.019663 -0.578484
83.171875 0.16805 0.173648 0.005598
83.93359375 0.5868859999999999 0.049391 -0.537495
84.171875 0.139629 0.134629 -0.0050
84.92578125 0.6586700000000001 0.102354 -0.556316
85.43359375 1.699935 0.424949 -1.274986
85.73828125 0.930493 0.425 -0.505493
87.09375 0.741563 0.296719 -0.444844
88.15234375 0.704824 0.198191 -0.506633
88.40234375 0.07724 0.112604 0.035364
89.2421875 0.614676 0.101867 -0.512809
89.50390625 0.102847 0.127879 0.025032
90.2734375 0.581064 -0.012074 -0.593138
91.2734375 0.650038 0.1711 -0.478938
91.57421875 0.212175 0.227175 0.015
92.37109375 0.634053 0.11419 -0.519863
93.484375 0.5598080000000001 -0.001026 -0.560834
93.734375 0.10252700000000001 0.103839 0.001312
94.515625 0.5909829999999999 -0.008267 -0.59925
94.75390625 0.09 0.04 -0.05
95.58203125 0.6341019999999999 -0.089574 -0.723676
96.62890625 0.604853 -0.075918 -0.680771
96.87109375 0.427191 0.07 -0.357191
97.6484375 0.602888 -0.10185 -0.704738
97.94921875 0.250706 0.006443 -0.244263
98.765625 0.6256929999999999 -0.187439 -0.813132
99.015625 0.10406800000000001 -0.072178 -0.176246
99.875 0.643284 -0.13 -0.773284
100.94140625 0.5693549999999999 -0.155108 -0.724463
102.015625 0.6164069999999999 -0.123353 -0.73976
102.234375 0.07273400000000001 -0.075 -0.147734
103.0390625 0.621447 -0.088419 -0.709866
104.15234375 0.610474 -0.087289 -0.697763
104.39453125 0.050276 -0.074724 -0.125
105.2734375 0.609 -0.105746 -0.714746
106.3671875 0.63587 -0.033922 -0.669792
107.44921875 0.6041639999999999 -0.105419 -0.709583
107.69921875 0.104953 -0.05 -0.154953
108.52734375 0.577035 -0.129272 -0.706307
108.765625 0.10175300000000001 -0.012319 -0.114072
109.578125 0.654582 -0.025083 -0.679665
109.87890625 0.236052 0.065 -0.171052
110.7109375 0.64963 -0.020071 -0.669701
111.83203125 0.582817 -0.112993 -0.69581
112.0625 0.08993900000000002 -0.037292 -0.127231
112.92578125 0.662713 -0.062133 -0.724846
113.2109375 0.189677 0.059924 -0.129753
113.9765625 0.589728 -0.103458 -0.693186
115.05078125 0.5740109999999999 -0.150398 -0.724409
115.296875 0.09489500000000001 -0.030105 -0.125
116.1875 0.6055550000000001 -0.049352 -0.654907
116.4765625 0.248304 0.04 -0.208304
117.3125 0.659062 -0.015938 -0.675
117.609375 0.22829 0.046261 -0.182029
118.4296875 0.613283 -0.066717 -0.68
118.7265625 0.253994 0.04999 -0.204004
119.51171875 0.629545 -0.1094 -0.738945
119.7265625 0.074759 -0.047775 -0.122534
120.609375 0.580738 -0.092172 -0.67291
120.84375 0.115071 0.024107 -0.090964
121.78515625 0.592881 -0.19933 -0.792211
122.8515625 0.6228899999999999 -0.08711 -0.71
123.15625 0.2585 0.134594 -0.123906
123.94140625 0.6399199999999999 -0.135282 -0.775202
125.17578125 0.597856 -0.097719 -0.695575
126.109375 0.646174 -0.092162 -0.738336
126.41015625 0.105513 0.072106 -0.033407
126.65625 1.552482 0.377679 -1.174803
128.34765625 0.629863 0.106371 -0.523492
152.4375 0.6202890000000001 -0.074741 -0.69503
155.78515625 0.5929000000000001 -0.075 -0.6679
156.00390625 0.197018 0.208685 0.011667
156.8515625 0.656668 0.288505 -0.368163
157.77734375 0.6452800000000001 0.008654 -0.636626
158.96875 0.599557 -0.035 -0.634557
160.1171875 0.638645 -0.106042 -0.744687
161.05078125 0.663747 -0.240812 -0.904559
162.171875 0.586272 -0.177083 -0.763355
163.234375 0.616934 -0.142441 -0.759375
164.30078125 0.646039 -0.10357 -0.749609
165.41796875 0.583453 -0.081474 -0.664927
166.48046875 0.6444489999999999 -0.030159 -0.674608
167.546875 0.646705 -0.046295 -0.693
168.61328125 0.5862 -0.062639 -0.648839
168.8828125 0.296258 0.134539 -0.161719
169.62890625 0.5986929999999999 -0.095914 -0.694607
169.98046875 0.169533 0.084983 -0.08455
170.8828125 0.5844609999999999 -0.185 -0.769461
171.9296875 0.566361 -0.165837 -0.732198
173.0078125 0.6123099999999999 -0.304641 -0.916951
174.16015625 0.5577369999999999 -0.297769 -0.855506
175.14453125 0.564976 -0.230024 -0.795
176.22265625 0.571515 -0.285708 -0.857223
177.41796875 0.535135 -0.222371 -0.757506
178.5078125 0.6084040000000001 -0.229016 -0.83742
179.578125 0.586559 -0.237717 -0.824276
180.69140625 0.6041650000000001 -0.185394 -0.789559
181.76171875 0.604298 -0.194005 -0.798303
182.9140625 0.569315 -0.190195 -0.75951
184.05078125 0.547502 -0.218212 -0.765714
185.1796875 0.627387 -0.275413 -0.9028
186.203125 0.5795399999999999 -0.225412 -0.804952
186.4453125 0.10813 -0.061696 -0.169826
187.24609375 0.582573 -0.226393 -0.808966
188.375 0.600283 -0.155 -0.755283
189.52734375 0.573095 -0.113549 -0.686644
190.66015625 0.6410589999999999 -0.072894 -0.713953
191.73828125 0.538319 -0.039973 -0.578292
192.69140625 0.612157 -0.010128 -0.622285
193.3046875 1.742702 0.572391 -1.170311
193.59375 1.083757 0.444594 -0.639163
194.89453125 0.639938 0.154903 -0.485035
223.61328125 1.567292 0.259002 -1.30829
231.609375 0.5900569999999999 -0.129943 -0.72
232.625 0.704894 -0.135 -0.839894
232.89453125 0.840186 2.92E-4 -0.839894
233.78125 0.683755 -0.13 -0.813755
234.79296875 0.7602570000000001 -0.194553 -0.95481
235.7109375 0.656633 -0.210189 -0.866822
236.94140625 0.58457 -0.186897 -0.771467
238.01171875 0.724574 -0.085426 -0.81
239.06640625 0.7194229999999999 -0.03 -0.749423
240.125 0.665 -0.08 -0.745
241.1484375 0.707719 -0.057034 -0.764753
242.0078125 1.757812 0.544105 -1.213707
243.34375 0.594914 -0.068071 -0.662985
244.49609375 0.614313 -0.118735 -0.733048
245.609375 0.600349 -0.164639 -0.764988
246.66015625 0.710226 -0.132936 -0.843162
247.0625 1.545783 0.382045 -1.163738
248.27734375 0.6743 -0.110409 -0.784709
249.76171875 0.5558259999999999 -0.047262 -0.603088
250.84765625 0.6022799999999999 -0.035757 -0.638037
251.91015625 0.637675 -0.119339 -0.757014
252.53515625 1.639553 0.484953 -1.1546
254.140625 0.6174189999999999 -0.186262 -0.803681
255.29296875 0.652957 -0.073484 -0.726441
256.390625 0.625093 -0.069492 -0.694585
257.47265625 0.638711 -0.095 -0.733711
258.19921875 1.5990190000000002 0.539019 -1.06
259.62109375 0.6122289999999999 -0.085914 -0.698143
260.640625 0.593259 -0.057793 -0.651052
261.92578125 0.628884 -0.021116 -0.65
262.9921875 0.601837 -0.076042 -0.677879
263.50390625 1.5376530000000002 0.523192 -1.014461
265.06640625 0.573477 -0.070051 -0.643528
266.1953125 0.598924 -0.046076 -0.645
267.2890625 0.589745 -0.04 -0.629745
268.4296875 0.6307619999999999 -0.073825 -0.704587
269.57421875 0.621025 -0.078969 -0.699994
270.5859375 0.6058410000000001 -0.047376 -0.653217
270.8359375 0.284311 0.124772 -0.159539
271.5859375 0.649248 -0.125095 -0.774343
271.921875 0.332328 0.144902 -0.187426
272.83984375 0.591989 -0.066802 -0.658791
273.0546875 0.265541 0.174176 -0.091365
273.87890625 0.56966 -0.139845 -0.709505
274.1015625 0.6998530000000001 -0.009652 -0.709505
274.96875 0.5762499999999999 -0.095346 -0.671596
276.0234375 0.583194 -0.115339 -0.698533
277.1328125 0.652667 -0.036846 -0.689513
278.26953125 0.5874900000000001 -0.024766 -0.612256
279.2109375 1.6176909999999998 0.565468 -1.052223
280.421875 0.58706 0.039262 -0.547798
281.5703125 0.669488 0.088128 -0.58136
282.57421875 0.592565 0.093591 -0.498974
283.72265625 0.6330830000000001 0.034672 -0.598411
284.87109375 0.6328830000000001 0.065042 -0.567841
285.87890625 0.6053189999999999 -0.010136 -0.615455
287.1015625 0.697211 0.007225 -0.689986
287.9453125 1.6485180000000001 0.637415 -1.011103
289.1484375 0.682755 -0.010379 -0.693134
290.42578125 0.6103379999999999 -0.02 -0.630338
291.546875 0.655311 -0.092869 -0.74818
292.6484375 0.773387 -0.045879 -0.819266
293.0703125 1.403695 0.373725 -1.02997
294.66796875 0.577311 -0.001506 -0.578817
295.8046875 0.56186 0.04751 -0.51435
296.94140625 0.513081 -0.035654 -0.548735
298.1015625 0.553186 -0.06 -0.613186
298.59375 1.807258 0.561071 -1.246187
298.90234375 0.9721679999999999 0.46 -0.512168
300.1484375 0.63454 0.15 -0.48454
301.17578125 0.61985 0.048654 -0.571196
302.28125 0.651436 0.021894 -0.629542
303.359375 0.598977 -0.071161 -0.670138
303.87890625 1.740768 0.362232 -1.378536
305.453125 0.579439 0.148668 -0.430771
306.578125 0.625529 0.085 -0.540529
307.4453125 0.587156 0.097452 -0.489704
308.59765625 0.6173820000000001 0.003264 -0.614118
309.61328125 0.572299 -0.021371 -0.59367
310.671875 0.6611630000000001 0.116163 -0.545
310.9140625 0.089932 0.084932 -0.0050
311.76953125 0.6624730000000001 -0.139847 -0.80232
311.98046875 0.259477 0.094971 -0.164506
312.765625 0.7313580000000001 -0.238555 -0.969913
313.74609375 0.675409 -0.168945 -0.844354
313.9765625 0.230745 0.130745 -0.1
314.76953125 0.6419389999999999 -0.168733 -0.810672
315.046875 0.17815999999999999 -0.0050 -0.18316
315.875 0.7690549999999999 -0.165 -0.934055
316.078125 0.264785 0.029785 -0.235
316.9140625 0.699121 -0.095176 -0.794297
317.9609375 0.693123 0.02 -0.673123
318.1796875 0.283771 0.346011 0.06224
318.90234375 0.696707 0.023237 -0.67347
319.14453125 0.07822099999999998 0.109993 0.031772
320.02734375 0.663578 -0.115708 -0.779286
321.0390625 0.624924 -0.105023 -0.729947
322.11328125 0.6705909999999999 -0.096346 -0.766937
323.16796875 0.6449309999999999 -0.120947 -0.765878
324.26171875 0.744234 -0.120364 -0.864598
325.2734375 0.703518 -0.070758 -0.774276
326.35546875 0.7178910000000001 -0.08041 -0.798301
327.4609375 0.7493209999999999 -0.055 -0.804321
328.5078125 0.6277159999999999 -0.080223 -0.707939
329.57421875 0.668122 -0.066827 -0.734949
330.640625 0.7052879999999999 -0.063837 -0.769125
331.67578125 0.6599999999999999 -0.07 -0.73
332.70703125 0.596098 -0.051265 -0.647363
333.95703125 0.571838 -7.89E-4 -0.572627
334.88671875 0.6182920000000001 -0.025578 -0.64387
335.984375 0.5724999999999999 -0.051973 -0.624473
337.01171875 0.608057 0.043191 -0.564866
338.08984375 0.623086 -0.057712 -0.680798
339.12109375 1.8147410000000002 0.556723 -1.258018
339.671875 2.7220199999999997 0.33207 -2.38995
341.17578125 0.5866 -0.027384 -0.613984
342.2109375 0.649305 0.014899 -0.634406
343.13671875 0.6055790000000001 -0.099343 -0.704922
344.3046875 0.5837589999999999 -0.076312 -0.660071
345.3203125 0.61842 -0.1 -0.71842
346.38671875 0.6555179999999999 -0.153274 -0.808792
347.3359375 0.575679 -0.152837 -0.728516
348.3359375 0.5837289999999999 -0.145731 -0.72946
349.33984375 0.54 -0.13 -0.67
349.63671875 0.261613 0.149272 -0.112341
350.3984375 0.612476 -0.047065 -0.659541
350.69921875 0.279368 0.162118 -0.11725
351.48828125 0.601892 -0.095743 -0.697635
351.75 0.139806 0.135 -0.004806
352.5234375 0.570304 -0.042188 -0.612492
352.80078125 0.29236 0.243381 -0.048979
353.54296875 0.557762 -0.036474 -0.594236
353.78515625 0.098407 0.084254 -0.014153
354.5703125 0.5863839999999999 -0.089995 -0.676379
354.83203125 0.384004 0.157937 -0.226067
355.6171875 0.577248 -0.062535 -0.639783
355.90234375 0.281056 0.19107 -0.089986
356.6875 0.574972 -0.134706 -0.709678
356.9375 0.102347 0.0075 -0.094847
357.78515625 0.559365 -0.073762 -0.633127
358.06640625 0.313719 0.194642 -0.119077
358.828125 0.590249 -0.045602 -0.635851
359.0859375 0.284974 0.074974 -0.21
359.828125 0.5967420000000001 -0.1528 -0.749542
360.0859375 0.158505 0.11 -0.048505
360.93359375 0.57415 -0.1 -0.67415
362.0 0.5900000000000001 -0.21 -0.8
363.0234375 0.6129659999999999 -0.092034 -0.705
363.8984375 1.881445 0.48 -1.401445
365.16796875 0.577109 -0.122914 -0.700023
365.3984375 0.13310100000000002 -0.036813 -0.169914
366.203125 0.603299 -0.141497 -0.744796
366.48046875 0.284909 0.019973 -0.264936
367.19921875 0.606387 -0.178613 -0.785
367.4453125 0.12346700000000001 7.13E-4 -0.122754
368.3125 0.5911730000000001 -0.095 -0.686173
369.3125 1.6167820000000002 0.3805 -1.236282
370.44921875 0.5640989999999999 -0.166912 -0.731011
371.5625 0.561473 -0.131429 -0.692902
372.08984375 1.741161 0.442646 -1.298515
372.37890625 1.134134 0.26052 -0.873614
373.55859375 0.621142 0.003061 -0.618081
390.54296875 1.593728 0.46936 -1.124368
404.296875 1.71041 0.424325 -1.286085
409.75 1.6943929999999998 0.495 -1.199393
415.34375 1.66181 0.423125 -1.238685
421.0625 1.030595 0.619349 -0.411246
422.1328125 1.220224 0.612695 -0.607529
423.2265625 0.915017 0.142496 -0.772521
424.30078125 0.633033 -0.241919 -0.874952
425.328125 0.629196 -0.208533 -0.837729
426.38671875 0.7564919999999999 0.083414 -0.673078
426.69140625 0.2054 0.034629 -0.170771
427.41796875 0.651327 -0.083673 -0.735
427.66015625 0.08353500000000003 -0.185 -0.268535
428.5078125 0.636715 -0.103285 -0.74
428.828125 0.17891600000000002 -0.076084 -0.255
429.62109375 0.7399560000000001 -0.002767 -0.742723
429.91015625 0.24722899999999998 -0.0724 -0.319629
430.51953125 1.852193 0.319972 -1.532221
431.71484375 0.663979 -0.031311 -0.69529
432.0078125 0.24430999999999997 -0.010637 -0.254947
432.83984375 0.5994299999999999 -0.262523 -0.861953
433.79296875 0.574638 -0.145 -0.719638
434.08984375 0.190745 0.015901 -0.174844
434.8984375 0.523456 -0.135636 -0.659092
435.171875 0.174636 -0.030105 -0.204741
435.97265625 0.554689 -0.075416 -0.630105
436.22265625 0.33687500000000004 0.125 -0.211875
436.9921875 0.599818 -0.095711 -0.695529
437.25390625 0.052865 0.002879 -0.049986
438.07421875 0.561736 -0.101993 -0.663729
438.3359375 0.159862 0.0949 -0.064962
439.125 0.555903 -0.115 -0.670903
440.1875 0.573759 -0.21 -0.783759
441.36328125 0.604544 -0.087712 -0.692256
442.5 0.6033649999999999 -0.16 -0.763365
443.53125 0.5871850000000001 -0.066212 -0.653397
443.8046875 0.252521 0.105 -0.147521
444.65234375 0.565559 -0.080163 -0.645722
445.125 1.5235969999999999 0.47 -1.053597
445.43359375 0.8026089999999999 0.335765 -0.466844
446.8125 0.609832 0.046284 -0.563548
447.95703125 0.5782609999999999 -0.026499 -0.60476
449.09375 0.583812 -0.034122 -0.617934
450.17578125 0.579495 -0.100457 -0.679952
451.2734375 0.597121 -0.091683 -0.688804
452.453125 0.606453 -0.047118 -0.653571
453.62109375 0.6327119999999999 0.009513 -0.623199
453.8828125 0.123101 0.108101 -0.015
454.75 0.630234 -0.0050 -0.635234
455.86328125 0.587623 -0.109865 -0.697488
456.48828125 1.763798 0.455 -1.308798
458.1328125 0.621744 -0.022679 -0.644423
459.31640625 0.5860070000000001 -0.091082 -0.677089
460.4296875 0.596726 -0.130657 -0.727383
461.546875 0.615675 -0.062369 -0.678044
462.62890625 0.768702 -0.031168 -0.79987
463.72265625 0.587178 -0.056723 -0.643901
464.9140625 0.5965360000000001 -0.055662 -0.652198
466.015625 0.6730200000000001 0.083914 -0.589106
467.1171875 0.545563 -0.044437 -0.59
468.234375 0.592765 0.024954 -0.567811
468.48046875 0.114893 0.064957 -0.049936
469.1796875 1.8100390000000002 0.415798 -1.394241
469.49609375 0.83 0.105 -0.725
470.4609375 0.609978 -0.010022 -0.62
470.70703125 0.076046 0.060537 -0.015509
471.59765625 0.6161749999999999 -0.112987 -0.729162
471.82421875 0.132961 0.002961 -0.13
472.68359375 0.6194 -0.100489 -0.719889
472.9609375 0.273887 0.109905 -0.163982
473.765625 0.617557 -0.045513 -0.66307
474.05859375 0.262951 0.169569 -0.093382
474.890625 0.629894 -0.134375 -0.764269
475.578125 1.8089439999999999 0.424214 -1.38473
475.875 1.029179 0.24 -0.789179
477.05859375 0.626919 -0.015337 -0.642256
491.84375 1.672494 0.555771 -1.116723
497.453125 1.771245 0.593118 -1.178127
509.58984375 1.8849529999999999 0.504953 -1.38
514.76171875 1.8378 0.578026 -1.259774
516.71484375 1.612694 0.335 -1.277694
527.79296875 0.606297 -0.145 -0.751297
531.09765625 0.629052 -0.180591 -0.809643
532.1796875 0.5907789999999999 -0.15297 -0.743749
532.48046875 0.245249 0.095249 -0.15
533.2734375 0.622522 -0.142478 -0.765
533.51171875 0.098161 -0.016839 -0.115
534.39453125 0.640519 -0.120043 -0.760562
535.34375 0.6511319999999999 -0.138846 -0.789978
536.49609375 0.645958 -0.106362 -0.75232
537.109375 1.7421 0.5321 -1.21
538.66796875 0.63191 -0.067613 -0.699523
539.82421875 0.59381 -0.146478 -0.740288
540.75390625 0.6114689999999999 -0.203516 -0.814985
541.83984375 0.622214 -0.147052 -0.769266
542.921875 0.6020810000000001 -0.1215 -0.723581
544.04296875 0.6520889999999999 -0.142734 -0.794823
545.12890625 0.6199349999999999 -0.075038 -0.694973
546.203125 0.607812 -0.13 -0.737812
547.23046875 0.5941000000000001 -0.13562 -0.72972
548.390625 0.6036020000000001 -0.058398 -0.662
549.53125 0.591943 -0.0975 -0.689443
550.609375 0.606066 -0.096657 -0.702723
551.71875 0.6215310000000001 -0.013038 -0.634569
551.953125 0.15135400000000002 0.178156 0.026802
552.76953125 0.637356 0.08475 -0.552606
553.82421875 0.59831 -0.064647 -0.662957
554.1015625 0.088915 0.107224 0.018309
555.01953125 0.664976 0.069976 -0.595
556.03125 1.7011290000000001 0.461953 -1.239176
557.18359375 0.6556390000000001 0.065857 -0.589782
558.26953125 0.583825 -0.004168 -0.587993
559.3046875 0.6408060000000001 -0.058008 -0.698814
560.4375 0.6256670000000001 4.84E-4 -0.625183
560.703125 0.14098 0.11598 -0.025
561.546875 0.658455 -0.161411 -0.819866
562.62109375 0.630567 -0.117725 -0.748292
562.88671875 0.193609 0.113609 -0.08
563.6640625 0.626615 -0.15942 -0.786035
564.203125 1.699551 0.299551 -1.4
564.50390625 1.064363 0.237566 -0.826797
565.765625 0.699524 0.051995 -0.647529
566.91796875 0.712937 -0.157037 -0.869974
568.015625 0.728105 0.014755 -0.71335
568.30078125 0.234415 0.004415 -0.23
569.0859375 0.702039 0.066126 -0.635913
569.51953125 1.8341129999999999 0.264652 -1.569461
569.81640625 1.101595 0.349259 -0.752336
571.109375 1.004613 0.450508 -0.554105
599.125 1.087353 0.535 -0.552353
601.90234375 0.7141550000000001 -0.200347 -0.914502
602.95703125 0.7211609999999999 0.028049 -0.693112
603.9140625 0.612705 -0.225344 -0.838049
604.1875 0.217878 -0.063333 -0.281211
604.8359375 0.639877 -0.260073 -0.89995
605.0859375 0.10788600000000001 -0.046235 -0.154121
605.765625 0.557419 -0.004395 -0.561814
606.6640625 0.576316 -0.010401 -0.586717
607.61328125 0.640887 0.078634 -0.562253
607.90625 0.24544 0.192917 -0.052523
608.58203125 0.652659 0.160909 -0.49175
608.85546875 0.304463 0.229957 -0.074506
609.5234375 0.646912 -0.033088 -0.68
609.80859375 0.252137 0.134258 -0.117879
610.4375 0.7213510000000001 0.307292 -0.414059
610.71875 0.28900000000000003 0.334 0.045
611.375 0.670344 0.275 -0.395344
611.640625 0.316123 0.177803 -0.13832
612.27734375 0.747336 0.152829 -0.594507
612.5546875 0.269331 0.149289 -0.120042
613.15234375 0.6937439999999999 0.134156 -0.559588
613.45703125 0.321974 0.175855 -0.146119
614.15234375 0.657903 -0.020957 -0.67886
614.453125 0.289 0.045 -0.244
615.11328125 0.53837 -0.023029 -0.561399
615.40234375 0.327326 0.159369 -0.167957
616.0390625 0.628474 0.109609 -0.518865
616.3046875 0.29 0.185 -0.105
616.98828125 0.606746 0.058512 -0.548234
617.265625 0.30319799999999997 0.250913 -0.052285
617.98046875 0.713238 -0.040032 -0.75327
618.78515625 0.7022309999999999 0.134686 -0.567545
619.06640625 0.258859 0.259496 6.37E-4
619.75390625 0.6699299999999999 0.184967 -0.484963
620.0703125 0.292018 0.187025 -0.104993
620.74609375 0.623857 0.130241 -0.493616
621.03515625 0.267064 0.257064 -0.01
621.69140625 0.853152 0.404304 -0.448848
621.9453125 0.33932 0.283796 -0.055524
622.59375 0.68724 0.214844 -0.472396
622.87890625 0.277658 0.177951 -0.099707
623.51953125 0.781455 0.314819 -0.466636
623.80078125 0.30841999999999997 0.23342 -0.075
624.4375 0.857631 0.380025 -0.477606
624.6953125 0.374683 0.299683 -0.075
625.3046875 0.787593 0.317955 -0.469638
625.59765625 0.28206 0.205 -0.07706
626.3125 0.7988 0.2238 -0.575
626.61328125 0.194697 0.174707 -0.01999
627.25390625 0.676617 0.062265 -0.614352
628.15625 0.687084 0.120986 -0.566098
628.4453125 0.127341 0.152341 0.025
629.0703125 0.659312 0.134489 -0.524823
629.3359375 0.250635 0.119974 -0.130661
629.88671875 0.6929190000000001 0.093457 -0.599462
630.1796875 0.28749 0.23384 -0.05365
630.8125 0.881923 0.417889 -0.464034
631.09765625 0.260679 0.234826 -0.025853
631.7265625 0.671733 0.040393 -0.63134
632.6953125 1.011878 0.427572 -0.584306
632.98046875 0.27913299999999996 0.084957 -0.194176
633.63671875 0.9497739999999999 0.448551 -0.501223
633.9140625 0.40966 0.269801 -0.139859
634.515625 0.9634830000000001 0.498483 -0.465
635.4140625 0.808418 0.344979 -0.463439
636.32421875 0.867438 0.25915 -0.608288
637.1953125 0.792639 0.192538 -0.600101
638.1328125 0.619738 -0.175262 -0.795
639.109375 0.708539 0.022947 -0.685592
639.37890625 0.296856 0.075 -0.221856
640.01953125 0.554005 -0.140995 -0.695
640.27734375 0.265987 -0.085818 -0.351805
640.93359375 0.650601 -0.085419 -0.73602
641.2109375 0.280501 0.034932 -0.245569
641.8359375 0.7642990000000001 0.128924 -0.635375
642.11328125 0.336521 0.115 -0.221521
642.75 0.5549999999999999 -0.15 -0.705
643.01171875 0.40090600000000004 -0.011391 -0.412297
643.6875 0.7528819999999999 0.227143 -0.525739
643.9609375 0.31841200000000003 0.184772 -0.13364
644.6484375 0.7236710000000001 0.148822 -0.574849
644.94140625 0.279623 0.054642 -0.224981
645.62890625 0.7032309999999999 0.112942 -0.590289
645.890625 0.282412 0.097822 -0.18459
646.5546875 0.8296239999999999 0.285807 -0.543817
646.828125 0.320515 0.149707 -0.170808
647.46875 0.690538 0.039961 -0.650577
647.7421875 0.269193 -0.002307 -0.2715
648.390625 0.734703 0.166578 -0.568125
648.65625 0.31084 0.116836 -0.194004
649.32421875 0.828713 0.256022 -0.572691
649.609375 0.29375300000000004 0.064004 -0.229749
650.2890625 0.8113 0.244598 -0.566702
650.55859375 0.265548 0.095 -0.170548
651.28515625 0.8739129999999999 0.289332 -0.584581
651.58984375 0.298584 0.059215 -0.239369
652.2265625 0.789346 0.107263 -0.682083
652.5078125 0.255189 0.009767 -0.245422
653.18359375 0.92879 0.360853 -0.567937
653.45703125 0.346033 0.096119 -0.249914
654.1015625 0.7512679999999999 0.117965 -0.633303
655.02734375 0.881102 0.344184 -0.536918
655.33984375 0.291988 0.089254 -0.202734
656.0546875 0.691353 0.118851 -0.572502
656.35546875 0.269689 -0.010036 -0.279725
657.07421875 0.862551 0.303206 -0.559345
657.37109375 0.28 0.06 -0.22
658.09765625 0.901696 0.387543 -0.514153
658.375 0.305901 0.145 -0.160901
659.07421875 0.747531 0.138071 -0.60946
660.171875 0.039693000000000006 -0.190293 -0.229986
660.984375 0.663451 0.023451 -0.64
661.2890625 0.259849 0.019849 -0.24
662.06640625 0.739259 0.154436 -0.584823
662.35546875 0.270444 0.054983 -0.215461
663.08203125 0.797339 0.173207 -0.624132
663.37109375 0.27388199999999996 0.105042 -0.16884
664.09375 0.715881 0.033781 -0.6821
664.390625 0.221592 -0.027162 -0.248754
665.08984375 1.1067079999999998 0.501763 -0.604945
665.3515625 0.243923 -0.001077 -0.245
666.04296875 0.922317 0.242317 -0.68
666.98046875 0.711558 0.004957 -0.706601
668.01171875 0.738564 0.07917 -0.659394
669.0234375 0.779285 0.264507 -0.514778
669.3046875 0.173917 0.097267 -0.07665
669.98828125 0.638794 0.048794 -0.59
670.2890625 0.249811 0.049811 -0.2
670.97265625 0.781086 0.249578 -0.531508
671.25 0.23018 0.04 -0.19018
671.90625 0.875991 0.432133 -0.443858
672.18359375 0.294156 0.189848 -0.104308
672.8203125 0.9259539999999999 0.516103 -0.409851
673.1171875 0.28713299999999997 0.213535 -0.073598
673.8671875 0.7925199999999999 0.213381 -0.579139
674.16796875 0.26687 0.08687 -0.18
674.87109375 0.7025269999999999 0.105219 -0.597308
675.15234375 0.258674 0.104775 -0.153899
675.86328125 0.827877 0.212877 -0.615
676.1328125 0.263077 0.088228 -0.174849
676.8515625 0.717639 0.114876 -0.602763
677.1328125 0.18909399999999998 0.034151 -0.154943
677.8203125 0.795841 0.224638 -0.571203
678.08203125 0.24559999999999998 0.052219 -0.193381
678.76171875 0.9045160000000001 0.412125 -0.492391
679.03515625 0.2561 0.127682 -0.128418
679.79296875 0.848024 0.36818 -0.479844
680.86328125 0.8211120000000001 0.191112 -0.63
681.87890625 0.901176 0.291275 -0.609901
682.91796875 0.856775 0.244494 -0.612281
683.90625 0.8710209999999999 0.176731 -0.69429
684.1796875 0.229966 0.008576 -0.22139
684.87109375 0.7691699999999999 0.112172 -0.656998
685.953125 0.922616 0.373594 -0.549022
686.265625 0.262418 0.058164 -0.204254
687.03125 0.7542289999999999 0.172268 -0.581961
687.3125 0.24831399999999998 -0.0090 -0.257314
688.02734375 0.7369669999999999 0.064553 -0.672414
689.08984375 0.817866 0.197906 -0.61996
689.36328125 0.245012 0.029387 -0.215625
690.08984375 0.7479640000000001 0.062969 -0.684995
690.36328125 0.242143 0.04 -0.202143
691.05859375 0.612086 -0.115151 -0.727237
691.27734375 0.058547000000000016 -0.137843 -0.19639
692.12109375 0.5729110000000001 -0.041808 -0.614719
693.1875 0.718519 0.194211 -0.524308
693.4765625 0.249403 0.133505 -0.115898
694.1796875 0.581058 0.003906 -0.577152
694.4140625 0.05952400000000001 -0.010112 -0.069636
695.20703125 0.602056 -0.085113 -0.687169
696.18359375 0.632329 0.064899 -0.56743
696.4609375 0.264783 0.149924 -0.114859
697.140625 0.66211 0.080639 -0.581471
697.39453125 0.139932 0.11 -0.029932
698.18359375 0.640293 0.054712 -0.585581
698.48046875 0.262248 0.174981 -0.087267
699.23046875 0.585 0.065 -0.52
699.5234375 0.211127 0.125 -0.086127
699.9453125 0.6100749999999999 0.047356 -0.562719
700.3984375 1.013908 -0.006092 -1.02
700.640625 0.10663600000000001 0.173101 0.066465
700.89453125 0.66476 0.049983 -0.614777
701.37890625 0.7506120000000001 0.062871 -0.687741
701.609375 0.853654 0.165913 -0.687741
702.29296875 0.059591000000000005 -0.082975 -0.142566
702.59765625 1.8699999999999999 0.295 -1.575
703.58984375 0.595167 -0.06 -0.655167
704.8671875 0.579183 -0.155521 -0.734704
705.91796875 0.555331 -0.129595 -0.684926
706.17578125 0.281679 -0.007882 -0.289561
706.91796875 0.5647610000000001 -0.153935 -0.718696
707.15625 0.09932500000000001 -0.059464 -0.158789
707.92578125 0.596029 0.014584 -0.581445
708.19140625 0.26477 0.084806 -0.179964
708.875 0.6193970000000001 -0.075 -0.694397
709.109375 0.130184 -0.014746 -0.14493
709.85546875 0.584769 -0.225031 -0.8098
710.17578125 0.21737 -0.02 -0.23737
710.953125 0.567066 -0.027667 -0.594733
711.23828125 0.247469 0.117469 -0.13
711.9765625 0.6182920000000001 0.13043 -0.487862
712.25390625 0.259643 0.19 -0.069643
712.9921875 0.596867 0.043436 -0.553431
713.2734375 0.33464499999999997 0.208864 -0.125781
713.95703125 0.6332800000000001 -0.029171 -0.662451
714.2265625 0.066849 0.073177 0.006328
714.95703125 0.635731 0.141907 -0.493824
716.04296875 0.592704 0.15384 -0.438864
717.1015625 0.625564 0.035542 -0.590022
718.19140625 0.7107359999999999 -0.044235 -0.754971
719.19921875 0.628182 -0.089036 -0.717218
720.1328125 0.630314 0.025757 -0.604557
720.38671875 0.34184800000000004 0.233362 -0.108486
721.1015625 0.632475 -0.013545 -0.64602
721.3203125 0.079458 0.06 -0.019458
722.15234375 0.5916760000000001 -0.065 -0.656676
723.2109375 0.683983 0.124729 -0.559254
724.2421875 0.67826 0.104154 -0.574106
724.51953125 0.258312 0.114994 -0.143318
725.2421875 0.629971 0.002023 -0.627948
725.50390625 0.286317 0.102999 -0.183318
726.265625 0.640113 -0.007019 -0.647132
726.53515625 0.287355 0.092355 -0.195
727.2734375 0.647321 0.047543 -0.599778
727.5546875 0.24928899999999998 0.064289 -0.185
728.33984375 0.9469080000000001 0.355424 -0.591484
728.63671875 0.255431 0.024686 -0.230745
729.421875 0.8383020000000001 0.283407 -0.554895
729.703125 0.279844 0.12 -0.159844
730.4765625 0.7925230000000001 0.229292 -0.563231
730.75 0.293202 0.13 -0.163202
731.49609375 0.645911 -0.032756 -0.678667
731.765625 0.273475 0.086826 -0.186649
732.20703125 1.915236 0.37787 -1.537366
732.5 1.3111869999999999 0.47 -0.841187
733.60546875 0.68807 0.104938 -0.583132
737.73046875 1.860505 0.590525 -1.26998
745.875 2.054298 0.52 -1.534298
753.15625 1.92585 0.543906 -1.381944
754.68359375 1.153056 0.724723 -0.428333
755.72265625 1.101263 0.702396 -0.398867
756.7109375 1.131681 0.714713 -0.416968
757.796875 1.07752 0.568447 -0.509073
758.8671875 1.048469 0.499114 -0.549355
759.9140625 1.071828 0.524214 -0.547614
760.93359375 0.8664000000000001 0.306625 -0.559775
761.94140625 0.8531900000000001 0.278222 -0.574968
762.859375 0.722812 0.102812 -0.62
763.91015625 0.8425750000000001 0.225447 -0.617128
764.9375 1.06541 0.632262 -0.433148
765.93359375 1.098608 0.718499 -0.380109
766.91015625 0.935255 0.487924 -0.447331
767.85546875 0.708998 0.158998 -0.55
768.75390625 1.2112479999999999 0.556634 -0.654614
769.7734375 1.264025 0.785701 -0.478324
770.7890625 1.384776 0.864904 -0.519872
771.71875 1.109004 0.497598 -0.611406
772.66015625 1.1795840000000002 0.606238 -0.573346
773.60546875 0.792029 0.184925 -0.607104
774.5234375 1.1961840000000001 0.66759 -0.528594
775.4453125 0.860636 0.422128 -0.438508
776.45703125 0.770218 0.296907 -0.473311
777.44140625 0.9585290000000001 0.511677 -0.446852
777.734375 0.254344 0.187754 -0.06659
778.40234375 0.944828 0.507767 -0.437061
779.33203125 0.7464729999999999 0.301786 -0.444687
780.2734375 0.966848 0.560706 -0.406142
781.17578125 1.152489 0.808657 -0.343832
782.203125 1.5367529999999998 1.203882 -0.332871
783.203125 1.725567 1.488599 -0.236968
784.140625 1.405086 1.099714 -0.305372
785.10546875 0.9845729999999999 0.414573 -0.57
786.07421875 1.066384 0.485488 -0.580896
787.0 1.04 0.52 -0.52
788.01953125 0.874938 0.424988 -0.44995
789.07421875 1.208917 0.868893 -0.340024
790.0625 1.168633 0.840375 -0.328258
791.046875 1.146828 0.767344 -0.379484
792.03515625 0.8513729999999999 0.520241 -0.331132
792.97265625 0.8913409999999999 0.489869 -0.401472
793.984375 0.8664149999999999 0.478422 -0.387993
795.0390625 0.998829 0.529349 -0.46948
796.00390625 0.9529970000000001 0.509128 -0.443869
797.0 0.911667 0.475 -0.436667
797.95703125 0.8590629999999999 0.449553 -0.40951
798.8984375 0.9719059999999999 0.562407 -0.409499
799.90625 0.8300590000000001 0.38218 -0.447879
800.94921875 1.048688 0.610581 -0.438107
801.92578125 1.159373 0.674162 -0.485211
802.8828125 1.079373 0.674581 -0.404792
803.828125 1.092414 0.698493 -0.393921
804.7578125 0.9328190000000001 0.522865 -0.409954
805.73828125 1.12448 0.713414 -0.411066
806.75390625 0.9720799999999999 0.632095 -0.339985
807.734375 1.062859 0.658457 -0.404402
808.7109375 1.066761 0.754955 -0.311806
809.65234375 0.825987 0.412446 -0.413541
810.609375 1.0628389999999999 0.570703 -0.492136
811.6015625 0.9015219999999999 0.408379 -0.493143
812.6015625 1.019775 0.424775 -0.595
813.65234375 1.088767 0.545 -0.543767
814.62109375 0.806172 0.264282 -0.54189
815.5703125 1.0040149999999999 0.464421 -0.539594
816.55078125 0.806565 0.296987 -0.509578
817.5390625 0.891859 0.32707 -0.564789
818.55859375 0.9542269999999999 0.439789 -0.514438
819.58203125 1.208824 0.712469 -0.496355
819.875 0.33890600000000004 0.135 -0.203906
820.578125 0.939862 0.479862 -0.46
821.5390625 1.08399 0.6095 -0.47449
822.49609375 0.809752 0.38 -0.429752
823.234375 2.593282 0.613403 -1.979879
824.55078125 1.050485 0.571552 -0.478933
825.60546875 1.009805 0.504805 -0.505
826.62890625 0.9461600000000001 0.361173 -0.584987
827.61328125 0.9758070000000001 0.4522 -0.523607
828.609375 1.175935 0.665935 -0.51
829.6015625 0.924096 0.505256 -0.41884
830.6875 1.472778 1.032778 -0.44
831.7109375 1.117162 0.724619 -0.392543
832.7265625 1.337871 0.804736 -0.533135
833.70703125 1.5116230000000002 1.010113 -0.50151
834.68359375 1.4917960000000001 1.033605 -0.458191
835.71875 1.337554 0.823853 -0.513701
836.80078125 1.152908 0.516748 -0.63616
837.578125 2.452471 0.502119 -1.950352
838.875 1.299606 0.68 -0.619606
839.8671875 1.041841 0.47246 -0.569381
840.84375 1.313148 0.758862 -0.554286
841.8984375 1.2723520000000001 0.785016 -0.487336
842.9765625 1.281542 0.846542 -0.435
843.98046875 1.366467 0.994911 -0.371556
845.03125 1.2757580000000002 0.802946 -0.472812
846.015625 1.3989 0.895189 -0.503711
846.98046875 1.199904 0.634904 -0.565
847.59765625 2.369443 0.585 -1.784443
849.09375 1.4303340000000002 1.031462 -0.398872
850.09765625 1.365233 0.966241 -0.398992
851.12109375 1.343772 0.936137 -0.407635
852.09765625 1.348057 0.909579 -0.438478
853.046875 1.041813 0.619237 -0.422576
854.09765625 1.409351 0.999869 -0.409482
855.15234375 1.286018 0.841721 -0.444297
856.13671875 1.0643259999999999 0.528169 -0.536157
859.0390625 0.9544549999999999 0.354112 -0.600343
860.04296875 0.961332 0.397721 -0.563611
861.07421875 1.05334 0.530412 -0.522928
862.0390625 0.784558 0.204391 -0.580167
863.0390625 0.86198 0.269875 -0.592105
864.01953125 0.742677 0.184954 -0.557723
864.921875 0.8796390000000001 0.326757 -0.552882
865.95703125 1.041248 0.51 -0.531248
867.0078125 0.8216239999999999 0.368287 -0.453337
867.29296875 0.317399 0.158755 -0.158644
867.9765625 0.924291 0.390502 -0.533789
868.2578125 0.30344899999999997 0.12 -0.183449
868.97265625 0.934104 0.469104 -0.465
869.94140625 0.9843109999999999 0.559333 -0.424978
870.2265625 0.285163 0.140933 -0.14423
870.8828125 0.9759500000000001 0.528857 -0.447093
871.90234375 1.207695 0.922695 -0.285
872.203125 0.297529 0.190215 -0.107314
872.95703125 1.2975189999999999 0.967557 -0.329962
873.97265625 1.213526 0.8 -0.413526
874.97265625 0.8564480000000001 0.33942 -0.517028
876.8828125 1.024598 0.436444 -0.588154
877.93359375 1.082036 0.584599 -0.497437
878.9609375 1.082203 0.661626 -0.420577
879.96875 0.828044 0.227135 -0.600909
880.95703125 0.8172240000000001 0.068751 -0.748473
882.88671875 0.985708 0.268699 -0.717009
883.8828125 0.958992 0.345672 -0.61332
884.90625 1.070083 0.522727 -0.547356
885.8984375 1.135128 0.56 -0.575128
886.8515625 1.042779 0.482483 -0.560296
887.8046875 1.017274 0.434978 -0.582296
888.72265625 0.8307849999999999 0.291305 -0.53948
889.70703125 1.0470899999999999 0.475 -0.57209
890.734375 1.060481 0.554902 -0.505579
891.7265625 0.962558 0.479325 -0.483233
892.67578125 0.9877609999999999 0.392974 -0.594787
893.6171875 0.93105 0.441236 -0.489814
894.5625 0.883837 0.374295 -0.509542
895.5 0.899921 0.365 -0.534921
896.5078125 1.06231 0.617498 -0.444812
897.5 1.069988 0.55 -0.519988
898.46484375 1.0298129999999999 0.439813 -0.59
899.40625 0.8938999999999999 0.26096 -0.63294
900.32421875 1.009962 0.372011 -0.637951
901.29296875 1.0866600000000002 0.613473 -0.473187
902.27734375 1.081398 0.541398 -0.54
903.28125 1.0800610000000002 0.541041 -0.53902
904.21484375 0.876806 0.3154 -0.561406
905.16796875 1.3217919999999999 0.763605 -0.558187
906.11328125 1.171778 0.70187 -0.469908
907.03125 1.231644 0.6643 -0.567344
908.05859375 1.304171 0.7681 -0.536071
909.0390625 1.088357 0.479429 -0.608928
909.98046875 1.084974 0.434974 -0.65
910.9609375 0.9893430000000001 0.394433 -0.59491
911.8828125 1.1758440000000001 0.574361 -0.601483
912.796875 1.1840899999999999 0.629308 -0.554782
913.8515625 1.0141170000000002 0.451619 -0.562498
914.87109375 1.024009 0.392124 -0.631885
915.85546875 1.024651 0.335301 -0.68935
916.83203125 1.2682639999999998 0.673264 -0.595
917.8046875 1.216037 0.659612 -0.556425
918.734375 1.178227 0.608227 -0.57
919.79296875 1.143788 0.618241 -0.525547
920.828125 1.055776 0.498928 -0.556848
921.80859375 0.990214 0.394733 -0.595481
923.7109375 1.152712 0.494276 -0.658436
924.62890625 1.156449 0.624554 -0.531895
925.59765625 1.123696 0.658331 -0.465365
926.62890625 1.101825 0.501869 -0.599956
927.60546875 1.0949499999999999 0.48495 -0.61
928.55859375 1.032262 0.453631 -0.578631
929.5234375 0.8128960000000001 0.262947 -0.549949
930.47265625 1.150596 0.584988 -0.565608
931.40625 1.146719 0.637581 -0.509138
932.44921875 1.1294460000000002 0.581022 -0.548424
933.43359375 1.058901 0.489894 -0.569007
934.390625 1.087495 0.517495 -0.57
935.34375 1.058527 0.502676 -0.555851
936.2890625 0.7990659999999999 0.164596 -0.63447
937.2109375 1.121142 0.486142 -0.635
938.265625 1.0433240000000001 0.414651 -0.628673
939.26171875 0.88663 0.293505 -0.593125
940.21875 1.136803 0.53966 -0.597143
941.18359375 1.150272 0.594154 -0.556118
942.1484375 0.919945 0.365094 -0.554851
943.06640625 1.152795 0.547865 -0.60493
944.09375 1.030987 0.441929 -0.589058
945.1171875 0.826126 0.274401 -0.551725
946.03125 1.06059 0.471428 -0.589162
946.984375 1.3311389999999999 0.780727 -0.550412
947.9140625 1.249294 0.674656 -0.574638
948.80078125 1.246451 0.681997 -0.564454
949.76171875 1.004219 0.43 -0.574219
950.76171875 1.071171 0.52885 -0.542321
951.7265625 1.176509 0.626702 -0.549807
952.64453125 0.822155 0.289946 -0.532209
953.57421875 1.204004 0.654004 -0.55
954.52734375 1.282306 0.856383 -0.425923
955.46875 1.128523 0.708537 -0.419986
956.5078125 1.064673 0.58 -0.484673
957.51171875 1.108663 0.559961 -0.548702
958.4453125 1.033719 0.451891 -0.581828
959.3984375 0.936292 0.361317 -0.574975
960.3515625 0.992692 0.364062 -0.62863
961.30078125 1.086033 0.58 -0.506033
962.2890625 1.07704 0.47204 -0.605
963.31640625 1.089883 0.468884 -0.620999
964.2578125 1.009906 0.396026 -0.61388
965.21484375 1.006026 0.39724 -0.608786
966.16796875 0.937106 0.347523 -0.589583
967.06640625 1.0127510000000002 0.389282 -0.623469
968.07421875 1.262464 0.678558 -0.583906
969.1171875 1.089664 0.556749 -0.532915
970.08984375 1.028364 0.448411 -0.579953
971.05078125 1.0294370000000002 0.66 -0.369437
972.0 1.104985 0.715 -0.389985
972.94921875 0.926836 0.445 -0.481836
973.98046875 0.938052 0.324947 -0.613105
974.97265625 0.755991 0.105 -0.650991
975.9609375 0.928486 0.293211 -0.635275
976.91015625 0.863457 0.307507 -0.55595
977.85546875 1.0498910000000001 0.499891 -0.55
978.75 0.88521 0.27 -0.61521
979.74609375 0.7617799999999999 0.042445 -0.719335
980.74609375 0.9357730000000001 0.226438 -0.709335
981.72265625 0.783869 0.196339 -0.58753
982.68359375 1.1295540000000002 0.613167 -0.516387
983.58984375 0.979009 0.549014 -0.429995
984.07421875 1.957503 1.528245 -0.429258
985.44921875 0.904258 0.359955 -0.544303
986.25 0.794896 0.38 -0.414896
987.3515625 0.873786 0.239694 -0.634092
988.29296875 0.6586770000000001 0.023745 -0.634932
988.78515625 1.967924 0.383636 -1.584288
989.07421875 1.3765020000000001 0.486246 -0.890256
990.09765625 0.9497089999999999 0.53487 -0.414839
1049.37109375 0.798331 0.315239 -0.483092
1050.30859375 0.70728 0.119784 -0.587496
1050.5703125 0.342998 0.143779 -0.199219
1051.21875 0.581712 -0.068963 -0.650675
1051.47265625 0.139672 0.019672 -0.12
1052.19140625 0.551203 -0.170378 -0.721581
1052.46875 0.154063 0.024063 -0.13
1053.10546875 0.519578 -0.200076 -0.719654
1053.40234375 0.080884 -0.029116 -0.11
1054.1328125 0.6926190000000001 0.030526 -0.662093
1054.40234375 0.29961899999999997 0.109619 -0.19
1055.05859375 0.552466 -0.102534 -0.655
1055.31640625 0.339936 0.089936 -0.25
1055.953125 0.619865 -0.052945 -0.67281
1056.203125 0.14917 0.014661 -0.134509
1056.8671875 0.652744 -0.066862 -0.719606
1057.1640625 0.308141 0.07 -0.238141
1057.828125 0.582891 -0.141009 -0.7239
1058.1171875 0.30402799999999996 0.064363 -0.239665
1058.80078125 0.5568660000000001 -0.100277 -0.657143
1059.06640625 0.169574 0.06 -0.109574
1059.76171875 0.8022910000000001 0.127291 -0.675
1060.01953125 0.34445899999999996 0.1049 -0.239559
1060.6953125 0.695459 -0.020508 -0.715967
1060.96484375 0.394533 0.09206 -0.302473
1061.609375 0.588591 -0.113065 -0.701656
1061.87890625 0.30542400000000003 7.59E-4 -0.304665
1062.53125 0.821055 0.097133 -0.723922
1062.78125 0.279121 0.03 -0.249121
1063.5 0.814234 0.14 -0.674234
1063.78125 0.294985 0.105 -0.189985
1064.46484375 0.698214 0.037965 -0.660249
1065.4296875 0.8461719999999999 0.132372 -0.7138
1065.69921875 0.298142 0.048174 -0.249968
1066.37890625 0.7853939999999999 0.075394 -0.71
1066.66015625 0.277076 -0.005724 -0.2828
1067.29296875 0.672443 -0.031822 -0.704265
1068.21484375 0.812928 0.102411 -0.710517
1068.48046875 0.292321 0.074994 -0.217327
1069.1484375 0.684732 0.074318 -0.610414
1069.4296875 0.2775 0.115 -0.1625
1070.125 0.699114 0.03 -0.669114
1070.39453125 0.28401 0.129994 -0.154016
1071.09375 0.76274 0.13774 -0.625
1071.39453125 0.24999300000000002 -0.025007 -0.275
1072.00390625 0.60908 -0.060872 -0.669952
1072.28125 0.316517 -0.042188 -0.358705
1072.9765625 0.9909110000000001 0.312471 -0.67844
1073.24609375 0.419258 0.09 -0.329258
1073.890625 0.85519 0.358729 -0.496461
1074.1484375 0.40483399999999997 0.295191 -0.109643
1074.765625 0.8643339999999999 0.364334 -0.5
1075.0625 0.338149 0.294375 -0.043774
1075.79296875 0.776023 0.216631 -0.559392
1076.76953125 0.739549 0.059279 -0.68027
1077.05859375 0.264936 0.129936 -0.135
1077.73828125 0.70543 -0.02457 -0.73
1077.99609375 0.812871 0.082871 -0.73
1078.6796875 0.66729 -0.020948 -0.688238
1078.91015625 0.07999999999999999 -0.065 -0.145
1079.62109375 0.780358 0.029389 -0.750969
1079.89453125 0.25109400000000004 -0.045 -0.296094
1080.5234375 0.731924 0.096923 -0.635001
1080.7578125 0.524708 0.132231 -0.392477
1081.48046875 0.814987 0.289987 -0.525
1081.79296875 0.274964 0.208512 -0.066452
1082.515625 0.68598 0.129343 -0.556637
1082.80859375 0.278531 0.149936 -0.128595
1083.4765625 0.700497 0.146667 -0.55383
1083.7421875 0.344055 0.199077 -0.144978
1084.40625 0.8338859999999999 0.289062 -0.544824
1084.69140625 0.284699 0.214749 -0.06995
1085.35546875 0.728819 0.104966 -0.623853
1085.640625 0.283707 0.152715 -0.130992
1086.390625 0.052389000000000005 -0.088239 -0.140628
1087.17578125 0.671567 0.039753 -0.631814
1087.4765625 0.235443 0.137966 -0.097477
1088.20703125 0.6300819999999999 0.003721 -0.626361
1088.48828125 0.288149 0.143441 -0.144708
1089.1640625 0.619485 -0.018911 -0.638396
1089.44140625 0.267243 0.114766 -0.152477
1090.07421875 0.6416080000000001 -0.037646 -0.679254
1090.375 0.21493600000000002 0.0050 -0.209936
1090.9921875 0.629691 -0.125118 -0.754809
1091.26171875 0.23750499999999997 -0.036839 -0.274344
1091.93359375 0.7354320000000001 -0.024152 -0.759584
1092.19140625 0.344511 -4.31E-4 -0.344942
1092.8125 0.5948 -0.123824 -0.718624
1093.08984375 0.245 0.01 -0.235
1093.79296875 0.7745519999999999 0.069552 -0.705
1094.10546875 0.256557 0.029922 -0.226635
1094.8125 0.591625 -0.129228 -0.720853
1095.08984375 0.275779 -0.027733 -0.303512
1095.703125 0.546042 -0.263915 -0.809957
1095.97265625 0.673973 -0.135984 -0.809957
1096.7890625 0.04141800000000001 -0.290025 -0.331443
1097.625 0.7524930000000001 0.065 -0.687493
1097.90625 0.319017 0.054062 -0.264955
1098.55859375 0.6790930000000001 0.049613 -0.62948
1098.8046875 0.37571699999999997 0.11088 -0.264837
1099.52734375 0.797982 0.181916 -0.616066
1099.82421875 0.2755 0.107534 -0.167966
1100.578125 0.586199 0.007131 -0.579068
1100.87109375 0.261677 0.097951 -0.163726
1101.55859375 0.64745 0.006625 -0.640825
1101.80859375 0.539821 0.159531 -0.38029
1102.48046875 0.742606 0.154614 -0.587992
1102.7734375 0.307768 0.202768 -0.105
1103.421875 0.64186 0.04336 -0.5985
1103.69140625 0.341194 0.14074 -0.200454
1104.35546875 0.611586 -0.055057 -0.666643
1104.60546875 0.75 0.165 -0.585
1105.2578125 0.54664 -0.058338 -0.604978
1105.50390625 0.127144 0.08 -0.047144
1106.18359375 0.5639109999999999 -0.060053 -0.623964
1106.484375 0.054238 0.00927 -0.044968
1107.21484375 0.677692 0.102756 -0.574936
1107.50390625 0.308354 0.202374 -0.10598
1108.1171875 0.643151 0.108151 -0.535
1108.38671875 0.276657 0.206681 -0.069976
1109.0390625 0.669467 0.149932 -0.519535
1109.3046875 0.358632 0.237391 -0.121241
1109.9453125 0.703665 0.135758 -0.567907
1110.21875 0.33 0.2 -0.13
1110.8203125 0.616981 0.052264 -0.564717
1111.1171875 0.23889000000000002 0.14 -0.09889
1111.78515625 0.532258 -0.001904 -0.534162
1112.0703125 0.269385 0.144385 -0.125
1112.76953125 0.605639 0.080791 -0.524848
1113.0546875 0.301248 0.251248 -0.05
1113.8359375 0.050968999999999993 -0.035281 -0.08625
1114.61328125 0.661543 0.053379 -0.608164
1114.88671875 0.319147 0.204272 -0.114875
1115.51171875 0.6188859999999999 -0.005313 -0.624199
1115.78515625 0.26 0.125 -0.135
1116.43359375 0.6134729999999999 -0.01587 -0.629343
1116.66796875 0.7471129999999999 0.121635 -0.625478
1117.33203125 0.58631 -0.100379 -0.686689
1117.6015625 0.172717 0.033864 -0.138853
1118.21875 0.516093 -0.155 -0.671093
1119.234375 0.7226269999999999 0.127627 -0.595
1119.51953125 0.28997300000000004 0.124973 -0.165
1120.13671875 0.692069 0.129882 -0.562187
1120.41796875 0.295844 0.178271 -0.117573
1121.05078125 0.608102 0.043699 -0.564403
1121.31640625 0.304344 0.14 -0.164344
1121.95703125 0.618982 0.120341 -0.498641
1122.21484375 0.335634 0.232635 -0.102999
1122.859375 0.758337 0.283337 -0.475
1123.12890625 0.302501 0.242932 -0.059569
1123.8203125 0.658747 0.263793 -0.394954
1124.11328125 0.27807 0.228134 -0.049936
1124.46484375 0.107734 0.024213 -0.083521
1124.8125 0.7398640000000001 0.281449 -0.458415
1125.1171875 0.23445100000000002 0.269521 0.03507
1125.78515625 0.722486 0.235 -0.487486
1126.046875 0.285958 0.229414 -0.056544
1126.7109375 0.609941 0.094953 -0.514988
1126.98046875 0.21 0.155 -0.055
1127.62890625 0.746495 0.176554 -0.569941
1127.91015625 0.25546800000000003 0.189535 -0.065933
1128.54296875 0.661728 0.032313 -0.629415
1128.796875 0.35993200000000003 0.15 -0.209932
1129.46875 0.659611 0.083862 -0.575749
1129.765625 0.229564 0.15 -0.079564
1130.4296875 0.50947 -0.02053 -0.53
1130.7109375 0.264761 0.139886 -0.124875
1131.3984375 0.497612 -0.08718 -0.584792
1131.64453125 0.6546259999999999 0.09 -0.564626
1132.30078125 0.849845 0.325 -0.524845
1132.578125 0.23724299999999998 0.224899 -0.012344
1133.19921875 0.7851520000000001 0.358088 -0.427064
1133.4609375 0.29967 0.244838 -0.054832
1134.09765625 0.717726 0.134234 -0.583492
1134.99609375 0.7039820000000001 0.07976 -0.624222
1135.96875 0.780278 0.112124 -0.668154
1136.24609375 0.327566 0.082566 -0.245
1136.9140625 0.560164 -0.104429 -0.664593
1137.2109375 0.254139 0.034924 -0.219215
1137.859375 0.669457 9.06E-4 -0.668551
1138.140625 0.2577 0.099004 -0.158696
1138.78125 0.77 0.12 -0.65
1139.05859375 0.317468 0.069808 -0.24766
1139.6875 0.677619 0.083681 -0.593938
1139.9453125 0.374744 0.145161 -0.229583
1140.57421875 0.809477 0.209708 -0.599769
1140.82421875 0.390082 0.213082 -0.177
1141.52734375 0.688644 0.172711 -0.515933
1141.80859375 0.228131 0.229936 0.001805
1142.48046875 0.649966 0.094966 -0.555
1142.7578125 0.258269 0.143383 -0.114886
1143.421875 0.614044 -0.0079 -0.621944
1143.70703125 0.264888 0.115 -0.149888
1144.3359375 0.666795 0.018858 -0.647937
1144.625 0.25 0.12 -0.13
1145.22265625 0.571923 0.039728 -0.532195
1145.48046875 0.315884 0.164971 -0.150913
1146.11328125 0.5518689999999999 -0.009773 -0.561642
1146.375 0.30953200000000003 0.12 -0.189532
1146.9921875 0.682894 0.147621 -0.535273
1147.2890625 0.25493699999999997 0.189937 -0.065
1147.96875 0.686286 0.180537 -0.505749
1148.2578125 0.275125 0.18639 -0.088735
1148.93359375 0.49783099999999997 -0.027074 -0.524905
1149.2109375 0.249337 0.079962 -0.169375
1149.87890625 0.628331 0.059396 -0.568935
1150.17578125 0.253165 0.150353 -0.102812
1150.83203125 0.752778 0.163541 -0.589237
1151.10546875 0.364313 0.13495 -0.229363
1151.75 0.5182899999999999 -0.065 -0.58329
1152.6328125 0.563179 -0.07738 -0.640559
1153.6328125 0.707289 0.167592 -0.539697
1153.95703125 0.27873099999999995 0.144278 -0.134453
1154.64453125 0.5688650000000001 -0.030458 -0.599323
1154.921875 0.239895 -0.010105 -0.25
1155.58203125 0.601259 -0.016785 -0.618044
1155.83984375 0.38171999999999995 0.134312 -0.247408
1156.54296875 0.7292230000000001 0.189343 -0.53988
1156.81640625 0.256859 0.134725 -0.122134
1157.44921875 0.643837 0.074571 -0.569266
1157.70703125 0.35 0.135 -0.215
1158.34765625 0.648264 0.078264 -0.57
1158.6015625 0.309663 0.051706 -0.257957
1159.25 0.644959 0.095 -0.549959
1159.55859375 0.217752 0.064753 -0.152999
1160.265625 0.5886699999999999 0.01867 -0.57
1161.20703125 0.657832 0.12854 -0.529292
1161.47265625 0.174744 0.114016 -0.060728
1162.12109375 0.764548 0.259551 -0.504997
1162.40625 0.228981 0.114 -0.114981
1163.0625 0.61018 0.080772 -0.529408
1163.96484375 0.784413 0.229171 -0.555242
1164.234375 0.252312 0.142559 -0.109753
1164.8359375 0.704719 0.179725 -0.524994
1165.13671875 0.225702 0.08 -0.145702
1165.81640625 0.629374 0.149374 -0.48
1166.80859375 0.818729 0.414148 -0.404581
1167.08203125 0.243512 0.173512 -0.07
1167.7265625 0.836909 0.465803 -0.371106
1168.65234375 0.873094 0.463305 -0.409789
1169.57421875 0.751823 0.314047 -0.437776
1170.45703125 0.821173 0.297007 -0.524166
1171.38671875 0.82019 0.287361 -0.532829
1172.34765625 0.787721 0.239229 -0.548492
1173.31640625 0.8990690000000001 0.354092 -0.544977
1174.20703125 0.900156 0.349989 -0.550167
1175.15234375 0.81459 0.275 -0.53959
1176.046875 0.874526 0.277651 -0.596875
1176.91015625 0.8723129999999999 0.285 -0.587313
1177.875 0.8926270000000001 0.425 -0.467627
1178.84765625 0.8769629999999999 0.492499 -0.384464
1179.78125 1.006275 0.576448 -0.429827
1180.69921875 0.9132180000000001 0.493964 -0.419254
1181.6328125 0.849074 0.394599 -0.454475
1182.53515625 0.8595760000000001 0.347544 -0.512032
1183.47265625 0.8931169999999999 0.393849 -0.499268
1184.47265625 0.88785 0.375 -0.51285
1185.47265625 0.9244509999999999 0.327563 -0.596888
1186.3984375 0.915821 0.292364 -0.623457
1187.34375 0.8961359999999999 0.281562 -0.614574
1188.27734375 0.81435 0.214012 -0.600338
1189.1796875 0.800936 0.166528 -0.634408
1190.16015625 0.86547 0.288018 -0.577452
1191.12890625 0.800057 0.190057 -0.61
1192.06640625 0.9201619999999999 0.354606 -0.565556
1192.98046875 0.933832 0.399959 -0.533873
1193.91796875 0.7771440000000001 0.232331 -0.544813
1194.796875 0.890488 0.4135 -0.476988
1195.75 0.915925 0.42 -0.495925
1196.73046875 0.799894 0.279894 -0.52
1197.6875 0.861863 0.272419 -0.589444
1198.6015625 0.9545710000000001 0.400641 -0.55393
1199.51171875 0.845364 0.285364 -0.56
1200.421875 0.847215 0.331578 -0.515637
1201.33984375 0.875495 0.365583 -0.509912
1202.3125 0.7869160000000001 0.157857 -0.629059
1203.265625 0.687656 0.19 -0.497656
1204.203125 0.921516 0.364827 -0.556689
1205.10546875 0.8883220000000001 0.439899 -0.448423
1206.03515625 0.7377929999999999 0.29 -0.447793
1206.9375 0.718586 0.723687 0.005101
1207.87890625 0.8540989999999999 0.564099 -0.29
1208.90625 0.503534 -0.054182 -0.557716
1209.3671875 0.719187 -0.091332 -0.810519
1209.796875 0.7733 -0.127247 -0.900547
1210.0390625 0.194886 -0.305114 -0.5
1210.703125 0.8230390000000001 -0.270934 -1.093973
1210.96875 0.13930600000000004 -0.386 -0.525306
1211.58203125 0.908459 0.072209 -0.83625
1211.8515625 0.26475899999999997 -0.117632 -0.382391
1212.48046875 0.8455469999999999 0.009482 -0.836065
1213.375 0.840723 0.03 -0.810723
1214.3125 0.910817 0.150817 -0.76
1215.2578125 0.794714 0.122672 -0.672042
1216.16796875 0.906708 0.187086 -0.719622
1217.05078125 0.973531 0.338689 -0.634842
1217.93359375 0.79696 0.274953 -0.522007
1218.80859375 0.941549 0.291664 -0.649885
1219.7578125 0.890536 0.384466 -0.50607
1220.7265625 0.833993 0.293174 -0.540819
1221.6484375 1.015887 0.454755 -0.561132
1222.59375 0.77155 0.354258 -0.417292
1223.48828125 0.9809840000000001 0.464138 -0.516846
1224.41796875 0.5764469999999999 0.100613 -0.475834
1225.3671875 0.7366539999999999 -0.066386 -0.80304
1225.6171875 0.07953500000000002 -0.19 -0.269535
1226.328125 0.87228 0.070088 -0.802192
1227.3125 0.656785 -0.087805 -0.74459
1228.25 0.804242 0.025 -0.779242
1228.546875 0.264734 0.03 -0.234734
1229.203125 0.688558 0.063558 -0.625
1229.4765625 0.228802 0.158828 -0.069974
1230.1328125 0.779517 -0.009745 -0.789262
1230.41015625 0.252896 -0.106802 -0.359698
1231.07421875 0.927411 0.23911 -0.688301
1231.359375 0.321875 0.025 -0.296875
1232.078125 0.859686 0.161528 -0.698158
1233.04296875 0.681044 -0.143303 -0.824347
1234.02734375 0.756647 -0.010615 -0.767262
1234.9453125 0.587041 -0.15338 -0.740421
1235.24609375 0.29033200000000003 0.002134 -0.288198
1235.859375 0.593691 -0.252178 -0.845869
1236.76953125 0.597583 -0.215005 -0.812588
1237.7421875 0.728519 -0.061072 -0.789591
1238.04296875 0.248091 -0.096676 -0.344767
1238.6875 0.747923 0.089355 -0.658568
1238.95703125 0.239603 0.054603 -0.185
1239.6328125 0.7871360000000001 0.251977 -0.535159
1239.875 0.622399 0.155 -0.467399
1240.52734375 0.7970090000000001 0.399725 -0.397284
1240.8046875 0.264432 0.223352 -0.04108
1241.42578125 0.855349 0.453842 -0.401507
1241.69140625 0.29 0.205 -0.085
1242.3125 0.682747 0.228713 -0.454034
1242.55859375 0.49168500000000004 0.219378 -0.272307
1243.1796875 0.8370299999999999 0.48703 -0.35
1243.4921875 0.23376 0.21883 -0.01493
1244.15234375 0.947833 0.647924 -0.299909
1244.45703125 0.20702500000000001 0.232025 0.025
1244.72265625 0.049976999999999994 -0.09 -0.139977
1245.078125 0.952349 0.447349 -0.505
1245.359375 0.2266 0.11709 -0.10951
1245.96484375 0.894213 0.394218 -0.499995
1246.8515625 0.891989 0.284845 -0.607144
1247.125 0.25907 0.135 -0.12407
1247.72265625 0.712182 0.117182 -0.595
1248.00390625 0.206348 0.117566 -0.088782
1248.54296875 0.9039250000000001 0.353239 -0.550686
1248.8046875 0.271096 0.074092 -0.197004
1249.171875 0.05583899999999997 -0.244147 -0.299986
1249.42578125 0.686016 0.049576 -0.63644
1250.35546875 0.854529 0.209529 -0.645
1250.65625 0.253452 0.08846 -0.164992
1251.234375 0.8039769999999999 0.208977 -0.595
1251.515625 0.275758 0.08043 -0.195328
1252.08203125 0.8119000000000001 0.123426 -0.688474
1252.3515625 0.253298 0.078711 -0.174587
1253.01953125 0.04497100000000001 -0.225 -0.269971
1253.7578125 0.7376199999999999 0.188846 -0.548774
1254.01953125 0.263393 0.049949 -0.213444
1254.54296875 0.9310889999999999 0.351506 -0.579583
1254.78515625 0.595421 0.205 -0.390421
1255.37109375 0.814082 0.294082 -0.52
1256.32421875 0.767718 0.230699 -0.537019
1257.1953125 0.902317 0.362877 -0.53944
1257.453125 0.395 0.195 -0.2
1258.03125 0.7800069999999999 0.263955 -0.516052
1258.30078125 0.28883000000000003 0.12883 -0.16
1258.8828125 0.830334 0.267679 -0.562655
1259.15234375 0.26568800000000004 0.129775 -0.135913
1259.7265625 0.84002 0.315708 -0.524312
1259.98828125 0.375625 0.171281 -0.204344
1260.5625 0.836496 0.314449 -0.522047
1260.8203125 0.282565 0.083352 -0.199213
1261.4296875 0.7842739999999999 0.176943 -0.607331
1261.71484375 0.27281900000000003 0.079151 -0.193668
1262.37890625 0.8946940000000001 0.279754 -0.61494
1262.66796875 0.287931 0.083202 -0.204729
1263.3046875 0.653259 0.119006 -0.534253
1263.56640625 0.2975 0.105 -0.1925
1264.1484375 0.8295980000000001 0.324809 -0.504789
1264.3984375 0.40877399999999997 0.203774 -0.205
1265.01171875 0.789394 0.235 -0.554394
1265.28125 0.278709 0.061484 -0.217225
1265.8828125 1.042494 0.487561 -0.554933
1266.1484375 0.262248 0.183774 -0.078474
1266.703125 1.029106 0.567868 -0.461238
1267.6171875 1.0226540000000002 0.498317 -0.524337
1268.55859375 1.102578 0.629467 -0.473111
1269.47265625 1.065953 0.503737 -0.562216
1270.3359375 1.067646 0.474799 -0.592847
1271.19140625 1.177869 0.64253 -0.535339
1272.0625 1.0649359999999999 0.562372 -0.502564
1272.92578125 1.101392 0.631544 -0.469848
1273.828125 0.984254 0.504405 -0.479849
1274.78125 0.868947 0.1399 -0.729047
1275.6953125 0.852452 0.152575 -0.699877
1276.546875 0.868845 0.183898 -0.684947
1277.40625 0.885437 0.276418 -0.609019
1278.27734375 0.908031 0.411489 -0.496542
1278.52734375 0.35066699999999995 0.168531 -0.182136
1279.140625 0.723183 0.133613 -0.58957
1280.07421875 0.741491 0.072955 -0.668536
1281.01171875 0.777029 0.157472 -0.619557
1281.29296875 0.26762600000000003 0.118668 -0.148958
1281.89453125 0.7843469999999999 0.194969 -0.589378
1282.16015625 0.364789 0.11428 -0.250509
1282.77734375 0.598752 0.004065 -0.594687
1282.99609375 0.065791 -0.071315 -0.137106
1283.62890625 0.57975 -0.03172 -0.61147
1283.86328125 0.054896 -0.065613 -0.120509
1284.4921875 0.737895 0.081666 -0.656229
1284.7578125 0.34190499999999996 0.011493 -0.330412
1285.375 0.824979 0.215 -0.609979
1285.65625 0.278316 0.085536 -0.19278
1286.27734375 0.8888940000000001 0.409018 -0.479876
1286.55859375 0.289373 0.134867 -0.154506
1287.23828125 0.8719049999999999 0.371905 -0.5
1288.234375 0.041132 -0.022249 -0.063381
1288.984375 0.8369770000000001 0.321977 -0.515
1289.859375 0.762549 0.25068 -0.511869
1290.125 0.255 0.165 -0.09
1290.70703125 0.731129 0.214398 -0.516731
1290.98828125 0.27212800000000004 0.069355 -0.202773
1291.62109375 0.779011 0.154011 -0.625
1291.90625 0.214635 -0.030365 -0.245
1292.5078125 0.963057 0.419134 -0.543923
1292.79296875 0.223254 0.074953 -0.148301
1293.421875 0.968145 0.518145 -0.45
1293.6875 0.35928000000000004 0.19 -0.16928
1294.28515625 0.936884 0.390869 -0.546015
1295.1171875 0.909815 0.329815 -0.58
1295.9453125 1.069897 0.675139 -0.394758
1296.7890625 0.731569 0.181569 -0.55
1297.68359375 1.004808 0.545855 -0.458953
1298.55859375 0.989798 0.465 -0.524798
1299.49609375 0.7965059999999999 0.024535 -0.771971
1300.33984375 1.153486 0.598222 -0.555264
1301.171875 1.197151 0.6972 -0.499951
1302.0234375 1.176136 0.601158 -0.574978
1302.83203125 1.367222 0.942031 -0.425191
1303.75390625 1.037296 0.533175 -0.504121
1304.6328125 1.273325 0.895939 -0.377386
1305.54296875 0.9264399999999999 0.534389 -0.392051
1306.40234375 0.961948 0.511948 -0.45
1307.21875 1.057543 0.669563 -0.38798
1308.07421875 0.9111899999999999 0.4152 -0.49599
1308.89453125 1.0047760000000001 0.454506 -0.55027
1309.8046875 1.0861239999999999 0.571774 -0.51435
1310.7265625 0.897743 0.334042 -0.563701
1311.62109375 0.9985649999999999 0.422611 -0.575954
1312.4921875 1.0745209999999998 0.570144 -0.504377
1313.34765625 1.155091 0.676571 -0.47852
1314.20703125 1.0033400000000001 0.53834 -0.465
1315.0703125 0.843877 0.300105 -0.543772
1316.015625 1.060724 0.555771 -0.504953
1316.93359375 1.108749 0.649026 -0.459723
1317.8515625 0.9289320000000001 0.405854 -0.523078
1318.77734375 1.0616029999999999 0.392775 -0.668828
1319.625 1.031279 0.415 -0.616279
1320.5 1.085586 0.48 -0.605586
1321.4296875 0.834013 0.224955 -0.609058
1322.37890625 1.053234 0.518241 -0.534993
1323.3203125 0.924169 0.298508 -0.625661
1324.234375 1.003805 0.307977 -0.695828
1325.12109375 1.0319500000000001 0.664196 -0.367754
1326.0 0.7428840000000001 0.07 -0.672884
1326.83984375 1.244323 0.539389 -0.704934
1327.77734375 1.354079 0.898649 -0.45543
1328.72265625 1.150347 0.589586 -0.560761
1329.625 1.1092710000000001 0.58 -0.529271
1330.515625 1.020093 0.600486 -0.419607
1331.40234375 0.9778149999999999 0.42 -0.557815
1332.25390625 1.087173 0.552249 -0.534924
1333.1015625 0.9985729999999999 0.525351 -0.473222
1334.05078125 0.913639 0.279694 -0.633945
1334.9765625 0.976824 0.473661 -0.503163
1335.84765625 1.018886 0.444062 -0.574824
1336.73828125 1.031715 0.471447 -0.560268
1337.62890625 0.862667 0.167732 -0.694935
1339.31640625 0.971336 0.493671 -0.477665
1340.23046875 1.07 0.845 -0.225
1341.15234375 0.912914 0.592711 -0.320203
1342.03125 0.863268 0.347125 -0.516143
1342.90234375 0.9659530000000001 0.490366 -0.475587
1343.7734375 0.955808 0.430897 -0.524911
1344.6015625 0.892647 0.358603 -0.534044
1345.51171875 0.681738 0.106738 -0.575
1346.421875 0.920401 0.362774 -0.557627
1347.32421875 0.945465 0.446871 -0.498594
1348.17578125 0.904925 0.326259 -0.578666
1349.03515625 0.9719530000000001 0.483708 -0.488245
1349.90234375 0.857017 0.36218 -0.494837
1350.71484375 0.807849 0.272571 -0.535278
1351.609375 0.896345 0.466071 -0.430274
1352.53125 0.9589129999999999 0.554414 -0.404499
1353.453125 0.763035 0.297879 -0.465156
1354.296875 0.730861 0.12 -0.610861
1354.55078125 0.311313 -0.046246 -0.357559
1355.140625 0.6805049999999999 0.054255 -0.62625
1355.40234375 0.23793199999999998 0.106282 -0.13165
1356.0 1.00209 0.585 -0.41709
1356.265625 0.416309 0.341309 -0.075
1356.82421875 1.001355 0.628626 -0.372729
1357.74609375 0.866236 0.381236 -0.485
1358.65625 0.910262 0.405714 -0.504548
1359.57421875 0.919053 0.381271 -0.537782
1360.4375 0.833037 0.218712 -0.614325
1361.27734375 0.992248 0.492038 -0.50021
1362.15234375 0.9046590000000001 0.447711 -0.456948
1362.984375 0.887468 0.357332 -0.530136
1363.8984375 0.909423 0.449449 -0.459974
1364.77734375 1.01101 0.584028 -0.426982
1365.6953125 0.814557 0.329625 -0.484932
1366.546875 0.9594559999999999 0.583594 -0.375862
1367.390625 0.7878609999999999 0.271431 -0.51643
1368.26171875 0.7544489999999999 0.191073 -0.563376
1368.5078125 0.37210299999999996 0.095386 -0.276717
1369.09765625 0.743793 0.184056 -0.559737
1369.421875 0.344039 -0.115215 -0.459254
1369.625 0.31425400000000003 -0.145 -0.459254
1370.01953125 0.73716 -0.035076 -0.772236
1370.30859375 0.239554 -0.2 -0.439554
1370.92578125 0.658932 -0.162921 -0.821853
1371.19921875 0.7299249999999999 -0.091928 -0.821853
1371.79296875 0.824084 0.279148 -0.544936
1372.0625 0.32704700000000003 0.098542 -0.228505
1372.6796875 0.6116459999999999 -0.017414 -0.62906
1372.92578125 0.395491 0.062054 -0.333437
1373.5078125 0.702353 0.170327 -0.532026
1373.77734375 0.293072 0.165 -0.128072
1374.36328125 0.800531 0.360531 -0.44
1374.58984375 0.370437 0.305 -0.065437
1375.20703125 0.809094 0.283216 -0.525878
1375.4765625 0.242061 0.104706 -0.137355
1376.11328125 0.634094 0.056146 -0.577948
1376.40625 0.229541 0.18957 -0.039971
1376.9921875 0.849618 0.461035 -0.388583
1377.2734375 0.290514 0.3 0.009486
1377.890625 0.721447 0.211447 -0.51
1378.15625 0.450796 0.286906 -0.16389
1378.75 0.8385130000000001 0.325 -0.513513
1379.0078125 0.373921 0.259485 -0.114436
1379.5625 0.846738 0.343676 -0.503062
1379.8359375 0.320029 0.189973 -0.130056
1380.45703125 0.807959 0.086769 -0.72119
1381.32421875 0.773607 0.041435 -0.732172
1381.58984375 0.364115 -0.006802 -0.370917
1382.24609375 0.643371 -0.106063 -0.749434
1382.5390625 0.22270099999999998 -0.050168 -0.272869
1383.1484375 0.829751 0.18991 -0.639841
1383.421875 0.309323 0.184323 -0.125
1383.80859375 0.10370900000000001 -0.120133 -0.223842
1384.0390625 0.7782180000000001 0.211126 -0.567092
1384.90234375 0.860042 0.300366 -0.559676
1385.15625 0.420464 0.251836 -0.168628
1385.72265625 0.928516 0.496099 -0.432417
1385.9921875 0.313062 0.259729 -0.053333
1386.578125 0.747081 0.107446 -0.639635
1386.8359375 0.35784299999999997 0.024912 -0.332931
1387.46875 0.868108 0.195125 -0.672983
1387.7265625 0.287957 0.062957 -0.225
1388.3515625 0.707229 -0.078704 -0.785933
1388.62109375 0.318624 -0.14107 -0.459694
1389.234375 0.729193 0.019193 -0.71
1389.5078125 0.216287 0.086287 -0.13
1390.0859375 0.8330949999999999 0.351693 -0.481402
1390.3515625 0.31887699999999997 0.321706 0.002829
1390.92578125 0.8855299999999999 0.326027 -0.559503
1391.18359375 0.38994399999999996 0.175 -0.214944
1391.76171875 0.782411 0.163549 -0.618862
1392.03515625 0.3876 0.1626 -0.225
1392.58984375 0.810908 0.205908 -0.605
1392.8515625 0.404449 0.179449 -0.225
1393.48046875 0.692957 0.044011 -0.648946
1393.734375 0.312756 -0.017116 -0.329872
1394.359375 0.8017110000000001 0.088366 -0.713345
1394.63671875 0.259974 0.075 -0.184974
1395.22265625 0.806291 0.155 -0.651291
1395.484375 0.34886700000000004 0.1 -0.248867
1396.078125 0.7327089999999999 0.019272 -0.713437
1396.3515625 0.30200899999999997 -0.107991 -0.41
1396.94140625 0.579199 -0.401337 -0.980536
1397.203125 0.260606 -0.145556 -0.406162
1397.76171875 0.83272 0.163629 -0.669091
1398.01953125 0.424581 0.105 -0.319581
1398.5859375 0.8442829999999999 0.321142 -0.523141
1398.8671875 0.299409 0.224767 -0.074642
1399.5 0.86497 0.31 -0.55497
1399.78125 0.259077 0.13 -0.129077
1400.3828125 0.789683 0.244824 -0.544859
1400.6484375 0.368015 0.191144 -0.176871
1401.28515625 0.643124 -0.023504 -0.666628
1401.53515625 0.345072 -0.05 -0.395072
1402.1328125 0.644139 0.01758 -0.626559
1402.4140625 0.207182 0.124937 -0.082245
1402.98828125 0.853418 0.324136 -0.529282
1403.24609375 0.43796 0.259052 -0.178908
1403.8359375 0.709496 0.189496 -0.52
1404.08203125 0.33475699999999997 0.101296 -0.233461
1404.671875 0.809902 0.214355 -0.595547
1404.96484375 0.202285 0.117353 -0.084932
1405.58203125 0.853588 0.385771 -0.467817
1405.8828125 0.307408 0.277408 -0.03
1406.5078125 0.752536 0.133591 -0.618945
1406.765625 0.318776 -0.021161 -0.339937
1407.40625 0.918648 0.214682 -0.703966
1407.66015625 0.641115 0.119021 -0.522094
1408.2578125 1.060035 0.487202 -0.572833
1408.52734375 0.37948099999999996 0.199481 -0.18
1409.140625 0.934689 0.276798 -0.657891
1409.96875 1.298443 0.822522 -0.475921
1410.7890625 1.20389 0.865 -0.33889
1411.7265625 1.060359 0.488795 -0.571564
1412.61328125 1.0486529999999998 0.512231 -0.536422
1413.49609375 1.114652 0.661738 -0.452914
1414.35546875 0.979112 0.466079 -0.513033
1415.234375 1.143067 0.603067 -0.54
1416.0703125 0.934006 0.20726 -0.726746
1416.88671875 0.961829 0.193805 -0.768024
1417.87109375 0.8735799999999999 0.113393 -0.760187
1418.8046875 1.0544440000000002 0.421014 -0.63343
1419.70703125 0.9843470000000001 0.34518 -0.639167
1420.6171875 0.92597 0.261821 -0.664149
1421.5078125 0.889482 0.327808 -0.561674
1422.37890625 1.024432 0.546399 -0.478033
1423.24609375 1.239571 0.841768 -0.397803
1424.23828125 1.3156940000000001 0.97187 -0.343824
1425.1796875 1.346992 0.940429 -0.406563
1426.06640625 1.384759 1.039832 -0.344927
1426.9765625 1.15954 0.77454 -0.385
1427.8984375 1.097726 0.677749 -0.419977
1434.9296875 0.9509719999999999 0.325972 -0.625
1435.8125 0.816168 0.12628 -0.689888
1437.609375 0.7468600000000001 0.08186 -0.665
1438.4453125 0.5697669999999999 -0.155008 -0.724775
1439.3515625 0.6808989999999999 -0.174486 -0.855385
1440.1171875 0.6098089999999999 -0.015 -0.624809
1440.3671875 0.629212 0.25 -0.379212
1440.890625 0.619735 -0.27 -0.889735
1441.18359375 0.15999999999999998 -0.05 -0.21
1441.8984375 0.786391 -0.02763 -0.814021
1442.75 0.57021 -0.01 -0.58021
1443.00390625 0.718496 0.321055 -0.397441
1443.6328125 0.563249 -0.190323 -0.753572
1444.546875 0.7491209999999999 -0.065879 -0.815
1445.30078125 0.588213 0.103901 -0.484312
1445.55078125 0.845456 0.361144 -0.484312
1446.25 0.6077049999999999 -0.035 -0.642705
1447.08203125 0.7435299999999999 0.17853 -0.565
1447.98046875 0.679882 0.204928 -0.474954
1448.18359375 0.399162 0.524642 0.12548
1448.84765625 0.603004 0.06335 -0.539654
1449.06640625 0.07964199999999999 0.139642 0.06
1449.8125 0.63504 -0.399375 -1.034415
1450.6484375 0.658122 -0.161755 -0.819877
1451.42578125 0.618045 0.012648 -0.605397
1452.296875 0.6097680000000001 -0.105084 -0.714852
1453.1328125 0.680439 0.157891 -0.522548
1453.38671875 0.175734 0.219387 0.043653
1454.03125 0.650734 0.149668 -0.501066
1454.26171875 0.10114999999999999 0.086781 -0.014369
1454.9609375 0.6156 -0.230208 -0.845808
1455.1875 0.101679 -0.071 -0.172679
1455.81640625 0.593526 -0.080575 -0.674101
1456.08203125 0.527888 0.14 -0.387888
1456.6796875 0.616809 -0.072414 -0.689223
1457.53125 0.572484 -0.217652 -0.790136
1458.38671875 0.5826159999999999 -0.080528 -0.663144
1458.609375 0.813144 0.15 -0.663144
1459.25 0.5843430000000001 -0.08 -0.664343
1459.52734375 0.268007 -0.016968 -0.284975
1460.15234375 0.6068690000000001 -0.321575 -0.928444
1460.42578125 0.337235 -0.052765 -0.39
1461.0703125 0.597774 -0.148237 -0.746011
1461.29296875 0.06224099999999999 -0.017753 -0.079994
1461.94140625 0.617321 0.004523 -0.612798
1462.1953125 0.48084000000000005 0.173486 -0.307354
1462.796875 0.7734589999999999 0.228582 -0.544877
1463.046875 0.441238 0.19959 -0.241648
1463.65625 0.698339 0.16625 -0.532089
1463.9140625 0.385625 0.229932 -0.155693
1464.49609375 0.836149 0.366297 -0.469852
1464.76171875 0.264698 0.224698 -0.04
1465.421875 0.777794 0.304461 -0.473333
1465.6953125 0.272719 0.214344 -0.058375
1466.3515625 0.735123 0.190101 -0.545022
1466.6328125 0.21983199999999997 0.145 -0.074832
1467.3046875 0.648188 0.099808 -0.54838
1467.578125 0.394849 0.278916 -0.115933
1468.1875 0.7414280000000001 0.203713 -0.537715
1468.44140625 0.362052 0.304531 -0.057521
1469.04296875 0.716105 0.158101 -0.558004
1469.30859375 0.232427 0.07493 -0.157497
1469.90234375 0.718187 0.079369 -0.638818
1470.17578125 0.221833 0.135072 -0.086761
1470.734375 0.605 -0.065 -0.67
1470.99609375 0.07433300000000001 -0.095 -0.169333
1471.6484375 0.6421450000000001 -0.042855 -0.685
1471.9296875 0.220918 0.063128 -0.15779
1472.51953125 0.6967300000000001 0.094878 -0.601852
1472.79296875 0.28407000000000004 0.191119 -0.092951
1473.4375 0.6471210000000001 0.023 -0.624121
1473.69140625 0.279662 -0.035311 -0.314973
1474.29296875 0.543662 -0.180596 -0.724258
1474.54296875 0.7585489999999999 0.132025 -0.626524
1475.1171875 0.682137 0.172529 -0.509608
1475.359375 0.340538 0.195 -0.145538
1475.96875 0.58692 -0.183025 -0.769945
1476.22265625 0.28500000000000003 -0.105 -0.39
1476.7890625 0.697551 0.054529 -0.643022
1477.07421875 0.228189 0.109415 -0.118774
1477.69921875 0.586284 -0.133048 -0.719332
1477.9765625 0.32089300000000004 -0.102861 -0.423754
1478.6015625 0.593612 -0.242203 -0.835815
1478.875 0.263401 0.0050 -0.258401
1479.49609375 0.657467 0.102255 -0.555212
1479.7421875 0.425938 0.18 -0.245938
1480.37109375 0.728584 0.17533 -0.553254
1480.625 0.504149 0.275 -0.229149
1481.1953125 0.649408 0.089484 -0.559924
1481.4375 0.43027699999999997 0.146667 -0.28361
1482.0546875 0.629085 -0.080514 -0.709599
1482.30859375 0.411493 0.054946 -0.356547
1482.87109375 0.648386 0.182993 -0.465393
1483.15625 0.262094 0.33346 0.071366
1483.54296875 0.058183 -0.014532 -0.072715
1483.7890625 0.734595 0.224768 -0.509827
1484.07421875 0.313774 0.145 -0.168774
1484.71484375 0.652819 0.082288 -0.570531
1484.98828125 0.172728 0.252548 0.07982
1485.58984375 0.9798659999999999 0.63989 -0.339976
1485.859375 0.307731 0.304121 -0.00361
1486.48046875 0.8788590000000001 0.299879 -0.57898
1487.34765625 0.874963 0.213187 -0.661776
1488.19140625 0.871973 0.267035 -0.604938
1489.0546875 0.80349 0.061338 -0.742152
1490.015625 0.6930470000000001 -0.021152 -0.714199
1490.9140625 0.8471549999999999 0.304289 -0.542866
1491.1875 0.258079 0.203333 -0.054746
1491.8203125 0.680855 0.026471 -0.654384
1492.7421875 0.631918 -0.080358 -0.712276
1493.58203125 0.6554260000000001 0.042062 -0.613364
1493.8359375 0.401894 0.15975 -0.242144
1494.4453125 0.650907 -0.050505 -0.701412
1494.6875 0.260299 -0.101562 -0.361861
1495.34765625 0.571155 -0.305964 -0.877119
1495.57421875 0.062948 -0.216928 -0.279876
1496.2890625 0.5388120000000001 -0.062862 -0.601674
1497.20703125 0.591902 0.098509 -0.493393
1497.45703125 0.324438 0.155828 -0.16861
1498.09765625 0.770151 0.257262 -0.512889
1498.38671875 0.228876 0.162246 -0.06663
1499.01171875 0.7739929999999999 0.30918 -0.464813
1499.2734375 0.32974400000000004 0.170191 -0.159553
1499.88671875 0.8161780000000001 0.316178 -0.5
1500.15234375 0.23446699999999998 0.174481 -0.059986
1500.73828125 0.725511 0.185511 -0.54
1501.00390625 0.342635 0.17786 -0.164775
1501.69140625 0.680739 0.125 -0.555739
1501.97265625 0.185234 0.155 -0.030234
1502.64453125 0.593734 -0.019203 -0.612937
1502.921875 0.19655299999999998 0.11957 -0.076983
1503.56640625 0.570428 -0.099131 -0.669559
1503.8359375 0.257796 -0.010032 -0.267828
1504.48046875 0.596013 0.009939 -0.586074
1504.75390625 0.257164 0.122914 -0.13425
1504.98828125 0.05142400000000001 -0.107884 -0.159308
1505.359375 0.633467 0.068467 -0.565
1505.6171875 0.223339 0.124729 -0.09861
1505.8671875 0.054992 -0.075 -0.129992
1506.23828125 0.5234949999999999 -0.026282 -0.549777
1506.484375 0.43349200000000004 -0.073239 -0.506731
1507.10546875 0.567994 0.004906 -0.563088
1507.3359375 0.077559 0.065 -0.012559
1508.03125 0.641698 0.207566 -0.434132
1508.33203125 0.23897200000000002 0.227136 -0.011836
1508.984375 0.623066 0.078066 -0.545
1509.25390625 0.21632300000000004 -0.111021 -0.327344
1509.859375 0.546027 -0.263973 -0.81
1510.1171875 0.162285 -0.05 -0.212285
1510.7578125 0.7530760000000001 0.127222 -0.625854
1511.03125 0.371324 0.101906 -0.269418
1511.6484375 0.5683799999999999 -0.156565 -0.724945
1511.8984375 0.28246899999999997 -0.16 -0.442469
1512.49609375 0.654038 -0.100575 -0.754613
1512.75 0.680011 0.055 -0.625011
1513.39453125 0.717978 0.075 -0.642978
1513.6640625 0.23603400000000002 0.134975 -0.101059
1514.34765625 0.6807920000000001 -0.033647 -0.714439
1515.28515625 0.6200749999999999 -0.249881 -0.869956
1516.24609375 0.042560000000000014 -0.165541 -0.208101
1517.02734375 0.629104 -0.07318 -0.702284
1517.30078125 0.254095 -0.07549 -0.329585
1517.890625 0.705109 0.088295 -0.616814
1518.1484375 0.39543399999999995 0.160933 -0.234501
1518.6875 0.757357 0.237448 -0.519909
1518.96484375 0.301508 0.251086 -0.050422
1519.6015625 0.811715 0.36223 -0.449485
1519.86328125 0.30341300000000004 0.204272 -0.099141
1520.51171875 0.7823720000000001 0.168228 -0.614144
1520.78125 0.299555 0.099609 -0.199946
1521.39453125 0.755949 0.014795 -0.741154
1521.64453125 0.22448099999999999 -0.19 -0.414481
1522.21875 0.7949660000000001 0.086643 -0.708323
1522.48046875 0.36490700000000004 0.059964 -0.304943
1523.04296875 0.903932 0.324214 -0.579718
1523.3125 0.343438 0.138438 -0.205
1523.89453125 0.76006 0.129969 -0.630091
1524.6796875 0.813547 0.306395 -0.507152
1525.5625 0.834146 0.389896 -0.44425
1525.84375 0.298 0.29375 -0.00425
1526.46875 0.67428 0.116126 -0.558154
1527.36328125 0.713551 0.093551 -0.62
1528.19140625 0.7817919999999999 0.108471 -0.673321
1528.4453125 0.341044 0.069344 -0.2717
1529.03515625 0.5468059999999999 -0.264542 -0.811348
1529.26171875 0.10671900000000001 -0.1 -0.206719
1529.89453125 0.59302 -0.171098 -0.764118
1530.14453125 0.5990989999999999 -0.165019 -0.764118
1530.71875 0.5615849999999999 -0.485067 -1.046652
1530.9921875 0.31383 -0.31617 -0.63
1531.59765625 0.578382 -0.276416 -0.854798
1531.87890625 0.203148 -0.12 -0.323148
1532.51171875 0.590931 -0.073327 -0.664258
1532.78125 0.270041 0.010312 -0.259729
1533.42578125 0.71458 0.059861 -0.654719
1533.6796875 0.38710599999999995 0.035 -0.352106
1534.2890625 0.8140850000000001 0.239437 -0.574648
1534.54296875 0.41000000000000003 0.155 -0.255
1535.13671875 0.824286 0.271382 -0.552904
1535.39453125 0.349358 0.149983 -0.199375
1536.03125 0.813111 0.315993 -0.497118
1536.29296875 0.433583 0.301869 -0.131714
1536.87890625 0.8810279999999999 0.351034 -0.529994
1537.16015625 0.304506 0.2 -0.104506
1537.7890625 0.923291 0.390583 -0.532708
1538.7109375 0.919224 0.284825 -0.634399
1539.62109375 0.8316250000000001 0.169946 -0.661679
1540.48046875 0.8832260000000001 0.405294 -0.477932
1541.31640625 0.819523 0.344523 -0.475
1542.1953125 0.78511 0.075251 -0.709859
1543.015625 0.8980060000000001 0.284245 -0.613761
1543.8984375 0.995534 0.595534 -0.4
1544.8046875 0.879193 0.185211 -0.693982
1545.67578125 1.119547 0.449593 -0.669954
1546.52734375 1.1344049999999999 0.709405 -0.425
1547.3671875 0.9910490000000001 0.094813 -0.896236
1548.21875 1.2195 0.772143 -0.447357
1549.046875 1.214036 0.753219 -0.460817
1549.9375 0.998314 0.051048 -0.947266
1550.8125 1.219601 0.687037 -0.532564
1551.6796875 1.0822370000000001 0.597237 -0.485
1552.54296875 1.04087 0.430979 -0.609891
1553.34375 1.212721 0.98692 -0.225801
1554.203125 1.147353 0.549528 -0.597825
1555.0234375 1.228231 0.859712 -0.368519
1555.875 1.189984 0.805 -0.384984
1556.75390625 1.0692409999999999 0.539282 -0.529959
1557.58984375 1.318438 0.976536 -0.341902
1558.44921875 1.037165 0.437571 -0.599594
1559.2421875 1.307129 1.049567 -0.257562
1560.07421875 1.133263 0.728609 -0.404654
1560.88671875 1.2217 0.969747 -0.251953
1561.73046875 1.1810420000000001 1.00997 -0.171072
1562.6015625 0.88298 0.47298 -0.41
1563.4375 1.011496 0.897828 -0.113668
1564.25 1.024937 0.68 -0.344937
1565.0546875 0.873397 0.299472 -0.573925
1565.84765625 1.048622 0.468893 -0.579729
1566.63671875 0.875144 0.091971 -0.783173
1567.48828125 0.987799 0.455233 -0.532566
1568.30859375 1.044331 0.639578 -0.404753
1569.15234375 0.9594639999999999 0.383611 -0.575853
1569.9765625 0.9734339999999999 0.518976 -0.454458
1570.78515625 1.0744850000000001 0.650584 -0.423901
1571.59375 0.765955 0.076805 -0.68915
1572.3984375 0.9898199999999999 0.536959 -0.452861
1573.234375 0.880114 0.535114 -0.345
1574.109375 0.7486189999999999 0.158619 -0.59
1574.9765625 0.7763960000000001 0.346619 -0.429777
1575.8046875 0.73977 0.276045 -0.463725
1576.65625 0.660548 0.203523 -0.457025
1577.45703125 0.8156680000000001 0.468743 -0.346925
1578.2578125 0.876004 0.64192 -0.234084
1578.49609375 0.579413 0.345329 -0.234084
1579.09765625 1.147009 0.927009 -0.22
1579.375 0.399849 0.37 -0.029849
1579.9921875 1.1620329999999999 0.983455 -0.178578
1580.859375 1.15409 0.918067 -0.236023
1581.71484375 1.072785 0.706476 -0.366309
1582.61328125 0.905964 0.460552 -0.445412
1583.44921875 1.0003630000000001 0.540093 -0.46027
1584.28515625 0.843165 0.251742 -0.591423
1585.16015625 0.59598 -0.08786 -0.68384
1586.0703125 0.788362 0.171683 -0.616679
1586.359375 0.18841799999999997 0.015 -0.173418
1586.94140625 0.692266 -0.012517 -0.704783
1587.7578125 0.986372 0.458159 -0.528213
1588.59375 0.9269689999999999 0.383674 -0.543295
1589.4296875 0.900045 0.130585 -0.76946
1590.22265625 1.0987879999999999 0.539586 -0.559202
1591.03515625 1.097535 0.510658 -0.586877
1591.96875 0.868744 0.023945 -0.844799
1592.8359375 1.007435 0.417758 -0.589677
1593.66796875 1.043088 0.489215 -0.553873
1594.5390625 0.958749 0.224289 -0.73446
1595.3828125 1.036607 0.497672 -0.538935
1596.203125 1.190827 0.77884 -0.411987
1597.03515625 0.990096 0.390555 -0.599541
1597.9765625 1.084567 0.66 -0.424567
1598.6953125 1.0826259999999999 0.679476 -0.40315
1599.69921875 0.925696 0.412365 -0.513331
1600.6171875 0.960323 0.420602 -0.539721
1601.47265625 0.966912 0.578743 -0.388169
1602.3125 0.82978 0.340455 -0.489325
1603.12109375 0.789874 0.238193 -0.551681
1604.046875 0.774192 0.067853 -0.706339
1604.80859375 0.743494 0.129252 -0.614242
1605.74609375 0.632582 0.057582 -0.575
1606.61328125 0.588457 -0.051543 -0.64
1607.41796875 0.548268 -0.081481 -0.629749
1608.234375 0.516122 -0.148878 -0.665
1608.46875 0.595156 -0.069844 -0.665
1609.01953125 0.549819 -0.150181 -0.7
1609.296875 0.17198300000000002 -0.101633 -0.273616
1609.87109375 0.540883 -0.130367 -0.67125
1610.17578125 0.166112 -0.023594 -0.189706
1610.7578125 0.597871 -0.056867 -0.654738
1611.03125 0.20362 -0.008516 -0.212136
1611.5703125 0.516053 -0.129973 -0.646026
1612.1640625 0.490935 -0.286783 -0.777718
1612.4140625 0.29036300000000004 -0.259532 -0.549895
1613.07421875 0.89015 0.309738 -0.580412
1613.89453125 0.820937 0.264788 -0.556149
1614.1640625 0.31460299999999997 0.064974 -0.249629
1614.6328125 0.7404350000000001 0.189632 -0.550803
1615.46875 0.5749850000000001 -0.22 -0.794985
1616.3203125 0.7651159999999999 0.075521 -0.689595
1617.14453125 0.658239 0.16494 -0.493299
1617.3984375 0.377009 0.232009 -0.145
1617.92578125 0.703812 0.235825 -0.467987
1618.1796875 0.312551 0.152327 -0.160224
1618.68359375 0.46372199999999997 -0.425802 -0.889524
1618.98046875 0.5652739999999999 -0.26 -0.825274
1619.5078125 0.549697 -0.067623 -0.61732
1619.76171875 0.443862 0.213862 -0.23
1620.46484375 0.12000000000000001 -0.045 -0.165
1621.2109375 0.04488599999999998 -0.255114 -0.3
1621.8984375 0.584794 -0.429492 -1.014286
1622.17578125 0.10608000000000001 -0.2 -0.30608
1622.82421875 0.524522 -0.09702 -0.621542
1623.09375 0.39602400000000004 0.13846 -0.257564
1623.640625 0.613294 0.034564 -0.57873
1623.875 0.77373 0.195 -0.57873
1624.078125 0.03322 -0.180266 -0.213486
1624.44921875 0.5006130000000001 -0.144087 -0.6447
1624.69140625 0.304479 -0.030504 -0.334983
1625.25390625 0.610385 0.015504 -0.594881
1625.5078125 0.42245900000000003 0.179777 -0.242682
1626.17578125 0.04322900000000002 -0.133067 -0.176296
1626.51171875 0.043503000000000014 -0.290518 -0.334021
1626.86328125 0.553639 -0.038084 -0.591723
1627.140625 0.256124 0.114487 -0.141637
1627.71484375 0.803938 0.389615 -0.414323
1627.97265625 0.365147 0.30107 -0.064077
1628.578125 0.899033 0.404395 -0.494638
1628.85546875 0.281347 0.01 -0.271347
1629.453125 0.903899 0.383586 -0.520313
1630.25390625 0.858567 0.488274 -0.370293
1631.06640625 0.904452 0.464452 -0.44
1631.8828125 0.701295 0.176295 -0.525
1632.69140625 0.757655 0.232583 -0.525072
1633.53125 0.672689 0.144107 -0.528582
1633.8046875 0.265 0.04 -0.225
1634.41796875 0.633633 0.039538 -0.594095
1635.29296875 0.579841 0.090045 -0.489796
1635.54296875 0.313901 0.107266 -0.206635
1636.11328125 0.8204199999999999 0.34542 -0.475
1636.375 0.334849 0.17 -0.164849
1636.95703125 0.844168 0.431777 -0.412391
1637.22265625 0.356776 0.194016 -0.16276
1637.80078125 0.956605 0.507638 -0.448967
1638.640625 0.9710909999999999 0.603409 -0.367682
1639.5625 0.93275 0.492838 -0.439912
1640.47265625 0.797021 0.286898 -0.510123
1641.421875 0.766081 0.191138 -0.574943
1643.16015625 0.860803 0.32127 -0.539533
1644.04296875 0.824774 0.249827 -0.574947
1644.91796875 0.7664329999999999 0.169769 -0.596664
1645.8359375 0.753285 0.179896 -0.573389
1646.74609375 0.750006 0.17733 -0.572676
1647.64453125 0.645877 0.041069 -0.604808
1648.515625 0.625972 0.039253 -0.586719
1649.37109375 0.54509 -0.03 -0.57509
1650.1953125 0.7777419999999999 0.307458 -0.470284
1650.4296875 0.566182 0.095898 -0.470284
1651.06640625 0.608865 0.079333 -0.529532
1651.9609375 0.558323 -0.050353 -0.608676
1652.828125 0.5314019999999999 -0.04 -0.571402
1653.0859375 0.25040799999999996 0.035468 -0.21494
1653.703125 0.575575 0.013184 -0.562391
1653.953125 0.241106 0.039458 -0.201648
1654.5546875 0.667906 0.179874 -0.488032
1654.8125 0.360738 0.140833 -0.219905
1655.03125 0.03500000000000002 -0.105 -0.14
1655.38671875 0.857328 0.39359 -0.463738
1655.6640625 0.264168 0.1149 -0.149268
1656.24609375 0.97029 0.498393 -0.471897
1656.46484375 0.629532 0.157635 -0.471897
1657.09765625 0.992618 0.678765 -0.313853
1658.01953125 1.024652 0.544878 -0.479774
1658.9296875 1.013214 0.480642 -0.532572
1659.81640625 0.839019 0.404953 -0.434066
1661.5078125 0.8891709999999999 0.562682 -0.326489
1662.33203125 0.774477 0.209085 -0.565392
1663.19921875 0.6417740000000001 -0.026898 -0.668672
1664.06640625 0.98461 0.489634 -0.494976
1664.92578125 0.6723279999999999 0.113192 -0.559136
1665.7734375 0.872144 0.367522 -0.504622
1666.5859375 0.827564 0.378304 -0.44926
1667.390625 0.734467 0.062146 -0.672321
1668.19140625 0.998566 0.623566 -0.375
1668.97265625 0.9485140000000001 0.496807 -0.451707
1669.86328125 0.9414750000000001 0.386475 -0.555
1670.7109375 0.899649 0.314659 -0.58499
1671.5625 0.9072800000000001 0.229211 -0.678069
1672.390625 0.9973920000000001 0.492756 -0.504636
1673.21875 0.8006230000000001 0.132646 -0.667977
1674.046875 0.877078 0.272419 -0.604659
1674.83984375 1.153712 0.688806 -0.464906
1675.140625 0.26663800000000004 0.197754 -0.068884
1675.7734375 1.089259 0.639525 -0.449734
1676.6953125 1.077572 0.702971 -0.374601
1677.55859375 1.161645 0.878638 -0.283007
1678.4609375 0.994939 0.689952 -0.304987
1679.33203125 1.082473 0.658543 -0.42393
1680.16796875 1.102973 0.763101 -0.339872
1681.01171875 0.9008320000000001 0.371725 -0.529107
1682.0 0.707676 0.01 -0.697676
1683.7578125 0.776315 0.373004 -0.403311
1684.65234375 1.071783 0.696981 -0.374802
1685.51171875 1.076366 0.678564 -0.397802
1686.34765625 1.153178 0.599702 -0.553476
1687.2109375 1.1511900000000002 0.584678 -0.566512
1688.140625 1.113324 0.577337 -0.535987
1689.07421875 1.165599 0.656737 -0.508862
1689.93359375 1.331077 0.844679 -0.486398
1690.83203125 1.312042 0.703682 -0.60836
1691.703125 1.224337 0.684827 -0.53951
1692.5078125 0.970336 0.456252 -0.514084
1693.4140625 0.88638 0.33 -0.55638
1696.03125 0.5792109999999999 -0.081219 -0.66043
1697.015625 0.589497 -0.125 -0.714497
1697.77734375 0.645962 0.121602 -0.52436
1698.03125 0.29321400000000003 0.17 -0.123214
1698.6015625 0.54427 -0.327269 -0.871539
1699.49609375 0.5742430000000001 -0.124138 -0.698381
1699.76171875 0.414544 0.164636 -0.249908
1700.37890625 0.638788 0.075893 -0.562895
1700.64453125 0.27424099999999996 -0.060022 -0.334263
1701.2890625 0.517334 -0.380433 -0.897767
1701.53125 0.625934 -0.146641 -0.772575
1702.1171875 0.60715 -0.027777 -0.634927
1702.36328125 0.50499 0.065 -0.43999
1702.9609375 0.647473 0.239253 -0.40822
1703.21484375 0.15911699999999998 0.275155 0.116038
1703.8125 0.558232 -0.081667 -0.639899
1704.0625 0.264011 -0.080625 -0.344636
1704.6171875 0.562518 -0.238965 -0.801483
1704.8671875 0.173464 0.084539 -0.088925
1705.5078125 0.683164 0.266605 -0.416559
1705.77734375 0.265083 0.229849 -0.035234
1706.41015625 0.55931 -0.295137 -0.854447
1707.3046875 0.660033 -0.10863 -0.768663
1708.125 0.671493 0.0050 -0.666493
1708.375 0.284355 -0.05 -0.334355
1708.98046875 0.586255 -0.185026 -0.771281
1709.24609375 0.5638449999999999 -0.207436 -0.771281
1709.828125 0.611812 -0.228068 -0.83988
1710.078125 0.637877 -0.05541 -0.693287
1710.62109375 0.614356 -0.055639 -0.669995
1711.48828125 0.7655719999999999 0.335572 -0.43
1711.7734375 0.23086800000000002 0.223141 -0.007727
1712.37890625 0.929071 0.527236 -0.401835
1712.66015625 0.231408 0.202551 -0.028857
1713.29296875 0.804786 0.36491 -0.439876
1714.12890625 0.804832 0.334864 -0.469968
1714.98046875 0.5280699999999999 -0.200049 -0.728119
1715.84375 0.658372 0.0335 -0.624872
1716.625 0.689387 0.32 -0.369387
1717.5 0.649651 0.085 -0.564651
1717.7890625 0.20812199999999997 -0.105032 -0.313154
1718.3984375 0.591768 -0.113105 -0.704873
1718.640625 0.07693499999999999 -0.075 -0.151935
1719.0234375 0.065913 -0.155 -0.220913
1719.265625 0.71714 0.102062 -0.615078
1719.51953125 0.209253 -0.01501 -0.224263
1720.09765625 0.635523 -0.036235 -0.671758
1720.37109375 0.237641 -0.03607 -0.273711
1720.90234375 0.7247070000000001 0.01487 -0.709837
1721.171875 0.244766 -0.030234 -0.275
1721.73828125 0.583629 -0.20583 -0.789459
1721.98828125 0.194148 -0.315728 -0.509876
1722.5234375 0.602571 -0.196813 -0.799384
1722.78515625 0.284904 -0.073168 -0.358072
1723.33984375 0.703183 -0.024967 -0.72815
1723.6171875 0.284108 -0.015542 -0.29965
1724.1953125 0.616702 -0.083766 -0.700468
1725.07421875 0.503451 -0.421435 -0.924886
1725.88671875 0.603564 -0.312998 -0.916562
1726.76953125 0.633574 -0.285007 -0.918581
1727.50390625 0.617769 -0.064462 -0.682231
1727.765625 0.27031700000000003 0.005508 -0.264809
1728.31640625 0.8844350000000001 0.353635 -0.5308
1728.56640625 0.421983 0.164916 -0.257067
1729.12890625 1.0799079999999999 0.464952 -0.614956
1729.41796875 0.28812 0.038735 -0.249385
1730.0234375 1.1269429999999998 0.503431 -0.623512
1730.8828125 1.230908 0.67747 -0.553438
1731.73828125 1.159682 0.640276 -0.519406
1732.5703125 1.12641 0.516816 -0.609594
1733.3828125 0.843191 0.636336 -0.206855
1734.21484375 0.726332 0.285423 -0.440909
1735.01953125 0.8496549999999999 0.104861 -0.744794
1735.87109375 0.7683979999999999 -0.413928 -1.182326
1736.73046875 0.993633 0.399995 -0.593638
1737.57421875 1.037304 0.557496 -0.479808
1738.40234375 0.9624550000000001 0.318516 -0.643939
1739.21875 0.9500689999999999 0.206618 -0.743451
1740.0390625 1.028151 0.584651 -0.4435
1740.84765625 1.069887 0.170566 -0.899321
1741.70703125 1.024264 0.219293 -0.804971
1742.55078125 1.223529 0.562096 -0.661433
1743.4140625 0.949539 0.064539 -0.885
1744.2421875 1.320722 0.805722 -0.515
1745.03515625 1.29581 0.841077 -0.454733
1745.859375 1.070136 0.368592 -0.701544
1746.64453125 1.288149 0.920557 -0.367592
1747.48046875 1.3594789999999999 1.019966 -0.339513
1748.359375 1.027271 0.327813 -0.699458
1749.19140625 1.314773 0.909241 -0.405532
1750.01171875 1.262356 0.734158 -0.528198
1750.81640625 1.278729 0.87463 -0.404099
1751.59765625 1.090616 0.289576 -0.80104
1752.3828125 1.353551 0.762264 -0.591287
1753.2109375 1.398863 0.869955 -0.528908
1754.05078125 1.195107 0.485616 -0.709491
1754.8984375 1.090457 0.538238 -0.552219
1755.67578125 1.25221 1.029492 -0.222718
1756.51171875 0.787299 0.252299 -0.535
1757.30859375 1.0412919999999999 0.608078 -0.433214
1758.078125 1.1113549999999999 0.688035 -0.42332
1758.92578125 0.8522590000000001 0.15236 -0.699899
1759.76953125 1.102179 0.739975 -0.362204
1760.62109375 1.003849 0.623911 -0.379938
1761.4765625 0.70528 0.226041 -0.479239
1762.2890625 0.9949999999999999 0.815 -0.18
1763.1171875 0.8507640000000001 0.431643 -0.419121
1763.92578125 1.0071970000000001 0.618506 -0.388691
1764.69921875 1.074169 0.969106 -0.105063
1765.578125 1.1438760000000001 0.953922 -0.189954
1766.44140625 1.126554 0.688856 -0.437698
1767.2890625 1.454474 0.984531 -0.469943
1768.109375 1.434774 0.903384 -0.53139
1768.9453125 1.499831 0.961323 -0.538508
1769.7734375 1.442817 0.827868 -0.614949
1770.5546875 1.502393 0.982578 -0.519815
1771.25390625 1.4618389999999999 0.9638 -0.498039
1772.3515625 1.382644 0.906572 -0.476072
1773.2734375 1.239481 0.945696 -0.293785
1774.140625 1.1874149999999999 1.031518 -0.155897
1775.03125 1.23845 1.043431 -0.195019
1775.8828125 1.1692580000000001 0.922941 -0.246317
1776.6953125 0.9735280000000001 0.506175 -0.467353
1777.62890625 0.8612629999999999 0.266406 -0.594857
1778.515625 0.785196 -0.068553 -0.853749
1780.16015625 0.643323 0.153871 -0.489452
1781.78515625 0.783945 0.580597 -0.203348
1782.52734375 0.5622510000000001 0.339049 -0.223202
1783.3125 0.6221430000000001 -0.232763 -0.854906
1784.20703125 0.806548 0.72334 -0.083208
1785.02734375 0.815347 0.386333 -0.429014
1785.7890625 1.044666 0.434853 -0.609813
1786.5625 0.9336249999999999 0.488654 -0.444971
1787.33984375 0.78613 0.166282 -0.619848
1788.10546875 0.871137 0.39 -0.481137
1788.8203125 1.091063 0.890017 -0.201046
1789.66015625 0.871876 0.036876 -0.835
1790.4765625 1.078869 0.298869 -0.78
1791.26953125 0.739845 -0.110133 -0.849978
1792.02734375 0.5960650000000001 -0.275047 -0.871112
1792.77734375 0.567872 -0.787035 -1.354907
1793.5390625 0.648082 -0.174418 -0.8225
1794.296875 0.638448 -0.142369 -0.780817
1795.03515625 0.635353 -0.215812 -0.851165
1795.859375 0.536426 3.86E-4 -0.53604
1796.16796875 0.179781 0.093385 -0.086396
1796.68359375 0.54932 0.259406 -0.289914
1796.9609375 0.6148899999999999 0.324976 -0.289914
1797.45703125 0.66639 0.330326 -0.336064
1797.71875 0.7083299999999999 0.372266 -0.336064
1798.21484375 0.677124 0.827194 0.15007
1798.50390625 0.32504199999999994 0.975042 0.65
1799.0546875 0.46353900000000003 1.01864 0.555101
1799.71484375 0.7099819999999999 1.815 1.105018
1800.41796875 0.719997 1.651804 0.931807
1801.1796875 0.657547 0.792542 0.134995
1801.984375 0.651846 0.496846 -0.155
1802.76953125 0.708655 0.394982 -0.313673
1803.515625 0.677869 -0.094108 -0.771977
1804.24609375 0.683072 -0.126814 -0.809886
