99 
282 
474 
629 
832 
997 
1137 
1384 
1577 
1761 
1922 
2088 
2259 
2454 
2687 
2908 
3081 
3251 
3433 
3534 
3699 
3881 
4031 
4195 
4326 
4531 
4706 
4848 
5013 
5194 
5400 
5546 
5726 
5891 
6041 
6150 
6331 
6470 
6634 
6842 
7103 
7288 
7468 
7647 
7839 
8022 
8145 
8377 
8524 
8700 
8843 
9010 
9180 
9389 
9622 
9800 
9957 
10190 
10379 
10558 
10664 
10825 
10987 
11145 
11290 
11471 
11654 
11768 
11943 
12105 
12269 
12378 
12479 
12625 
12756 
12972 
13091 
13271 
13444 
13551 
13711 
13918 
14085 
14245 
14402 
14624 
14853 
15039 
15209 
15319 
15450 
15605 
15842 
16055 
16167 
16281 
16450 
16699 
16810 
16962 
17189 
17334 
17509 
17673 
17848 
18020 
18207 
18373 
18574 
18733 
18909 
19046 
19216 
19369 
19501 
19611 
19811 
19989 
20166 
20337 
20549 
20718 
20923 
21115 
21277 
21441 
21544 
21731 
21875 
22047 
22248 
22543 
22763 
22926 
23047 
23189 
23354 
23579 
23710 
23914 
24088 
24308 
24415 
24608 
24784 
24889 
25032 
25142 
25318 
25531 
25768 
25934 
26073 
26322 
26439 
26540 
26713 
26884 
27061 
27235 
27424 
27623 
27835 
28040 
28276 
28488 
28648 
28863 
29008 
29171 
29327 
29513 
29637 
29799 
29972 
30148 
30254 
30351 
30580 
30737 
30901 
31003 
31228 
31512 
31736 
31930 
32130 
32277 
32409 
32533 
32688 
32838 
33025 
33232 
33410 
33611 
33765 
33941 
34086 
34260 
34416 
34592 
34773 
34929 
35098 
35229 
35332 
35599 
35778 
35998 
36202 
36431 
36609 
36741 
36903 
37065 
37253 
37438 
37612 
37843 
37996 
38115 
38277 
38446 
38677 
38855 
39016 
39177 
39283 
39466 
39581 
39841 
39984 
40127 
40300 
40485 
40636 
40747 
41040 
41255 
41416 
41549 
41642 
41807 
42001 
42178 
42363 
42545 
42710 
42893 
43070 
43291 
43468 
43645 
43810 
43974 
44127 
44299 
44407 
44575 
44732 
44905 
45032 
45226 
45376 
45557 
45716 
45869 
45987 
46157 
46294 
46448 
46659 
46884 
47059 
47370 
47494 
47660 
47811 
48002 
48180 
48347 
48554 
48747 
49015 
49180 
49393 
49518 
49685 
49886 
50043 
50145 
50240 
50523 
50674 
50816 
51056 
51222 
51330 
51530 
51705 
51874 
52078 
52271 
52411 
52644 
52949 
53108 
53302 
53463 
53624 
53825 
53989 
54083 
54186 
54341 
54557 
54720 
54975 
55108 
55263 
55417 
55523 
55694 
55804 
55962 
56130 
56296 
56470 
56635 
56790 
57051 
57269 
57474 
57669 
57863 
58067 
58247 
58416 
58593 
58821 
59033 
59227 
59446 
59611 
59830 
60042 
60234 
60379 
60515 
60661 
60841 
61029 
61144 
61298 
61418 
61577 
61757 
61931 
62107 
62239 
62398 
62558 
62710 
62821 
62981 
63082 
63281 
63469 
63628 
63825 
64022 
64226 
64421 
64585 
64730 
64899 
65067 
65234 
65423 
65688 
65829 
65995 
66155 
66290 
66388 
66550 
66802 
66937 
67110 
67290 
67453 
67622 
67718 
67968 
68136 
68369 
68585 
68782 
68896 
69050 
69214 
69368 
69537 
69827 
70044 
70190 
70396 
70629 
70822 
71025 
71200 
71392 
71620 
71856 
72039 
72180 
72345 
72553 
72739 
72893 
72993 
73165 
73365 
73542 
73701 
73856 
74022 
74181 
74366 
74622 
74845 
74999 
75240 
75399 
75495 
75672 
75817 
76038 
76288 
76533 
76768 
76909 
77103 
77274 
77453 
77629 
77825 
77932 
78089 
78308 
78438 
78606 
78765 
78991 
79189 
79370 
79555 
79718 
79947 
80114 
80420 
80603 
80713 
80892 
81107 
81331 
81542 
81693 
81851 
82046 
82175 
82366 
82517 
82684 
82853 
82976 
83108 
83292 
83405 
83524 
83827 
83999 
84112 
84285 
84416 
84590 
84804 
84983 
85230 
85622 
85798 
85973 
86132 
86340 
86524 
86690 
86886 
87046 
87193 
87343 
87626 
87844 
88018 
88191 
88348 
88522 
88688 
88792 
88980 
89172 
89428 
89596 
89734 
89922 
90130 
90274 
90471 
90625 
90776 
90981 
91139 
91298 
91400 
91573 
91762 
91899 
92092 
92258 
92496 
92719 
92841 
93020 
93135 
93297 
93519 
93705 
93857 
94023 
94249 
94433 
94678 
94868 
95127 
95317 
95534 
95707 
95874 
96050 
96239 
96419 
96604 
96763 
97711 
98237 
98618 
99039 
99321 
99723 
100071 
100195 
100565 
100937 
101273 
101596 
101770 
101941 
102261 
102617 
102918 
103186 
103506 
103822 
104127 
104422 
104715 
105012 
105325 
105656 
105961 
106276 
106598 
106947 
107291 
107612 
107923 
108238 
108576 
108891 
109194 
109446 
109677 
110176 
110352 
110661 
111123 
111452 
111751 
111950 
112254 
112410 
112743 
113254 
113730 
114197 
114682 
114985 
115451 
115763 
116106 
116459 
116776 
117108 
117432 
117684 
117945 
118255 
118724 
119045 
119369 
119683 
119827 
120157 
120470 
120730 
120979 
121288 
121613 
121941 
122216 
122364 
122475 
122626 
122757 
122853 
123013 
123141 
123270 
123394 
123505 
123634 
123817 
123957 
124118 
124247 
124412 
124551 
124684 
124818 
124975 
125189 
125324 
125514 
125707 
125893 
126004 
126157 
126287 
126470 
126664 
126778 
126921 
127135 
127292 
127399 
127585 
127712 
127894 
128032 
128186 
128307 
128425 
128526 
128671 
128824 
129009 
129132 
129227 
129360 
129524 
129831 
130072 
130293 
130416 
130608 
130752 
130852 
131030 
131137 
131257 
131367 
131777 
132279 
132522 
133034 
133194 
133663 
133806 
134086 
134432 
134667 
134811 
135101 
135573 
136072 
136567 
137029 
137516 
138007 
138469 
138952 
139461 
139934 
140224 
140465 
140655 
141039 
141522 
141823 
142042 
142443 
142748 
142966 
143335 
143637 
143897 
144237 
144529 
144777 
145114 
145437 
145685 
146028 
146315 
146574 
146931 
147249 
147495 
147823 
148123 
148639 
148940 
149176 
149423 
149735 
149983 
150191 
150576 
150884 
151207 
151449 
151650 
152025 
152328 
152636 
152872 
153083 
153460 
153758 
154063 
154308 
154519 
154915 
155239 
155542 
155777 
156189 
156501 
156720 
157088 
157383 
157649 
157987 
158285 
158516 
158886 
159214 
159537 
159847 
160167 
160487 
160818 
161139 
161430 
161727 
162046 
162355 
162590 
162950 
163103 
163412 
163729 
164046 
164289 
164641 
164955 
165186 
165575 
165877 
166117 
166457 
166776 
167037 
167376 
167671 
167917 
168093 
168480 
168797 
169089 
169331 
169700 
170025 
170266 
170619 
170903 
171163 
171500 
171818 
172053 
172394 
172697 
172963 
173305 
173611 
173843 
174201 
174518 
174780 
175103 
175395 
175638 
175983 
176297 
176542 
176853 
177146 
177391 
177729 
178042 
178265 
178629 
178935 
179181 
179554 
179846 
180074 
180437 
180733 
181001 
181332 
181636 
181866 
182268 
182576 
182803 
183158 
183465 
183709 
184050 
184349 
184571 
184899 
185216 
185454 
185791 
186092 
186313 
186678 
186995 
187223 
187580 
187871 
188110 
188481 
188783 
189009 
189333 
189797 
190108 
190353 
190665 
190805 
191132 
191444 
191750 
191988 
192338 
192643 
192874 
193237 
193387 
193685 
193974 
194275 
194524 
194866 
195017 
195321 
195618 
195944 
196177 
196567 
196872 
197351 
197671 
197987 
198200 
198562 
198878 
199369 
199675 
199976 
200168 
200468 
200798 
201016 
201147 
201405 
201715 
201881 
202212 
202525 
202832 
203050 
203434 
203761 
204075 
204284 
204669 
204969 
205277 
205542 
205881 
206174 
206481 
206745 
206931 
207297 
207597 
207898 
208142 
208512 
208812 
209044 
209387 
209697 
209937 
210284 
210586 
210802 
211158 
211477 
211713 
212067 
212364 
212597 
212984 
213299 
213530 
213876 
214177 
214430 
214772 
215059 
215301 
215618 
215930 
216183 
216509 
216796 
217039 
217403 
217706 
217956 
218293 
218587 
218825 
219193 
219490 
219723 
220043 
220354 
220595 
220940 
221234 
221464 
221792 
222109 
222355 
222699 
223000 
223225 
223573 
223880 
224122 
224435 
224732 
224958 
225320 
225623 
225844 
226203 
226508 
226743 
227129 
227415 
227631 
227987 
228296 
228531 
228877 
229168 
229394 
229753 
230069 
230296 
230642 
230942 
231177 
231530 
231843 
232047 
232386 
232688 
232938 
233264 
233566 
233754 
234133 
234453 
234763 
234972 
235341 
235649 
235962 
236190 
236569 
236858 
237140 
237380 
237752 
238044 
238320 
238558 
238911 
239226 
239523 
239747 
240105 
240428 
240752 
240957 
241089 
241343 
241648 
241962 
242185 
242580 
242866 
243155 
243393 
243760 
244058 
244357 
244583 
244940 
245256 
245567 
245782 
246141 
246451 
246757 
246997 
247346 
247643 
247936 
248194 
248564 
248870 
249154 
249405 
249759 
250072 
250318 
250627 
250782 
251100 
251416 
251661 
252011 
252312 
252530 
252902 
253195 
253456 
253739 
254047 
254296 
254639 
254795 
255093 
255373 
255632 
255959 
256271 
256493 
256822 
257128 
257396 
257522 
257875 
258154 
258402 
258696 
258986 
259273 
259537 
259808 
260084 
260381 
260645 
260966 
261245 
261507 
261834 
262137 
262415 
262722 
263011 
263292 
263614 
263919 
264185 
264481 
264773 
265059 
265363 
265671 
265915 
266068 
266413 
266733 
267037 
267282 
267600 
267910 
268145 
268494 
268802 
269032 
269351 
269681 
269924 
270266 
270558 
270802 
271119 
271427 
271700 
271980 
272274 
272523 
272872 
273172 
273429 
273735 
274040 
274294 
274652 
274943 
275189 
275348 
275703 
276024 
276324 
276577 
276899 
277216 
277473 
277803 
278077 
278341 
278632 
278775 
278885 
279128 
279425 
279667 
279995 
280314 
280571 
280925 
281222 
281476 
282054 
282184 
282512 
282760 
282882 
283204 
283368 
283644 
283962 
284218 
284477 
284720 
284852 
284968 
285216 
285499 
285778 
286106 
286619 
286978 
287299 
287615 
287946 
288298 
288822 
288969 
289345 
289845 
290078 
290324 
290601 
290894 
291224 
291543 
291844 
292134 
292430 
292750 
293056 
293321 
293461 
293571 
293806 
294114 
294388 
294548 
294911 
295201 
295498 
295779 
296124 
296414 
296683 
296827 
296940 
297184 
297491 
297768 
298090 
298233 
298560 
298872 
299141 
299463 
299754 
300010 
300342 
300660 
300910 
301233 
301520 
301797 
301962 
302071 
302339 
302634 
302924 
303221 
303501 
303857 
303996 
304330 
304625 
304886 
305229 
305541 
305680 
305995 
306299 
306567 
306910 
307211 
307449 
307797 
308106 
308422 
308567 
308880 
309171 
309430 
309781 
310085 
310375 
310624 
310959 
311112 
311477 
311766 
312069 
312308 
312488 
312605 
312878 
313174 
313482 
313771 
314046 
314386 
314538 
314847 
315144 
315399 
315745 
316051 
316323 
316467 
316805 
317119 
317434 
317698 
317857 
318215 
318509 
318823 
319087 
319434 
319720 
319977 
320331 
320644 
320791 
321129 
321410 
321556 
321911 
322228 
322456 
322818 
323125 
323430 
323585 
323937 
324230 
324450 
324822 
325139 
325437 
325684 
326010 
326158 
326486 
326803 
327095 
327338 
327653 
327974 
328206 
328569 
329032 
329323 
329642 
329906 
330230 
330372 
330699 
331007 
331316 
331574 
331892 
332184 
332417 
332775 
333075 
333315 
333642 
333924 
334194 
334513 
334815 
335034 
335390 
335696 
335968 
336306 
336602 
336847 
337191 
337498 
337770 
338076 
338381 
338637 
338983 
339284 
339543 
339842 
340149 
340419 
340728 
341031 
341267 
341605 
341907 
342190 
342521 
342815 
343069 
343436 
343739 
344005 
344305 
344605 
344859 
345224 
345506 
345760 
346076 
346381 
346651 
346984 
347268 
347515 
347863 
348186 
348434 
348759 
349055 
349305 
349644 
349941 
350209 
350508 
350830 
351173 
351478 
351778 
352082 
352381 
352708 
353018 
353309 
353596 
353913 
354220 
354535 
354831 
355122 
355419 
355743 
356056 
356359 
356660 
356969 
357284 
357595 
357892 
358180 
358488 
358809 
359113 
359407 
359696 
359991 
360302 
360622 
360915 
361195 
361498 
361793 
362105 
362405 
362697 
362978 
363303 
363617 
363910 
364197 
364489 
364785 
365094 
365387 
365667 
365945 
366252 
366565 
366859 
367151 
367447 
367749 
368067 
368377 
368661 
368950 
369243 
369561 
369839 
370145 
370416 
370712 
371020 
371350 
371488 
371587 
371846 
372150 
372301 
372639 
372939 
373086 
373411 
373700 
374322 
374449 
374815 
374983 
375316 
375843 
375979 
376348 
376511 
376843 
377369 
377501 
377880 
378031 
378372 
378535 
378905 
379403 
379528 
379891 
380035 
380416 
380556 
380655 
380921 
381065 
381409 
381948 
382077 
382451 
382601 
382698 
382947 
383103 
383476 
383987 
384111 
384478 
384638 
385014 
385145 
385312 
385573 
385691 
386063 
386223 
386611 
387116 
387241 
387635 
387773 
388173 
388345 
388681 
389173 
389308 
389419 
389698 
389849 
390202 
390424 
390726 
390896 
391284 
391789 
391909 
392305 
392835 
392960 
393334 
393627 
393939 
394199 
394378 
394752 
395251 
395386 
395774 
396273 
396401 
396504 
396745 
396977 
397243 
397376 
397476 
397726 
397853 
397944 
398200 
398333 
398713 
399228 
399353 
399444 
399723 
399874 
399990 
400286 
400611 
400758 
401111 
401240 
401625 
402167 
402286 
402649 
403174 
403305 
403690 
404180 
404674 
404814 
405198 
405670 
405801 
405900 
406041 
406445 
406687 
406989 
407147 
407487 
408023 
408157 
408510 
408735 
408867 
408972 
409122 
409248 
409371 
409484 
409618 
409825 
409972 
410080 
410232 
410353 
410495 
410703 
410914 
411067 
411189 
411331 
411504 
411694 
411822 
412004 
412172 
412401 
412542 
412693 
412819 
412936 
413102 
413256 
413399 
413510 
413610 
413720 
413828 
413923 
414029 
414229 
414359 
414651 
414822 
414959 
415088 
415215 
415434 
415601 
415786 
415965 
416136 
416352 
416480 
416604 
416908 
417107 
417292 
417462 
417665 
417777 
417872 
417997 
418146 
418328 
418498 
418687 
418837 
419032 
419171 
419410 
419542 
419722 
419913 
420091 
420249 
420438 
420555 
420696 
420907 
421066 
421225 
421429 
421619 
421845 
421959 
422161 
422349 
422502 
422686 
422802 
422989 
423163 
423347 
423499 
423705 
423832 
424056 
424209 
424414 
424567 
424751 
424933 
425104 
425243 
425402 
425556 
425770 
425958 
426143 
426257 
426415 
426529 
426736 
426916 
427053 
427273 
427455 
427664 
427868 
428021 
428205 
428339 
428495 
428620 
428727 
428885 
429072 
429262 
429435 
429566 
429753 
429874 
430041 
430205 
430375 
430548 
430717 
430900 
431059 
431224 
431371 
431537 
431648 
431772 
431928 
432027 
432195 
432392 
432564 
432734 
432957 
433117 
433295 
433452 
433643 
433861 
434051 
434167 
434342 
434499 
434700 
434900 
435067 
435282 
435471 
435697 
435883 
436030 
436176 
436309 
436461 
436687 
436804 
436976 
437130 
437280 
437405 
437502 
437688 
437888 
438017 
438190 
438363 
438546 
438716 
438838 
439057 
439213 
439418 
439557 
439670 
439862 
440034 
440174 
440321 
440480 
440648 
440774 
440912 
441036 
441205 
441400 
441567 
441758 
441871 
442031 
442211 
442400 
442588 
442748 
442902 
443038 
443217 
443335 
443491 
443657 
443823 
443969 
444133 
444309 
444521 
444767 
444942 
445090 
445270 
445444 
445560 
445731 
445870 
445993 
446180 
446355 
446479 
446786 
446941 
447062 
447208 
447367 
447505 
447718 
447841 
448008 
448193 
448313 
448508 
448665 
448855 
448975 
449093 
449276 
449463 
449665 
449847 
449961 
450125 
450322 
450477 
450643 
450841 
451105 
451306 
451486 
451690 
451893 
452015 
452137 
452325 
452501 
452717 
452898 
453165 
453336 
453457 
453588 
453749 
453885 
454053 
454180 
454336 
454485 
454646 
454833 
454987 
455095 
455281 
455468 
455660 
455821 
455954 
456194 
456393 
456546 
456737 
456871 
457042 
457209 
457399 
458365 
458779 
459224 
459400 
459732 
459876 
460252 
460761 
461084 
461571 
462066 
