3.84375 2.018457 1.63707 -0.381387
4.3359375 3.23488 1.59488 -1.64
5.0546875 1.93402 1.633817 -0.300203
5.65234375 1.8950120000000001 1.633725 -0.261287
6.00390625 3.137683 0.682751 -2.454932
6.8046875 2.222888 1.088865 -1.134023
7.421875 2.128972 1.279704 -0.849268
8.01171875 2.120177 1.565177 -0.555
8.37109375 2.889028 0.703132 -2.185896
9.1875 2.084478 1.895625 -0.188853
9.78125 1.979234 2.029241 0.050007
10.359375 1.911587 2.070443 0.158856
10.95703125 1.858245 1.998557 0.140312
11.5546875 1.9400870000000001 1.955087 0.015
12.15234375 1.969712 1.664712 -0.305
12.51953125 3.1129819999999997 0.699982 -2.413
13.3203125 2.015019 1.376505 -0.638514
13.765625 3.0708349999999998 1.433853 -1.636982
14.49609375 2.0897229999999998 1.568088 -0.521635
15.109375 2.0223630000000004 1.519238 -0.503125
15.51171875 1.8489170000000001 1.309142 -0.539775
15.9765625 3.258032 0.613345 -2.644687
16.7890625 2.009978 1.474978 -0.535
17.37109375 1.9338710000000001 1.459086 -0.474785
17.95703125 1.914326 1.434438 -0.479888
18.55859375 1.903863 1.449324 -0.454539
19.14453125 1.942663 1.469937 -0.472726
19.72265625 1.8947530000000001 1.415 -0.479753
20.30859375 1.9772630000000002 1.469548 -0.507715
20.765625 2.054564 1.604564 -0.45
21.41796875 2.0397570000000003 1.599757 -0.44
22.015625 2.07812 1.625643 -0.452477
22.3828125 3.2010569999999996 0.758208 -2.442849
23.1875 2.086494 1.653333 -0.433161
23.76953125 1.9849809999999999 1.669981 -0.315
24.3515625 1.965162 1.665356 -0.299806
24.734375 3.067829 0.859001 -2.208828
25.52734375 2.022021 1.643516 -0.378505
26.11328125 2.0243089999999997 1.670273 -0.354036
26.6796875 2.119056 1.764303 -0.354753
27.26171875 2.0415140000000003 1.756682 -0.284832
27.73046875 2.606714 2.095 -0.511714
28.35546875 2.984506 0.864944 -2.119562
28.71875 3.108641 0.568641 -2.54
29.578125 2.148859 1.669818 -0.479041
30.04296875 3.211757 1.562431 -1.649326
30.71484375 2.16356 1.75856 -0.405
31.30078125 2.051309 1.75 -0.301309
31.671875 3.02804 0.933171 -2.094869
32.48046875 2.053333 1.875 -0.178333
32.96875 3.079018 1.62692 -1.452098
33.6328125 2.119907 1.828745 -0.291162
34.20703125 2.100485 1.804549 -0.295936
34.58203125 3.0985720000000003 0.918572 -2.18
35.375 2.175 1.66 -0.515
35.8828125 2.941587 1.301587 -1.64
36.54296875 2.198423 1.87 -0.328423
37.12109375 1.973887 1.876743 -0.097144
37.6796875 1.990147 2.019937 0.02979
38.13671875 3.249876 2.097734 -1.152142
38.8359375 2.129714 2.064714 -0.065
39.40625 2.013932 1.939664 -0.074268
39.7734375 3.184437 1.039565 -2.144872
40.53125 2.090776 1.565818 -0.524958
41.046875 2.943703 1.069908 -1.873795
41.6640625 2.144996 1.484954 -0.660042
42.23828125 2.104095 1.529095 -0.575
42.8125 2.115198 1.595227 -0.519971
43.2890625 3.0708330000000004 1.335544 -1.735289
43.6171875 3.116658 0.462377 -2.654281
44.5078125 2.303332 1.693332 -0.61
44.91796875 2.741254 1.843291 -0.897963
45.67578125 2.218319 2.029011 -0.189308
46.2421875 2.083057 1.984302 -0.098755
46.8125 2.111687 1.953681 -0.158006
47.37109375 2.0967919999999998 1.902504 -0.194288
47.93359375 1.938551 1.799507 -0.139044
48.28515625 3.138281 0.873365 -2.264916
49.0703125 2.002992 1.46 -0.542992
49.65234375 2.038088 1.348725 -0.689363
50.2109375 2.054898 1.269898 -0.785
50.56640625 2.736969 0.273689 -2.46328
51.33203125 2.1767640000000004 1.351657 -0.825107
51.90625 2.20966 1.68966 -0.52
52.4921875 2.207132 1.742132 -0.465
53.05078125 2.1737319999999998 1.674464 -0.499268
53.62109375 2.174324 1.686156 -0.488168
54.01171875 3.416453 1.054218 -2.362235
54.7421875 2.289568 1.721977 -0.567591
55.30859375 2.199775 1.609783 -0.589992
55.88671875 2.221265 1.687671 -0.533594
56.359375 3.21 1.57 -1.64
57.015625 2.396556 1.776576 -0.61998
57.58984375 2.389917 1.891338 -0.498579
57.94140625 3.089241 0.889536 -2.199705
58.72265625 2.491325 2.168598 -0.322727
59.3125 2.345241 1.984756 -0.360485
59.875 2.34025 1.98 -0.36025
60.453125 2.380987 1.900987 -0.48
61.015625 2.397859 1.928567 -0.469292
61.58203125 2.29377 2.013846 -0.279924
61.95703125 3.339531 1.157158 -2.182373
62.71875 2.434796 2.031071 -0.403725
63.20703125 3.2502269999999998 1.583424 -1.666803
63.86328125 2.30551 2.009434 -0.296076
64.43359375 2.325452 1.99 -0.335452
64.7734375 3.399275 1.049486 -2.349789
65.5625 2.374495 1.986667 -0.387828
65.9453125 3.1951080000000003 0.783605 -2.411503
66.70703125 2.3452479999999998 1.930248 -0.415
67.27734375 2.290769 1.816133 -0.474636
67.84765625 2.412915 1.798569 -0.614346
68.42578125 2.345004 1.821559 -0.523445
68.98046875 2.415553 1.720553 -0.695
69.4296875 3.124999 1.448779 -1.67622
70.1328125 2.202952 1.668811 -0.534141
70.703125 2.266918 1.623654 -0.643264
71.0625 3.015518 0.505259 -2.510259
71.82421875 2.345365 1.471303 -0.874062
72.3203125 3.342118 1.418817 -1.923301
73.00390625 2.2756309999999997 1.745777 -0.529854
73.58203125 2.239021 1.91 -0.329021
73.94140625 3.244714 1.224773 -2.019941
74.71484375 2.348178 1.963673 -0.384505
75.2890625 2.814805 1.6449 -1.169905
75.859375 2.280671 1.610671 -0.67
76.24609375 3.21714 0.792255 -2.424885
77.0234375 2.316607 1.796614 -0.519993
77.59375 2.328436 1.700986 -0.62745
78.15234375 2.290818 1.703396 -0.587422
78.59765625 3.3503239999999996 1.568914 -1.78141
79.2890625 2.3563140000000002 1.783843 -0.572471
79.875 2.342753 1.895 -0.447753
80.23828125 3.315437 1.030437 -2.285
80.98828125 2.190293 1.832621 -0.357672
81.4375 2.570082 2.200739 -0.369343
81.69921875 2.19184 0.68684 -1.505
82.59375 2.373167 1.875619 -0.497548
83.1796875 2.4537269999999998 1.61751 -0.836217
83.75390625 2.17559 1.956138 -0.219452
84.328125 2.133278 2.093305 -0.039973
84.890625 2.204173 1.852955 -0.351218
85.44921875 2.234737 1.849083 -0.385654
86.01953125 2.48182 1.954975 -0.526845
86.609375 2.017368 1.90808 -0.109288
87.16796875 1.97811 1.80811 -0.17
87.73046875 2.4718530000000003 1.299924 -1.171929
88.2890625 2.374697 1.409843 -0.964854
88.63671875 2.955734 0.453582 -2.502152
89.40625 2.166696 1.80384 -0.362856
89.96875 2.168212 1.679894 -0.488318
90.5234375 2.19261 1.602617 -0.589993
91.0859375 2.223436 1.624662 -0.598774
91.64453125 2.3022720000000003 1.584958 -0.717314
92.00390625 2.861049 0.321275 -2.539774
92.74609375 2.277257 1.159132 -1.118125
93.32421875 2.2533760000000003 1.283376 -0.97
93.8828125 2.226423 1.531617 -0.694806
94.26953125 3.100114 1.034989 -2.065125
94.98828125 2.188464 2.111536 -0.076928
95.5390625 2.112897 2.069889 -0.043008
96.10546875 2.2182720000000002 2.069939 -0.148333
96.671875 2.1980910000000002 1.964317 -0.233774
97.23046875 2.189418 1.989418 -0.2
97.62890625 3.197433 1.203165 -1.994268
98.3515625 2.201155 1.982822 -0.218333
98.90625 2.1276349999999997 1.949474 -0.178161
99.45703125 2.212779 1.929989 -0.28279
100.0234375 2.164885 1.881213 -0.283672
100.58984375 2.217835 1.827835 -0.39
101.14453125 2.070553 1.730553 -0.34
101.68359375 1.909145 1.609145 -0.3
102.05859375 2.732827 1.033458 -1.699369
102.7890625 2.129799 1.864799 -0.265
103.34375 2.035556 1.815771 -0.219785
103.8984375 2.142263 1.772263 -0.37
104.4609375 2.219666 1.589722 -0.629944
105.0 2.195414 1.54 -0.655414
105.5546875 2.178906 1.629519 -0.549387
106.1015625 2.182352 1.763971 -0.418381
106.6640625 2.149742 1.809742 -0.34
107.2265625 2.143691 1.827441 -0.31625
107.7890625 2.224732 1.894732 -0.33
108.34375 2.1532970000000002 1.897852 -0.255445
108.90234375 2.172584 1.922603 -0.249981
109.46484375 2.156508 1.906938 -0.24957
110.01171875 2.099686 1.8586 -0.241086
110.58203125 2.159649 1.861227 -0.298422
110.9921875 3.2493100000000004 1.077298 -2.172012
111.70703125 2.182731 1.80936 -0.373371
112.27734375 2.084216 1.768136 -0.31608
112.8359375 2.154977 1.844977 -0.31
113.4140625 2.154951 1.859951 -0.295
113.9921875 2.188764 1.853764 -0.335
114.5546875 2.165421 1.755407 -0.410014
115.12109375 2.219315 1.722445 -0.49687
115.64453125 2.772103 1.169931 -1.602172
116.265625 2.20023 1.680639 -0.519591
116.82421875 2.155011 1.694955 -0.460056
117.4140625 2.167034 1.76 -0.407034
118.00390625 2.249388 1.753142 -0.496246
118.34765625 3.005106 0.602341 -2.402765
119.1484375 2.239243 1.719712 -0.519531
119.65625 2.8559419999999998 1.708799 -1.147143
120.3203125 2.066816 2.316816 0.25
120.90625 2.0372489999999996 2.306929 0.26968
121.26171875 3.038258 1.29854 -1.739718
122.03125 2.2861000000000002 1.5961 -0.69
122.53515625 2.908216 1.193654 -1.714562
123.19921875 2.238503 1.801236 -0.437267
123.7734375 2.194252 1.929883 -0.264369
124.140625 2.998626 1.044277 -1.954349
124.94921875 2.2564450000000003 1.930581 -0.325864
125.30078125 2.977952 0.75393 -2.224022
126.08984375 2.2733499999999998 1.867937 -0.405413
126.4375 2.952239 0.749348 -2.202891
127.28515625 2.072439 1.607439 -0.465
127.74609375 2.9514180000000003 1.778118 -1.1733
128.4609375 2.1422559999999997 1.614722 -0.527534
129.03125 2.083355 1.628355 -0.455
129.390625 2.897179 0.771484 -2.125695
130.16015625 2.204458 1.754507 -0.449951
130.58984375 2.2384120000000003 2.048646 -0.189766
131.28125 2.022363 1.659648 -0.362715
131.8828125 1.929972 1.786587 -0.143385
132.2578125 2.896826 1.165578 -1.731248
133.03125 2.0208589999999997 1.855859 -0.165
133.55859375 2.624721 1.364773 -1.259948
134.203125 2.1320889999999997 1.432089 -0.7
134.58203125 2.742089 0.282871 -2.459218
135.34765625 2.169872 1.404872 -0.765
135.73046875 2.668892 0.549948 -2.118944
136.48828125 2.1672 1.5772 -0.59
137.06640625 2.194552 1.609566 -0.584986
137.65625 2.218375 1.643375 -0.575
138.1015625 3.151243 1.67829 -1.472953
138.8046875 2.246309 1.697535 -0.548774
139.390625 2.165539 1.610749 -0.55479
139.73046875 2.8913789999999997 0.534969 -2.35641
140.53515625 2.2324669999999998 1.666077 -0.56639
140.89453125 2.965358 0.499899 -2.465459
141.72265625 2.242908 1.698155 -0.544753
142.10546875 2.958923 0.604988 -2.353935
142.87890625 2.231968 1.75208 -0.479888
143.33984375 3.236742 1.766742 -1.47
144.05859375 2.314752 1.814489 -0.500263
144.66015625 2.220026 1.675026 -0.545
145.03515625 3.212701 0.818047 -2.394654
145.828125 2.2794220000000003 1.841104 -0.438318
146.1875 3.0065429999999997 0.676364 -2.330179
147.0 2.234924 1.875 -0.359924
147.3828125 3.017248 0.722465 -2.294783
148.19140625 2.222404 1.864154 -0.35825
148.65234375 3.149155 1.889329 -1.259826
148.984375 3.052655 0.708317 -2.344338
149.9140625 2.309437 1.794708 -0.514729
150.328125 2.9290589999999996 1.569802 -1.359257
151.09765625 2.26838 1.67338 -0.595
151.69921875 2.169912 1.675 -0.494912
152.0625 3.181667 0.786667 -2.395
152.8671875 2.253413 1.793413 -0.46
153.234375 3.067127 0.702699 -2.364428
154.0546875 2.229838 1.724838 -0.505
154.66796875 2.271907 1.691907 -0.58
155.02734375 3.171249 0.78639 -2.384859
155.83203125 2.2906429999999998 1.715755 -0.574888
156.203125 3.0741099999999997 0.62911 -2.445
157.015625 2.276624 1.730749 -0.545875
157.38671875 2.94648 0.527734 -2.418746
158.125 2.2304649999999997 1.71 -0.520465
158.73828125 2.153234 1.668728 -0.484506
159.11328125 3.152706 0.813414 -2.339292
159.89453125 2.2200670000000002 1.654876 -0.565191
160.39453125 3.035763 1.264931 -1.770832
161.08203125 2.164931 1.619716 -0.545215
161.6875 2.154321 1.585547 -0.568774
162.03125 3.198619 0.669585 -2.529034
162.84765625 2.30821 1.627091 -0.681119
163.2109375 3.074192 0.509658 -2.564534
164.04296875 2.307312 1.699552 -0.60776
164.41015625 3.016391 0.601947 -2.414444
165.2265625 2.253666 1.767506 -0.48616
165.6953125 3.1828909999999997 1.783293 -1.399598
166.4140625 2.184479 1.88975 -0.294729
167.0 2.062106 1.82 -0.242106
167.36328125 3.0932239999999998 0.916318 -2.176906
168.20703125 2.100105 1.700105 -0.4
168.76171875 2.662838 0.730349 -1.932489
169.1015625 2.936461 0.531467 -2.404994
169.97265625 2.225512 1.619012 -0.6065
170.56640625 2.119826 1.584826 -0.535
171.140625 2.1629 1.61125 -0.55165
171.5 2.853424 0.57 -2.283424
172.3046875 2.22935 1.682514 -0.546836
172.8828125 2.243156 1.644043 -0.599113
173.25 2.786797 0.51 -2.276797
174.0234375 2.16787 1.714093 -0.453777
174.625 2.163696 1.79 -0.373696
175.01171875 3.159609 0.944737 -2.214872
175.80078125 2.217134 1.719575 -0.497559
176.15234375 2.857256 0.548473 -2.308783
176.9453125 2.165216 1.635872 -0.529344
177.546875 2.133887 1.608887 -0.525
178.11328125 2.094347 1.493838 -0.600509
178.703125 2.246896 1.563471 -0.683425
179.296875 2.1 1.52 -0.58
179.87109375 2.074594 1.624809 -0.449785
180.2265625 2.8259350000000003 0.769883 -2.056052
181.0 2.1397060000000003 1.745 -0.394706
181.5 2.8565430000000003 1.445 -1.411543
182.16015625 2.106329 1.723636 -0.382693
182.7421875 2.139114 1.699114 -0.44
183.296875 2.128616 1.66 -0.468616
183.74609375 3.121864 1.596994 -1.52487
184.43359375 2.125825 1.600839 -0.524986
184.99609375 2.074005 1.559585 -0.51442
185.5703125 2.184365 1.614365 -0.57
185.921875 2.9111840000000004 0.563528 -2.347656
186.50390625 2.2009339999999997 1.636046 -0.564888
187.17578125 2.140049 1.655662 -0.484387
187.75 2.125468 1.695 -0.430468
188.3359375 2.156297 1.741082 -0.415215
188.91796875 2.153848 1.745 -0.408848
189.49609375 2.117048 1.719197 -0.397851
189.8515625 2.9520999999999997 0.748213 -2.203887
190.6171875 2.182497 1.774145 -0.408352
191.05859375 3.366716 1.013989 -2.352727
191.76953125 2.2249659999999998 1.729966 -0.495
192.36328125 2.1653480000000003 1.669415 -0.495933
192.73046875 3.014906 0.774912 -2.239994
193.51171875 2.233444 1.748444 -0.485
193.87890625 2.9838459999999998 0.605997 -2.377849
194.6640625 2.221629 1.759924 -0.461705
195.24609375 2.4669939999999997 1.649123 -0.817871
195.5859375 2.919671 0.564873 -2.354798
196.41796875 2.1947710000000002 1.71811 -0.476661
196.90234375 2.969951 1.39 -1.579951
197.56640625 2.171595 1.681595 -0.49
198.15234375 2.091357 1.621371 -0.469986
198.72265625 2.0890050000000002 1.644864 -0.444141
199.1953125 2.95373 1.53873 -1.415
199.875 2.14 1.725 -0.415
200.4453125 2.0901129999999997 1.781675 -0.308438
201.015625 2.1018470000000002 1.803387 -0.29846
201.484375 2.983072 1.548092 -1.43498
202.1796875 2.204945 1.484945 -0.72
202.76171875 2.1546909999999997 1.483758 -0.670933
203.12890625 2.8920950000000003 0.617151 -2.274944
203.91015625 2.233883 1.799344 -0.434539
204.27734375 2.712517 0.589857 -2.12266
205.015625 2.0846370000000003 1.789651 -0.294986
205.6171875 1.938103 1.623103 -0.315
206.203125 1.759163 1.483667 -0.275496
206.8046875 1.694023 1.431132 -0.262891
207.3828125 1.594017 1.409798 -0.184219
207.95703125 1.554141 1.407422 -0.146719
208.546875 1.620319 1.502798 -0.117521
209.14453125 1.6799350000000002 1.529945 -0.14999
209.71875 1.784854 1.635 -0.149854
210.2890625 2.220494 1.809643 -0.410851
210.578125 2.847827 0.649794 -2.198033
211.44140625 2.198864 1.599694 -0.59917
211.91015625 3.14521 1.386026 -1.759184
212.6171875 2.1958070000000003 1.540807 -0.655
213.21875 2.159043 1.688828 -0.470215
213.58984375 3.130497 0.823855 -2.306642
214.38671875 2.174597 1.891864 -0.282733
214.734375 2.926719 0.79 -2.136719
215.5703125 2.05948 1.926887 -0.132593
215.94140625 3.054528 1.005853 -2.048675
216.76953125 1.969884 2.029913 0.060029
217.35546875 1.890542 1.880542 -0.01
217.93359375 1.860771 1.76467 -0.096101
218.53515625 1.832548 1.555 -0.277548
219.1171875 1.883025 1.418534 -0.464491
219.703125 1.8957519999999999 1.351116 -0.544636
220.3046875 1.9294410000000002 1.339441 -0.59
220.875 1.949888 1.395 -0.554888
221.37109375 2.785415 1.21354 -1.571875
221.75390625 2.7418199999999997 0.345915 -2.395905
222.625 2.125209 1.6 -0.525209
223.2265625 2.021861 1.530897 -0.490964
223.7109375 3.1289239999999996 1.434845 -1.694079
224.3359375 2.530573 0.665573 -1.865
224.953125 2.1682289999999997 1.6985 -0.469729
225.33203125 3.0051229999999998 0.895123 -2.11
226.1015625 2.758749 2.266321 -0.492428
226.703125 2.049007 1.764063 -0.284944
227.28515625 2.05525 1.720569 -0.334681
227.875 1.95 1.625 -0.325
228.359375 2.6702719999999998 1.320643 -1.349629
228.7734375 2.481648 0.515215 -1.966433
229.62109375 1.845909 1.503791 -0.342118
230.20703125 1.801962 1.496107 -0.305855
230.7890625 1.8335149999999998 1.52483 -0.308685
231.36328125 1.81223 1.504105 -0.308125
231.94921875 1.8663399999999999 1.566887 -0.299453
232.5234375 1.864528 1.615047 -0.249481
233.1015625 1.853719 1.663719 -0.19
233.69140625 1.9548169999999998 1.699817 -0.255
234.125 2.892321 1.66 -1.232321
234.75390625 3.161866 0.823686 -2.33818
235.40625 2.07384 1.65884 -0.415
235.9921875 2.031613 1.627941 -0.403672
236.578125 2.0886940000000003 1.618694 -0.47
237.1484375 2.411941 1.672866 -0.739075
237.4765625 2.7380139999999997 0.465359 -2.272655
238.27734375 2.129318 1.619318 -0.51
238.8671875 2.017019 1.577019 -0.44
239.4375 2.069014 1.586875 -0.482139
240.03125 2.058755 1.574205 -0.48455
240.62890625 2.119957 1.615013 -0.504944
241.19140625 2.096834 1.603329 -0.493505
241.76953125 2.0391060000000003 1.649887 -0.389219
242.11328125 2.9526820000000003 0.712647 -2.240035
242.93359375 2.1435589999999998 1.663527 -0.480032
243.41015625 3.1732769999999997 1.608612 -1.564665
244.109375 2.107732 1.733317 -0.374415
244.68359375 2.056683 1.689135 -0.367548
245.03125 2.956532 0.796532 -2.16
245.82421875 2.098232 1.650506 -0.447726
246.171875 2.8268389999999997 0.498324 -2.328515
247.0 1.944707 1.515 -0.429707
247.58984375 1.87693 1.483612 -0.393318
248.171875 1.861405 1.50377 -0.357635
248.75 1.924859 1.615 -0.309859
249.34375 1.876931 1.600771 -0.27616
249.9453125 1.885883 1.637473 -0.24841
250.5234375 1.892697 1.670663 -0.222034
251.109375 1.9667290000000002 1.722965 -0.243764
251.69921875 1.902963 1.672963 -0.23
252.2890625 1.942696 1.625 -0.317696
252.85546875 1.932404 1.639904 -0.2925
253.45703125 1.9474170000000002 1.677529 -0.269888
254.0546875 1.973707 1.709559 -0.264148
254.62890625 1.9645730000000001 1.659105 -0.305468
255.203125 1.950619 1.619326 -0.331293
255.55859375 2.835785 0.774641 -2.061144
256.36328125 2.011695 1.586765 -0.42493
256.90625 2.6665590000000003 1.112905 -1.553654
257.546875 2.051635 1.60351 -0.448125
258.1171875 2.083578 1.653578 -0.43
258.6953125 2.031274 1.612375 -0.418899
259.1484375 2.879683 1.511333 -1.36835
259.4609375 2.883963 0.469877 -2.414086
260.41796875 2.068824 1.538824 -0.53
260.87890625 2.678378 1.441093 -1.237285
261.61328125 2.046636 1.548284 -0.498352
262.1953125 1.939926 1.519926 -0.42
262.77734375 1.9740680000000002 1.519068 -0.455
263.3828125 1.9120659999999998 1.483045 -0.429021
263.9765625 1.988686 1.543933 -0.444753
264.3359375 2.638645 0.455 -2.183645
265.1484375 2.0727450000000003 1.581417 -0.491328
265.73828125 2.322153 1.418486 -0.903667
266.0625 2.7097819999999997 0.368676 -2.341106
266.921875 2.097054 1.577977 -0.519077
267.52734375 2.078719 1.675 -0.403719
268.125 2.159036 1.75 -0.409036
268.71875 2.185288 1.783355 -0.401933
269.29296875 2.134255 1.741847 -0.392408
269.64453125 2.935753 0.739988 -2.195765
270.484375 2.134234 1.704234 -0.43
271.08203125 2.064729 1.711581 -0.353148
271.66015625 2.0894209999999998 1.744421 -0.345
272.25390625 2.118088 1.793088 -0.325
272.84765625 2.053316 1.727945 -0.325371
273.203125 3.067768 0.852991 -2.214777
274.01953125 2.149929 1.734939 -0.41499
274.625 2.3163549999999997 1.765 -0.551355
275.21875 2.162786 1.477786 -0.685
275.8046875 2.1410270000000002 1.556759 -0.584268
276.390625 2.1455640000000002 1.626548 -0.519016
276.984375 2.156317 1.639199 -0.517118
277.36328125 3.09159 0.783414 -2.308176
278.1640625 2.206727 1.669922 -0.536805
278.75 2.1598319999999998 1.67 -0.489832
279.33203125 2.1937740000000003 1.71514 -0.478634
279.6953125 3.0242679999999997 0.714476 -2.309792
280.51953125 2.2099130000000002 1.759899 -0.450014
280.9765625 3.165511 1.705 -1.460511
281.703125 2.203705 1.788705 -0.415
282.296875 2.178076 1.794467 -0.383609
282.87890625 2.1805079999999997 1.798906 -0.381602
283.43359375 2.022944 0.939448 -1.083496
284.08203125 2.121777 1.794628 -0.327149
284.66796875 2.101839 1.813223 -0.288616
285.25390625 2.120744 1.846994 -0.27375
285.84765625 2.107025 1.849525 -0.2575
286.1953125 3.12014 0.912647 -2.207493
287.015625 2.153579 1.823598 -0.329981
287.62890625 2.076203 1.762182 -0.314021
288.25 2.125875 1.79 -0.335875
288.6015625 3.1046059999999995 0.810808 -2.293798
289.43359375 2.189008 1.819022 -0.369986
289.87109375 2.895606 1.676034 -1.219572
290.640625 2.157849 1.6629 -0.494949
291.25 2.23751 1.885 -0.35251
291.85546875 2.114919 2.014966 -0.099953
292.4375 2.02075 1.887187 -0.133563
293.015625 2.026035 1.831035 -0.195
293.375 3.1349099999999996 0.95 -2.18491
294.19140625 2.0539370000000003 1.789184 -0.264753
294.79296875 1.945948 1.6568 -0.289148
295.3828125 1.912007 1.717222 -0.194785
295.97265625 2.005195 1.498115 -0.50708
296.55078125 1.9445089999999998 1.469569 -0.47494
296.90625 2.850934 0.46202 -2.388914
297.7421875 1.957449 1.293161 -0.664288
298.33203125 2.008423 1.353479 -0.654944
298.91796875 2.09735 1.448494 -0.648856
299.26953125 2.926028 0.425288 -2.50074
300.09375 2.134242 1.447344 -0.686898
300.68359375 2.042786 1.51482 -0.527966
301.28125 1.9757699999999998 1.709682 -0.266088
301.65625 3.059338 0.879585 -2.179753
302.46484375 2.013818 1.664403 -0.349415
303.0625 2.021014 1.54733 -0.473684
303.64453125 2.068605 1.414971 -0.653634
304.01953125 2.944826 0.369886 -2.57494
304.85546875 2.097464 1.289964 -0.8075
305.28125 2.3483330000000002 1.033333 -1.315
306.03125 1.705242 1.107047 -0.598195
306.51953125 2.160548 0.095548 -2.065
307.2265625 1.204745 0.733245 -0.4715
307.6875 1.219458 0.58 -0.639458
308.453125 0.887803 0.464783 -0.42302
309.0625 1.0621429999999998 0.582143 -0.48
309.671875 1.315461 0.845 -0.470461
310.2578125 1.538145 1.114239 -0.423906
310.8671875 1.81277 1.309258 -0.503512
311.24609375 2.847766 0.504098 -2.343668
312.08984375 2.159681 1.640292 -0.519389
312.68359375 2.126223 1.674542 -0.451681
313.27734375 2.085402 1.599518 -0.485884
313.64453125 3.039669 0.654936 -2.384733
314.47265625 2.179518 1.634518 -0.545
314.91015625 2.8184240000000003 1.583474 -1.23495
315.69140625 2.184732 1.598951 -0.585781
316.0390625 2.6742920000000003 0.365991 -2.308301
316.87109375 2.155686 1.751846 -0.40384
317.33203125 2.863137 1.754053 -1.109084
318.08203125 2.064909 1.778519 -0.28639
318.6796875 2.016194 1.659612 -0.356582
319.26953125 2.100281 1.615281 -0.485
319.86328125 2.138133 1.633813 -0.50432
320.4609375 2.154648 1.60976 -0.544888
320.81640625 2.9540770000000003 0.609077 -2.345
321.6484375 2.132562 1.553953 -0.578609
322.26171875 2.086302 1.493336 -0.592966
322.85546875 2.16147 1.569908 -0.591562
323.2109375 2.8777869999999997 0.504669 -2.373118
324.04296875 2.164679 1.51014 -0.654539
324.66796875 2.101273 1.166441 -0.934832
325.26171875 2.117338 1.417338 -0.7
325.625 2.6391530000000003 0.47 -2.169153
326.41796875 2.080006 1.681852 -0.398154
327.00390625 2.098135 1.808135 -0.29
327.59375 2.1790059999999998 1.86913 -0.309876
327.95703125 2.962575 0.973509 -1.989066
328.7890625 2.19942 1.97442 -0.225
329.3828125 2.110531 1.949567 -0.160964
329.96875 2.204819 1.934987 -0.269832
330.32421875 3.0782089999999998 0.934669 -2.14354
331.15625 2.216005 1.906466 -0.309539
331.77734375 2.114941 1.824687 -0.290254
332.37890625 2.106242 1.722488 -0.383754
332.73828125 3.044219 0.775 -2.269219
333.5546875 2.139166 1.773844 -0.365322
334.1640625 2.089763 1.869763 -0.22
334.76171875 2.110944 1.866272 -0.244672
335.12109375 2.94296 0.867006 -2.075954
335.97265625 2.117472 1.902472 -0.215
336.578125 2.0300000000000002 1.85 -0.18
337.1640625 2.093147 1.884952 -0.208195
337.65625 3.0336689999999997 1.689656 -1.344013
338.375 2.058318 1.795 -0.263318
338.97265625 2.022887 1.726366 -0.296521
339.56640625 2.1541069999999998 1.839626 -0.314481
340.046875 3.079525 1.696996 -1.382529
340.7421875 2.064147 1.789577 -0.27457
341.1796875 2.5552070000000002 2.028576 -0.526631
341.609375 3.132405 0.807855 -2.32455
342.53125 2.162485 1.743711 -0.418774
343.140625 2.065649 1.711168 -0.354481
343.73046875 2.045095 1.675289 -0.369806
344.3203125 1.926193 1.532172 -0.394021
344.93359375 1.9748780000000001 1.564888 -0.40999
345.3046875 2.959256 0.644256 -2.315
346.1328125 2.182019 1.757019 -0.425
346.734375 2.039555 1.62983 -0.409725
347.33984375 2.056715 1.616861 -0.439854
347.69921875 2.907834 0.567431 -2.340403
348.546875 2.041528 1.549914 -0.491614
349.171875 2.046377 1.609572 -0.436805
349.78125 2.049762 1.637522 -0.41224
350.13671875 2.906489 0.681606 -2.224883
350.9765625 1.969753 1.55 -0.419753
351.5859375 1.9607450000000002 1.524952 -0.435793
352.19921875 2.138704 1.685688 -0.453016
352.8046875 2.044387 1.695 -0.349387
353.3828125 2.059377 1.700939 -0.358438
353.74609375 2.84588 0.741 -2.10488
354.56640625 2.082984 1.780845 -0.302139
355.16796875 2.047342 1.821881 -0.225461
355.76171875 2.038582 1.798582 -0.24
356.1328125 2.892176 0.851832 -2.040344
356.96484375 2.002536 1.689639 -0.312897
357.55859375 1.9548940000000001 1.644894 -0.31
358.1484375 1.915418 1.541644 -0.373774
358.52734375 2.819207 0.614863 -2.204344
359.359375 1.966016 1.466016 -0.5
359.97265625 1.93838 1.48838 -0.45
360.5546875 1.914069 1.448865 -0.465204
360.9140625 2.807299 0.563875 -2.243424
361.72265625 1.906104 1.334166 -0.571938
362.32421875 1.819927 1.333444 -0.486483
362.9296875 1.8925800000000002 1.39758 -0.495
363.28125 2.688641 0.499276 -2.189365
364.1015625 1.945183 1.413933 -0.53125
364.6875 1.841812 1.332262 -0.50955
365.2890625 1.814925 1.334925 -0.48
365.671875 2.648664 0.583958 -2.064706
366.46484375 1.943667 1.419344 -0.524323
367.03515625 1.938071 1.467656 -0.470415
367.609375 1.881168 1.466168 -0.415
367.97265625 2.7524230000000003 0.619003 -2.13342
368.78125 1.955 1.54 -0.415
369.38671875 1.906996 1.553794 -0.353202
369.9765625 1.9438600000000001 1.530423 -0.413437
370.3359375 2.84449 0.73449 -2.11
371.140625 1.994968 1.492934 -0.502034
371.73828125 1.976502 1.57343 -0.403072
372.3515625 1.9637630000000001 1.561619 -0.402144
372.72265625 2.8560119999999998 0.694212 -2.1618
373.53125 2.0191749999999997 1.57374 -0.445435
374.12109375 1.947834 1.539482 -0.408352
374.7109375 2.039704 1.61476 -0.424944
375.08203125 2.918529 0.723529 -2.195
375.90234375 2.078155 1.678155 -0.4
376.51953125 1.974693 1.654693 -0.32
377.10546875 1.9993319999999999 1.694988 -0.304344
377.47265625 2.9528290000000004 0.807876 -2.144953
378.27734375 2.104833 1.724855 -0.379978
378.89453125 1.961894 1.644995 -0.316899
379.5 1.984172 1.645 -0.339172
379.85546875 2.879915 0.759915 -2.12
380.66796875 2.056825 1.661825 -0.395
381.265625 2.010547 1.655569 -0.354978
381.8671875 2.024784 1.662986 -0.361798
382.22265625 2.920001 0.755348 -2.164653
383.05078125 2.022715 1.565 -0.457715
383.66796875 1.9902 1.5402 -0.45
384.26171875 2.026728 1.524719 -0.502009
384.609375 2.930254 0.530625 -2.399629
385.44921875 2.110148 1.604419 -0.505729
386.078125 2.0591310000000003 1.584912 -0.474219
386.671875 2.043742 1.534912 -0.50883
387.03125 2.8702199999999998 0.530608 -2.339612
387.85546875 2.096654 1.424957 -0.671697
388.45703125 2.045212 1.365999 -0.679213
389.046875 2.037084 1.448105 -0.588979
389.41015625 2.7583599999999997 0.567356 -2.191004
390.23828125 2.096864 1.706864 -0.39
390.83203125 2.037515 1.708117 -0.329398
391.41796875 2.020965 1.733804 -0.287161
391.765625 2.808357 0.793481 -2.014876
392.60546875 2.113403 1.929924 -0.183479
393.21875 1.979585 1.819585 -0.16
393.80859375 2.079771 1.779771 -0.3
394.15234375 2.818085 0.758897 -2.059188
394.9609375 2.108747 1.715544 -0.393203
395.5625 2.039561 1.685484 -0.354077
396.15234375 2.04948 1.62449 -0.42499
396.5078125 2.846355 0.605972 -2.240383
397.33984375 2.138752 1.6404 -0.498352
397.9453125 2.091141 1.641141 -0.45
398.53515625 2.082438 1.634658 -0.44778
398.8984375 2.924847 0.654287 -2.27056
399.75 2.0931480000000002 1.705 -0.388148
400.3671875 2.038598 1.724028 -0.31457
400.953125 2.039429 1.719429 -0.32
401.546875 2.028639 1.748639 -0.28
402.1484375 2.0632919999999997 1.803292 -0.26
402.625 2.5172529999999997 2.155 -0.362253
403.33984375 2.115323 1.865323 -0.25
403.9609375 2.0638810000000003 1.749845 -0.314036
404.55078125 2.051736 1.691482 -0.360254
405.14453125 2.064901 1.689901 -0.375
405.50390625 3.0650639999999996 0.749471 -2.315593
406.33984375 2.160241 1.725241 -0.435
406.87890625 2.932731 1.418135 -1.514596
407.25390625 2.880488 0.625579 -2.254909
408.15234375 2.1764650000000003 1.777608 -0.398857
408.5390625 2.9849010000000002 0.699955 -2.284946
409.3671875 2.133089 1.799577 -0.333512
409.90234375 2.887409 1.358585 -1.528824
410.609375 2.181846 1.733721 -0.448125
411.2109375 2.1425330000000002 1.674606 -0.467927
411.58203125 3.0993260000000005 0.813833 -2.285493
412.40625 2.190818 1.760818 -0.43
412.93359375 2.844435 1.391507 -1.452928
413.6328125 2.097878 1.788534 -0.309344
414.2421875 2.124588 1.864588 -0.26
414.83203125 2.0987899999999997 1.868812 -0.229978
415.34375 2.813942 1.563942 -1.25
416.015625 2.12854 1.86854 -0.26
416.625 2.045294 1.795 -0.250294
417.125 3.08318 1.69 -1.39318
417.54296875 2.916226 0.671792 -2.244434
418.41015625 2.167589 1.887589 -0.28
418.796875 2.847326 0.804258 -2.043068
419.625 2.088072 1.84 -0.248072
420.25390625 2.002792 1.787223 -0.215569
420.8515625 2.0439060000000002 1.758976 -0.28493
421.390625 2.749507 1.48 -1.269507
422.0546875 1.904201 1.524472 -0.379729
422.6640625 1.899602 1.494602 -0.405
423.24609375 2.0664540000000002 1.625874 -0.44058
423.84765625 2.057826 1.702826 -0.355
424.234375 2.975735 0.859851 -2.115884
425.015625 2.173403 1.738403 -0.435
425.6015625 2.093331 1.738331 -0.355
426.19140625 2.079971 1.825 -0.254971
426.71875 2.855 1.435 -1.42
427.09375 2.948041 0.668355 -2.279686
427.953125 2.155064 1.724596 -0.430468
428.3203125 2.869001 0.68326 -2.185741
429.13671875 2.036823 1.725 -0.311823
429.72265625 1.8540100000000002 1.949156 0.095146
430.30859375 1.899438 1.949452 0.050014
430.9140625 1.888284 1.786064 -0.10222
431.5 1.9136339999999998 1.64 -0.273634
432.0859375 2.038499 1.584889 -0.45361
432.6640625 1.984399 1.384457 -0.599942
433.26171875 2.073552 1.338728 -0.734824
433.86328125 2.078337 1.320212 -0.758125
434.4453125 2.09541 1.328889 -0.766521
435.0078125 1.984393 1.707948 -0.276445
435.58203125 1.951369 1.826369 -0.125
436.17578125 1.985991 1.837985 -0.148006
436.75 2.110203 1.68 -0.430203
437.328125 2.07347 1.494454 -0.579016
437.90625 2.11293 1.319 -0.79393
438.4765625 2.1027489999999998 1.282833 -0.819916
438.953125 2.8850939999999996 1.005 -1.880094
439.59765625 2.119704 1.299704 -0.82
440.1953125 2.116781 1.404945 -0.711836
440.55859375 2.86921 0.544384 -2.324826
441.34765625 2.18958 1.599704 -0.589876
441.9140625 2.099729 1.624729 -0.475
442.49609375 2.124282 1.709962 -0.41432
443.08203125 2.1213509999999998 1.821407 -0.299944
443.67578125 2.150961 1.80684 -0.344121
444.03125 2.6524389999999998 0.83 -1.822439
444.83984375 2.0927290000000003 1.767729 -0.325
445.4375 2.038024 1.778947 -0.259077
446.00390625 2.05062 1.785548 -0.265072
446.58984375 2.1176079999999997 1.838288 -0.27932
447.18359375 2.099702 1.860845 -0.238857
447.54296875 2.790521 0.885627 -1.904894
448.3359375 2.1037600000000003 1.84959 -0.25417
448.87890625 2.4988590000000004 1.474093 -1.024766
449.49609375 2.069861 1.846065 -0.223796
450.07421875 2.039447 1.764447 -0.275
450.6640625 2.0949999999999998 1.73 -0.365
451.1796875 2.864147 1.484437 -1.37971
451.7734375 2.9988020000000004 0.741757 -2.257045
452.43359375 2.045 1.64 -0.405
453.01953125 2.10585 1.684917 -0.420933
453.625 2.11957 1.675 -0.44457
454.2265625 2.079475 1.669475 -0.41
454.8359375 2.08271 1.629977 -0.452733
455.1875 2.987508 0.692237 -2.295271
456.0 2.124888 1.635 -0.489888
456.49609375 3.166238 1.511973 -1.654265
457.21484375 2.200381 1.740381 -0.46
457.83203125 2.1510190000000002 1.766998 -0.384021
458.43359375 2.18889 1.839351 -0.349539
459.02734375 2.151361 1.744525 -0.406836
459.609375 2.10951 1.645 -0.46451
459.96875 2.945939 0.661768 -2.284171
460.8203125 2.159945 1.604945 -0.555
461.421875 2.0826599999999997 1.624051 -0.458609
462.0234375 2.1197850000000003 1.714792 -0.404993
462.375 2.934421 0.735 -2.199421
463.21484375 2.125292 1.820292 -0.305
463.8203125 2.085137 1.882481 -0.202656
464.4453125 2.102489 1.887489 -0.215
464.8046875 2.913414 0.785807 -2.127607
465.6640625 2.2385479999999998 1.8247 -0.413848
466.27734375 2.185945 1.854865 -0.33108
466.90234375 2.10815 1.813611 -0.294539
467.2734375 2.959042 1.019598 -1.939444
468.140625 2.105607 2.125643 0.020036
468.75 2.028318 2.365 0.336682
469.34375 2.0433719999999997 2.30625 0.262878
469.70703125 3.18318 1.43511 -1.74807
470.5234375 1.974374 2.350517 0.376143
471.14453125 1.987314 2.245 0.257686
471.75390625 2.009246 2.019302 0.010056
472.11328125 3.109298 1.080392 -2.028906
472.921875 2.064486 1.738096 -0.32639
473.515625 2.05436 1.567326 -0.487034
474.11328125 2.1909140000000003 1.471038 -0.719876
474.48046875 2.963956 0.419888 -2.544068
475.3046875 2.082027 1.307879 -0.774148
475.89453125 2.139039 1.429898 -0.709141
476.48046875 2.129657 1.364657 -0.765
476.859375 2.929996 0.453926 -2.47607
477.6484375 2.2152149999999997 1.390215 -0.825
478.25 2.189924 1.425 -0.764924
478.859375 2.231515 1.506515 -0.725
479.2109375 2.879645 0.494645 -2.385
480.01953125 2.24 1.615 -0.625
480.62109375 2.197418 1.662445 -0.534973
481.23828125 2.266546 1.701606 -0.56494
481.60546875 3.0213229999999998 0.694939 -2.326384
482.41015625 2.29284 1.75784 -0.535
483.0 2.19779 1.755 -0.44279
483.58984375 2.19403 1.762097 -0.431933
483.95703125 3.055 0.81 -2.245
484.76171875 2.274742 1.816929 -0.457813
485.36328125 2.198314 1.847621 -0.350693
485.94140625 2.144241 1.799466 -0.344775
486.30078125 2.939027 0.764548 -2.174479
487.1015625 2.217345 1.728345 -0.489
487.703125 2.198622 1.733778 -0.464844
488.30859375 2.145969 1.711582 -0.434387
488.6640625 2.931332 0.696487 -2.234845
489.46484375 2.1728 1.7028 -0.47
490.0625 2.176413 1.672692 -0.503721
490.66015625 2.177762 1.642762 -0.535
491.0234375 3.054714 0.724714 -2.33
491.83984375 2.156178 1.64286 -0.513318
492.453125 2.11355 1.608804 -0.504746
493.3984375 3.221667 0.675 -2.546667
494.20703125 2.1731819999999997 1.593238 -0.579944
494.578125 2.989362 0.484362 -2.505
495.41796875 2.144077 1.545 -0.599077
496.0234375 2.118875 1.680047 -0.438828
496.6015625 2.189827 1.759968 -0.429859
497.19140625 2.039823 1.679823 -0.36
497.7734375 2.093591 1.694587 -0.399004
498.14453125 3.091915 0.794915 -2.297
498.953125 2.0954289999999998 1.48707 -0.608359
499.5390625 2.10329 1.504605 -0.598685
500.125 2.074968 1.435 -0.639968
500.484375 3.106349 0.451711 -2.654638
501.30078125 2.1540179999999998 1.372404 -0.781614
501.91015625 2.087073 1.412073 -0.675
502.50390625 2.172029 1.501973 -0.670056
502.87109375 3.2375030000000002 0.607377 -2.630126
503.66015625 2.221401 1.528206 -0.693195
504.26953125 2.164508 1.659899 -0.504609
504.85546875 2.1832890000000003 1.724965 -0.458324
505.22265625 3.2509759999999996 0.988694 -2.262282
506.046875 2.363112 1.926619 -0.436493
506.63671875 2.258635 2.0536 -0.205035
507.21484375 2.2162469999999996 2.327879 0.111632
507.58984375 3.4517740000000003 1.802782 -1.648992
508.4140625 2.2397370000000003 2.559737 0.32
509.0 2.223337 2.395 0.171663
509.58203125 2.166762 2.093117 -0.073645
509.9375 3.436498 1.11117 -2.325328
510.7421875 2.32306 1.896617 -0.426443
511.32421875 2.235421 1.80843 -0.426991
511.92578125 2.334812 1.827624 -0.507188
512.3046875 3.4956490000000002 0.971528 -2.524121
512.64453125 2.654795 0.909879 -1.744916
513.62109375 2.3357959999999998 1.904105 -0.431691
514.22265625 2.240361 1.799865 -0.440496
514.83203125 2.364823 1.801961 -0.562862
515.2109375 3.367381 0.809601 -2.55778
516.02734375 2.275812 1.702965 -0.572847
516.625 2.21 1.695 -0.515
517.21484375 2.224142 1.774357 -0.449785
517.58984375 3.209023 0.855 -2.354023
518.39453125 2.304796 1.859853 -0.444943
519.00390625 2.334888 1.94 -0.394888
519.6015625 2.3733839999999997 1.810903 -0.562481
519.96875 3.2091190000000003 0.719119 -2.49
520.78125 2.403792 1.734094 -0.669698
521.39453125 2.314988 1.804988 -0.51
522.00390625 2.35967 1.824738 -0.534932
522.36328125 3.260535 0.788699 -2.471836
523.17578125 2.4521569999999997 1.95277 -0.499387
523.78125 2.367548 1.97 -0.397548
524.3828125 2.368946 2.003045 -0.365901
524.734375 3.2347979999999996 0.960752 -2.274046
525.5546875 2.375317 1.940317 -0.435
526.17578125 2.371339 1.997565 -0.373774
526.76953125 2.384299 2.039316 -0.344983
527.359375 2.3440440000000002 2.00808 -0.335964
527.94921875 2.3417719999999997 2.013022 -0.32875
528.5625 2.29658 1.9905 -0.30608
528.9296875 3.257545 0.988895 -2.26865
529.74609375 2.405688 2.062761 -0.342927
530.328125 2.282927 2.015 -0.267927
530.91796875 2.314679 2.049679 -0.265
531.29296875 3.312445 1.067608 -2.244837
532.109375 2.3492279999999996 2.0479 -0.301328
532.71875 2.306914 2.03918 -0.267734
533.3046875 2.335152 2.100152 -0.235
533.67578125 3.296336 1.112124 -2.184212
534.4765625 2.358662 2.088662 -0.27
535.0859375 2.304454 2.03976 -0.264694
535.6953125 2.328639 2.040485 -0.288154
536.05078125 3.187524 0.942675 -2.244849
536.87109375 2.339875 2.0 -0.339875
537.37890625 3.156573 1.586743 -1.56983
538.0703125 2.3447839999999998 1.762128 -0.582656
538.67578125 2.30342 1.71342 -0.59
539.28125 2.322444 1.767905 -0.554539
539.765625 3.237899 1.593804 -1.644095
540.47265625 2.308785 1.838785 -0.47
541.0625 2.259311 1.840893 -0.418418
541.66015625 2.295381 1.930381 -0.365
542.16015625 3.198864 1.778864 -1.42
542.75 3.571012 1.15 -2.421012
543.45703125 2.297875 1.954832 -0.343043
544.046875 2.344934 1.998854 -0.34608
544.63671875 2.302288 1.990177 -0.312111
545.21875 2.317625 2.087625 -0.23
545.8203125 2.305865 2.059932 -0.245933
546.18359375 3.2976970000000003 1.074898 -2.222799
546.9921875 2.354591 2.034806 -0.319785
547.58203125 2.279147 2.015 -0.264147
548.17578125 2.302779 2.012305 -0.290474
548.77734375 2.120613 1.86 -0.260613
549.375 2.175 1.925 -0.25
549.7421875 3.0392020000000004 1.054361 -1.984841
550.53125 2.2363560000000002 2.046037 -0.190319
551.12109375 2.195645 2.039952 -0.155693
551.70703125 2.229348 2.00011 -0.229238
552.05859375 3.0779180000000004 0.959773 -2.118145
552.890625 2.252867 1.971217 -0.28165
553.50390625 2.186973 1.951973 -0.235
554.08203125 2.210027 1.903543 -0.306484
554.44140625 3.2264440000000003 0.949542 -2.276902
555.25390625 2.312392 1.838954 -0.473438
555.875 2.212439 1.795 -0.417439
556.46484375 2.179018 1.76582 -0.413198
556.94921875 2.951701 1.631706 -1.319995
557.62890625 1.999317 1.569962 -0.429355
558.19921875 2.097504 1.709067 -0.388437
558.78125 2.116426 1.750536 -0.36589
559.26171875 3.023296 1.663047 -1.360249
559.94921875 2.202369 1.861947 -0.340422
560.53125 2.188368 1.867087 -0.321281
561.109375 2.18733 1.960885 -0.226445
561.578125 3.065454 1.771996 -1.293458
562.265625 2.182645 1.908426 -0.274219
562.87890625 2.22114 1.893132 -0.328008
563.4609375 2.233499 1.893838 -0.339661
563.94140625 3.0912940000000004 1.619749 -1.471545
564.515625 3.524312 0.990264 -2.534048
565.21875 2.227613 1.802543 -0.42507
565.8046875 2.215 1.78 -0.435
566.3984375 2.28659 1.871619 -0.414971
567.00390625 2.248648 1.834894 -0.413754
567.58984375 2.273792 1.860895 -0.412897
567.95703125 3.292233 0.93789 -2.354343
568.74609375 2.309576 1.86452 -0.445056
569.32421875 2.6463970000000003 1.411423 -1.234974
569.6640625 3.189966 0.640556 -2.54941
570.5546875 2.38666 1.905046 -0.481614
571.1484375 2.241072 1.883953 -0.357119
571.73828125 2.224698 1.869698 -0.355
572.11328125 3.1803950000000003 0.877104 -2.303291
572.9296875 2.279464 1.864464 -0.415
573.546875 2.181996 1.806996 -0.375
574.1484375 2.2256489999999998 1.854423 -0.371226
574.50390625 3.123687 0.794396 -2.329291
575.33984375 2.264482 1.857383 -0.407099
575.8359375 3.2193680000000002 1.809683 -1.409685
576.5859375 2.255816 1.806082 -0.449734
577.19921875 2.183385 1.764948 -0.418437
577.78515625 2.194281 1.774281 -0.42
578.24609375 3.096364 1.620393 -1.475971
578.984375 2.218854 1.778142 -0.440712
579.58984375 2.198874 1.764354 -0.43452
580.1953125 2.24756 1.709904 -0.537656
580.671875 3.131014 1.586104 -1.54491
581.39453125 2.314971 1.785 -0.529971
581.98828125 2.25936 1.81936 -0.44
582.58984375 2.222243 1.792723 -0.42952
583.0859375 3.117469 1.665556 -1.451913
583.79296875 2.225126 1.791441 -0.433685
584.3984375 2.212187 1.802195 -0.409992
584.98828125 2.2352440000000002 1.795244 -0.44
585.47265625 3.1483790000000003 1.702476 -1.445903
586.18359375 2.2407120000000003 1.839425 -0.401287
586.80859375 2.1889440000000002 1.814581 -0.374363
587.41796875 2.198334 1.843605 -0.354729
587.90234375 3.117725 1.696361 -1.421364
588.4765625 3.4904029999999997 1.075706 -2.414697
588.75390625 3.353438 0.732129 -2.621309
589.80859375 2.283914 1.759891 -0.524023
590.2734375 3.13893 1.756317 -1.382613
591.03125 2.2809809999999997 1.8113 -0.469681
591.640625 2.135624 1.585839 -0.549785
592.23828125 2.0215620000000003 1.591401 -0.430161
592.828125 2.036112 1.666112 -0.37
593.42578125 2.038833 1.675488 -0.363345
593.78515625 2.886322 0.721322 -2.165
594.59765625 2.1444929999999998 1.709687 -0.434806
595.203125 2.103134 1.653681 -0.449453
595.7890625 2.1096690000000002 1.639669 -0.47
596.40234375 2.11415 1.602647 -0.511503
597.0 2.175 1.64 -0.535
597.37109375 3.097034 0.837034 -2.26
598.16796875 2.165687 1.710687 -0.455
598.76953125 2.063971 1.644421 -0.41955
599.3671875 2.0943370000000003 1.699337 -0.395
599.7265625 3.035863 0.812643 -2.22322
600.5703125 2.129273 1.774464 -0.354809
601.1796875 2.023622 1.720862 -0.30276
601.77734375 2.100677 1.684368 -0.416309
602.12890625 3.037698 0.773179 -2.264519
602.96484375 2.177255 1.65284 -0.524415
603.59375 2.106462 1.658781 -0.447681
604.18359375 2.04824 1.614163 -0.434077
604.546875 2.9895270000000003 0.749578 -2.239949
605.34375 2.150694 1.595818 -0.554876
605.94921875 2.087404 1.652404 -0.435
606.5234375 2.091334 1.664093 -0.427241
606.8984375 2.9960310000000003 0.814531 -2.1815
607.70703125 2.093102 1.643951 -0.449151
608.30078125 2.1399999999999997 1.66 -0.48
608.8828125 2.124216 1.644321 -0.479895
609.359375 2.888897 1.550605 -1.338292
610.07421875 2.064809 1.665 -0.399809
610.671875 2.059135 1.664454 -0.394681
611.03515625 3.062887 0.806238 -2.256649
611.8515625 2.134605 1.674661 -0.459944
612.45703125 2.059495 1.66471 -0.394785
613.0546875 2.025614 1.622489 -0.403125
613.66015625 2.0578629999999998 1.592863 -0.465
614.25390625 2.10791 1.609707 -0.498203
614.6171875 3.003265 0.676195 -2.32707
615.44140625 2.199509 1.674523 -0.524986
616.03515625 2.146907 1.691907 -0.455
616.6328125 2.094435 1.634572 -0.459863
617.234375 2.094731 1.635639 -0.459092
617.82421875 2.057826 1.563611 -0.494215
618.38671875 2.069527 1.554742 -0.514785
618.75390625 3.007937 0.717198 -2.290739
619.234375 2.9563829999999998 1.447676 -1.508707
620.14453125 2.157292 1.640283 -0.517009
620.62109375 3.1015610000000002 1.539077 -1.562484
621.34375 2.189208 1.648355 -0.540853
621.94140625 2.134065 1.674065 -0.46
622.51953125 2.080721 1.62494 -0.455781
622.97265625 2.952785 1.568411 -1.384374
623.30859375 2.9408019999999997 0.505829 -2.434973
624.28515625 2.141613 1.557756 -0.583857
624.89453125 2.074745 1.57487 -0.499875
625.484375 1.989542 1.56767 -0.421872
626.0625 2.019648 1.5805 -0.439148
626.6484375 2.0058629999999997 1.636191 -0.369672
627.03125 2.8220590000000003 0.844716 -1.977343
627.83203125 2.048818 1.808818 -0.24
628.35546875 2.69305 1.37497 -1.31808
628.71484375 2.8775139999999997 0.658723 -2.218791
629.578125 2.126386 1.67873 -0.447656
629.9453125 2.899461 0.604661 -2.2948
630.7734375 2.13969 1.666272 -0.473418
631.15625 2.7925780000000002 0.578068 -2.21451
631.9453125 2.134052 1.659052 -0.475
632.484375 2.771738 1.404121 -1.367617
633.1328125 2.098796 1.743796 -0.355
633.4921875 2.808557 0.708643 -2.099914
634.3125 2.170671 1.711667 -0.459004
634.9140625 2.4494689999999997 1.490573 -0.958896
635.515625 2.085264 1.755264 -0.33
635.87109375 2.893256 0.821834 -2.071422
636.69140625 2.086851 1.714195 -0.372656
637.26171875 2.606433 1.535 -1.071433
637.89453125 2.144915 1.764915 -0.38
638.484375 2.089141 1.771641 -0.3175
639.06640625 2.050656 1.77 -0.280656
639.6484375 2.0949999999999998 1.775 -0.32
640.22265625 2.107036 1.754536 -0.3525
640.8125 2.138573 1.783587 -0.354986
641.41015625 2.127905 1.818597 -0.309308
641.87109375 3.201186 1.76354 -1.437646
642.32421875 2.7176419999999997 1.497768 -1.219874
643.12890625 2.140246 1.755 -0.385246
643.51953125 2.8545399999999996 0.724995 -2.129545
644.33984375 2.189356 1.859695 -0.329661
644.80078125 3.036243 1.836317 -1.199926
645.51171875 2.15597 1.856929 -0.299041
646.109375 2.116638 1.796638 -0.32
646.4765625 3.0398370000000003 0.927859 -2.111978
647.296875 2.186798 1.844038 -0.34276
647.65625 2.9902369999999996 0.750732 -2.239505
648.51953125 2.2049380000000003 1.839938 -0.365
649.12109375 2.184109 1.804109 -0.38
649.703125 2.198837 1.793837 -0.405
650.30078125 2.161309 1.81 -0.351309
650.921875 2.15185 1.824807 -0.327043
651.359375 2.932994 1.772425 -1.160569
652.09765625 2.252794 1.838794 -0.414
652.69140625 2.161321 1.84302 -0.318301
653.28125 2.18966 1.90966 -0.28
653.73046875 3.062478 1.799931 -1.262547
654.45703125 2.1891730000000003 1.802807 -0.386366
655.0703125 2.184751 1.836063 -0.348688
655.65625 2.231585 1.907562 -0.324023
656.12890625 3.1530760000000004 1.839109 -1.313967
656.828125 2.1551649999999998 1.851098 -0.304067
657.4375 2.197795 1.808625 -0.38917
658.04296875 2.288515 1.858515 -0.43
658.52734375 3.1605559999999997 1.795 -1.365556
659.2265625 2.239042 1.834289 -0.404753
659.8203125 2.161891 1.805407 -0.356484
660.1875 3.212269 0.847283 -2.364986
661.01171875 2.3445910000000003 1.86 -0.484591
661.625 2.154707 1.73 -0.424707
662.21875 2.179503 1.782812 -0.396691
662.81640625 2.209355 1.834396 -0.374959
663.390625 2.191696 1.851696 -0.34
663.97265625 2.124132 1.834132 -0.29
664.57421875 2.150907 1.915436 -0.235471
665.16015625 2.199736 1.789948 -0.409788
665.7421875 2.1469489999999998 1.661949 -0.485
666.3125 2.140848 1.770848 -0.37
666.8828125 2.174617 1.81235 -0.362267
667.32421875 3.0621780000000003 1.842233 -1.219945
668.046875 2.208302 1.753792 -0.45451
668.640625 2.156091 1.681406 -0.474685
668.99609375 3.041355 0.766254 -2.275101
669.80078125 2.269184 1.716967 -0.552217
670.2734375 3.252296 1.707739 -1.544557
670.98828125 2.246925 1.740139 -0.506786
671.58984375 2.107754 1.732754 -0.375
671.9453125 3.120767 0.821645 -2.299122
672.75390625 2.309962 1.759962 -0.55
673.3515625 2.2509550000000003 1.80519 -0.445765
673.9375 2.294658 1.873929 -0.420729
674.515625 2.262051 1.762051 -0.5
675.11328125 2.208892 1.728152 -0.48074
675.703125 2.2327209999999997 1.664531 -0.56819
676.28125 2.1918040000000003 1.684231 -0.507573
676.7421875 3.26376 1.644355 -1.619405
677.4296875 2.3467510000000003 1.6888 -0.657951
678.02734375 2.274347 1.729347 -0.545
678.3828125 3.189873 0.91521 -2.274663
679.18359375 2.368764 1.983764 -0.385
679.5234375 3.172888 0.817888 -2.355
680.3359375 2.408623 2.049868 -0.358755
680.6953125 3.102824 0.758022 -2.344802
681.5078125 2.0912990000000002 2.207561 0.116262
681.96484375 3.00853 1.823636 -1.184894
682.6796875 2.480801 1.817559 -0.663242
683.26171875 2.391643 1.719736 -0.671907
683.61328125 3.215641 0.816682 -2.398959
684.421875 2.26991 1.69491 -0.575
684.79296875 3.26061 0.68811 -2.5725
685.60546875 2.205289 1.720289 -0.485
685.9609375 3.147818 0.516095 -2.631723
686.7578125 2.338209 1.631139 -0.70707
687.2265625 3.253939 1.418908 -1.835031
687.91796875 2.141502 1.582158 -0.559344
688.5078125 2.1737599999999997 1.614312 -0.559448
688.875 3.212812 0.61 -2.602812
689.66796875 2.313266 1.648506 -0.66476
690.02734375 2.848308 0.434525 -2.413783
690.74609375 2.0976749999999997 1.79307 -0.304605
691.1015625 2.818124 0.533908 -2.284216
691.92578125 2.142272 1.657272 -0.485
692.41796875 3.10621 1.347971 -1.758239
693.07421875 2.056482 1.551482 -0.505
693.65625 2.033618 1.52966 -0.503958
694.0234375 3.190882 0.670952 -2.51993
694.82421875 2.221222 1.656652 -0.56457
695.32421875 3.1265929999999997 1.427285 -1.699308
696.01953125 2.22488 1.664886 -0.559994
696.60546875 2.141919 1.615278 -0.526641
697.1796875 2.139472 1.644472 -0.495
697.6328125 3.124228 1.574239 -1.549989
698.375 2.114213 1.685 -0.429213
698.9765625 2.0721879999999997 1.640402 -0.431786
699.57421875 2.160285 1.717124 -0.443161
700.16015625 2.165202 1.795202 -0.37
700.74609375 2.138786 1.799099 -0.339687
701.328125 2.069592 1.764592 -0.305
701.703125 3.116842 0.844151 -2.272691
702.50390625 2.081228 1.684197 -0.397031
702.953125 3.166263 1.718971 -1.447292
703.6796875 2.19808 1.78745 -0.41063
704.27734375 2.003398 1.663945 -0.339453
704.8671875 2.065833 1.72 -0.345833
705.36328125 2.865068 1.547341 -1.317727
705.75390625 2.792036 0.605719 -2.186317
706.61328125 2.201259 1.696859 -0.5044
707.05078125 2.901256 1.648548 -1.252708
707.78515625 2.156928 1.94127 -0.215658
708.38671875 2.0852120000000003 1.893814 -0.191398
708.75390625 3.233821 1.018821 -2.215
709.5625 2.141878 1.812206 -0.329672
710.15625 2.154095 1.674095 -0.48
710.734375 2.0431999999999997 1.5332 -0.51
711.328125 2.048147 1.388928 -0.659219
711.9296875 2.069309 1.343022 -0.726287
712.29296875 2.983657 0.438657 -2.545
713.09765625 2.06777 1.33845 -0.72932
713.55078125 2.651745 0.933174 -1.718571
714.23828125 2.037231 1.552231 -0.485
714.83984375 2.008646 1.638646 -0.37
715.44140625 2.039953 1.611625 -0.428328
715.9296875 2.882377 1.212566 -1.669811
716.625 2.08957 1.625 -0.46457
717.23046875 2.0929409999999997 1.764608 -0.328333
717.8203125 2.1421 1.747647 -0.394453
718.30859375 2.740481 1.499663 -1.240818
719.0234375 2.139978 1.785 -0.354978
719.62890625 2.09952 1.88952 -0.21
720.2109375 2.089573 1.964501 -0.125072
720.6953125 2.894042 1.738199 -1.155843
721.39453125 2.014047 1.905542 -0.108505
721.9921875 1.9593550000000002 1.86 -0.099355
722.58984375 2.0363029999999998 1.892267 -0.144036
723.06640625 2.909102 1.834627 -1.074475
723.75 2.034447 1.815 -0.219447
724.3203125 2.025957 1.779474 -0.246483
724.6796875 2.685226 0.865798 -1.819428
725.50390625 2.023828 1.423996 -0.599832
726.08203125 1.733908 1.558908 -0.175
726.65234375 2.118014 1.804518 -0.313496
727.2265625 2.111528 1.616528 -0.495
727.80859375 2.103397 1.527296 -0.576101
728.38671875 2.165428 1.581361 -0.584067
728.77734375 2.904337 0.70471 -2.199627
729.56640625 2.182068 1.821616 -0.360452
730.03125 3.0827229999999997 1.755536 -1.327187
730.72265625 2.159739 1.894863 -0.264876
731.3046875 2.100857 1.944467 -0.15639
731.6640625 3.139691 1.084717 -2.054974
732.5 2.138174 1.97 -0.168174
733.08984375 2.054566 1.909859 -0.144707
733.65625 2.057109 1.850719 -0.20639
734.03515625 3.180157 0.995647 -2.18451
734.83203125 2.194885 1.571737 -0.623148
735.421875 2.1536929999999996 1.463693 -0.69
736.015625 2.172103 1.527474 -0.644629
736.49609375 3.116846 1.546846 -1.57
737.203125 2.154648 1.754704 -0.399944
737.7890625 2.104834 1.789834 -0.315
738.1328125 3.189304 0.901644 -2.28766
738.98828125 2.146462 1.805498 -0.340964
739.59765625 2.212282 1.787282 -0.425
740.1953125 2.1598759999999997 1.829095 -0.330781
740.54296875 3.1391009999999997 0.904152 -2.234949
741.3828125 2.0248630000000003 2.001644 -0.023219
741.984375 1.977371 2.000438 0.023067
742.5859375 2.00133 1.964583 -0.036747
742.9609375 3.073341 1.054801 -2.01854
743.77734375 2.178044 1.648044 -0.53
744.38671875 2.2030440000000002 1.376076 -0.826968
744.9765625 2.1876539999999998 1.302822 -0.884832
745.35546875 3.093678 0.534557 -2.559121
746.19921875 2.21 1.86 -0.35
746.80859375 2.0949340000000003 1.860829 -0.234105
747.390625 2.160701 1.932125 -0.228576
747.7578125 3.278435 1.023781 -2.254654
748.5703125 2.025933 1.78 -0.245933
749.17578125 1.9849890000000001 1.682274 -0.302715
749.7734375 2.099705 1.623976 -0.475729
750.14453125 3.1397299999999997 0.764871 -2.374859
750.94140625 2.002781 1.629617 -0.373164
751.5234375 1.904118 1.736559 -0.167559
752.11328125 1.898899 1.584023 -0.314876
752.484375 3.028772 0.706172 -2.3226
753.2890625 2.014978 1.374978 -0.64
753.88671875 2.014292 1.303359 -0.710933
754.47265625 1.995 1.28 -0.715
754.9609375 3.024575 1.17488 -1.849695
755.65234375 2.011352 1.446366 -0.564986
756.265625 1.970083 1.556016 -0.414067
756.62890625 3.134519 0.725 -2.409519
757.45703125 2.097006 1.626151 -0.470855
758.05859375 2.076548 1.639712 -0.436836
758.6484375 2.136605 1.683935 -0.45267
759.25390625 2.13 1.61 -0.52
759.84765625 2.0944789999999998 1.564479 -0.53
760.4453125 2.086132 1.561132 -0.525
761.0234375 2.108008 1.53709 -0.570918
761.46875 3.084812 1.43125 -1.653562
762.1875 2.123333 1.448661 -0.674672
762.77734375 2.075389 1.393553 -0.681836
763.37109375 2.1167860000000003 1.368996 -0.74779
763.8359375 3.158054 1.354916 -1.803138
764.55078125 2.196129 1.56857 -0.627559
765.12890625 2.178648 1.678789 -0.499859
765.484375 3.1642099999999997 0.806142 -2.358068
766.3359375 2.219511 1.759623 -0.459888
766.9296875 2.114386 1.696505 -0.417881
767.51953125 2.134238 1.689988 -0.44425
768.109375 2.097925 1.667925 -0.43
768.70703125 2.1197690000000002 1.659769 -0.46
769.29296875 2.110143 1.633338 -0.476805
769.890625 2.135167 1.657974 -0.477193
770.37890625 3.079184 1.433078 -1.646106
771.0703125 2.145419 1.620448 -0.524971
771.65234375 2.1 1.565 -0.535
772.0 3.1744440000000003 0.705 -2.469444
772.84375 2.1418939999999997 1.661894 -0.48
773.34375 2.989635 1.559635 -1.43
774.015625 2.062396 1.667396 -0.395
774.578125 2.045262 1.751092 -0.29417
774.9375 2.822187 0.957187 -1.865
775.734375 2.169648 1.746576 -0.423072
776.32421875 2.10617 1.525269 -0.580901
776.90625 2.121132 1.460878 -0.660254
777.49609375 2.125289 1.521971 -0.603318
778.08203125 2.064136 1.555 -0.509136
778.65234375 2.051771 1.619546 -0.432225
779.24609375 2.038726 1.660654 -0.378072
779.8515625 2.048971 1.678971 -0.37
780.44140625 2.081186 1.694536 -0.38665
781.0234375 2.089913 1.699927 -0.389986
781.6015625 2.1661930000000003 1.726317 -0.439876
782.18359375 2.0995619999999997 1.704562 -0.395
782.7578125 2.150102 1.744321 -0.405781
783.34375 2.082347 1.659219 -0.423128
783.92578125 2.0525100000000003 1.697256 -0.355254
784.49609375 2.069379 1.729809 -0.33957
785.06640625 2.075092 1.774764 -0.300328
785.6328125 2.060114 1.711676 -0.348438
786.203125 2.063992 1.684461 -0.379531
786.79296875 2.106548 1.736506 -0.370042
787.3046875 3.039628 0.826816 -2.212812
787.58203125 3.478164 1.068457 -2.409707
788.49609375 2.238606 1.846971 -0.391635
788.92578125 2.772942 1.791808 -0.981134
789.6640625 2.144647 1.794647 -0.35
790.25390625 2.036235 1.733107 -0.303128
790.8515625 2.048744 1.680265 -0.368479
791.3203125 2.968372 1.328398 -1.639974
791.83203125 3.208053 0.818053 -2.39
792.578125 2.104864 1.622131 -0.482733
793.1796875 2.092201 1.739441 -0.35276
793.7734375 2.1197850000000003 1.810265 -0.30952
794.375 2.005 1.82 -0.185
794.953125 2.0277339999999997 1.765 -0.262734
795.30078125 2.7215309999999997 0.821896 -1.899635
796.1015625 2.060318 1.765442 -0.294876
796.68359375 1.950869 1.664417 -0.286452
797.25390625 1.978162 1.658162 -0.32
797.66796875 2.943511 0.873511 -2.07
798.390625 2.005954 1.580954 -0.425
798.9609375 1.99188 1.589952 -0.401928
799.546875 1.994243 1.597853 -0.39639
800.140625 1.9845640000000002 1.584564 -0.4
800.71484375 2.021984 1.576984 -0.445
801.0703125 2.976937 0.633293 -2.343644
801.87109375 2.113412 1.595986 -0.517426
802.45703125 2.039961 1.570066 -0.469895
803.02734375 2.0980920000000003 1.663553 -0.434539
803.6171875 2.035461 1.663251 -0.37221
804.2109375 2.0488779999999998 1.66556 -0.383318
804.77734375 2.002447 1.677476 -0.324971
805.34375 1.986537 1.658409 -0.328128
805.91015625 1.983237 1.663663 -0.319574
806.4921875 1.964384 1.704798 -0.259586
807.078125 1.990585 1.686104 -0.304481
807.4375 2.9678310000000003 0.85787 -2.109961
808.2109375 2.109577 1.674606 -0.434971
808.7890625 2.028506 1.569896 -0.45861
809.359375 2.061373 1.569229 -0.492144
809.91796875 2.025065 1.516107 -0.508958
810.48828125 1.998284 1.513284 -0.485
811.078125 2.0441700000000003 1.559689 -0.484481
811.63671875 2.054736 1.564736 -0.49
811.99609375 2.870104 0.650953 -2.219151
812.7734375 2.1017080000000004 1.571708 -0.53
813.26953125 3.238889 0.819247 -2.419642
813.953125 2.045871 1.593837 -0.452034
814.44140625 2.9472389999999997 1.444733 -1.502506
815.09765625 2.0640840000000003 1.638136 -0.425948
815.66796875 2.038317 1.644701 -0.393616
816.265625 2.066188 1.681217 -0.384971
816.765625 2.7174370000000003 1.253403 -1.464034
817.43359375 2.039986 1.64 -0.399986
818.0234375 1.9865380000000001 1.570054 -0.416484
818.375 3.0333240000000004 0.76 -2.273324
819.171875 2.066866 1.653915 -0.412951
819.76171875 1.976137 1.649739 -0.326398
820.36328125 2.052562 1.737562 -0.315
820.9453125 2.0868729999999998 1.806887 -0.279986
821.52734375 2.082249 1.864701 -0.217548
822.08984375 2.425798 1.933655 -0.492143
822.671875 2.0599089999999998 1.834909 -0.225
823.1640625 2.799729 1.499729 -1.3
823.83203125 2.05707 1.788812 -0.268258
824.42578125 1.985913 1.74 -0.245913
824.78515625 2.958133 0.912517 -2.045616
825.5859375 2.089608 1.769099 -0.320509
826.171875 1.978331 1.688792 -0.289539
826.765625 1.995728 1.690728 -0.305
827.3671875 2.004129 1.719344 -0.284785
827.9609375 1.965775 1.69056 -0.275215
828.31640625 2.94 0.77 -2.17
829.12109375 2.056156 1.721156 -0.335
829.71875 1.9502249999999999 1.644656 -0.305569
830.3125 2.010927 1.724091 -0.286836
830.6875 2.7906299999999997 0.717831 -2.072799
831.5 2.0649439999999997 1.765 -0.299944
832.08203125 1.994153 1.759368 -0.234785
832.66015625 2.011742 1.751742 -0.26
833.03515625 2.825332 0.896984 -1.928348
833.828125 2.159588 1.499588 -0.66
834.1875 2.70304 0.270833 -2.432207
835.0078125 2.1832409999999998 1.53827 -0.644971
835.44921875 2.951531 1.526563 -1.424968
836.171875 2.1499829999999998 1.737104 -0.412879
836.76953125 2.087275 1.759549 -0.327726
837.12890625 2.827933 0.818996 -2.008937
837.61328125 2.818862 1.531815 -1.287047
838.54296875 2.046868 1.7876 -0.259268
839.14453125 2.013674 1.789432 -0.224242
839.71484375 2.047078 1.782723 -0.264355
840.07421875 2.74062 0.75062 -1.99
840.90625 2.094332 1.809651 -0.284681
841.50390625 2.030007 1.767223 -0.262784
842.078125 2.054149 1.754149 -0.3
842.66015625 2.078636 1.723636 -0.355
843.25 2.0493550000000003 1.715 -0.334355
843.59765625 2.940966 0.858794 -2.082172
844.4140625 2.092286 1.74924 -0.343046
845.015625 2.030799 1.718199 -0.3126
845.5859375 1.980005 1.664949 -0.315056
846.15234375 1.979088 1.689701 -0.289387
846.73046875 1.984559 1.65 -0.334559
847.3125 2.34413 1.59413 -0.75
847.8359375 3.0296510000000003 0.809651 -2.22
848.48828125 2.036599 1.721846 -0.314753
848.82421875 2.742346 0.683302 -2.059044
849.62109375 2.0328049999999998 1.696559 -0.336246
850.09375 2.593877 2.034219 -0.559658
850.77734375 2.115 1.74 -0.375
851.16015625 2.840305 0.7704 -2.069905
851.95703125 2.009169 1.600022 -0.409147
852.3828125 2.680262 1.588138 -1.092124
853.09765625 2.084531 1.584531 -0.5
853.68359375 2.04243 1.589749 -0.452681
854.05859375 2.9754110000000003 0.734366 -2.241045
854.859375 2.072272 1.587396 -0.484876
855.21484375 2.8602869999999996 0.476742 -2.383545
856.015625 2.094918 1.593199 -0.501719
856.40625 2.811067 0.55706 -2.254007
857.171875 2.117061 1.624214 -0.492847
857.765625 2.7812900000000003 2.15748 -0.62381
858.35546875 2.084549 1.66498 -0.419569
858.828125 3.0246959999999996 1.498846 -1.52585
859.51953125 2.069338 1.629994 -0.439344
860.08203125 2.724847 2.006847 -0.718
860.453125 3.0789220000000004 0.793922 -2.285
861.28125 2.195949 1.749668 -0.446281
861.64453125 2.829958 0.624958 -2.205
862.4375 2.1220049999999997 1.722333 -0.399672
862.8046875 2.748426 0.634562 -2.113864
863.6015625 2.141559 1.786559 -0.355
864.06640625 3.0291449999999998 1.726567 -1.302578
864.77734375 2.13828 1.874862 -0.263418
865.375 2.092927 1.845 -0.247927
865.734375 3.004184 0.96367 -2.040514
866.53515625 2.1278859999999997 1.835106 -0.29278
867.01953125 3.081976 1.54462 -1.537356
867.71875 2.080637 1.73 -0.350637
868.31640625 2.0449900000000003 1.695 -0.34999
868.671875 3.076101 0.843624 -2.232477
869.46875 2.143612 1.732852 -0.41076
869.828125 3.019818 0.649818 -2.37
870.64453125 2.206794 1.789958 -0.416836
871.01953125 3.004398 0.679922 -2.324476
871.83984375 2.21021 1.779357 -0.430853
872.4375 2.0786670000000003 1.698681 -0.379986
872.79296875 3.043005 0.755721 -2.287284
873.59765625 2.139374 1.713707 -0.425667
874.10546875 3.0066100000000002 1.300292 -1.706318
874.796875 2.0842519999999998 1.638639 -0.445613
875.39453125 2.055864 1.609941 -0.445923
875.7578125 3.157623 0.758033 -2.39959
876.5625 2.230026 1.725682 -0.504344
876.921875 3.009911 0.589911 -2.42
877.7421875 2.263037 1.728161 -0.534876
878.1171875 3.012263 0.484811 -2.527452
878.9453125 2.2123299999999997 1.437555 -0.774775
879.3046875 2.954708 0.288663 -2.666045
880.11328125 2.182242 1.443066 -0.739176
880.7109375 2.123143 1.534885 -0.588258
881.3125 2.165735 1.652014 -0.513721
881.7890625 3.195138 1.541028 -1.65411
882.49609375 2.182135 1.850062 -0.332073
883.08203125 2.1356990000000002 1.817511 -0.318188
883.66015625 2.025741 1.785741 -0.24
884.14453125 2.832097 1.754898 -1.077199
884.828125 2.1190439999999997 1.849408 -0.269636
885.4140625 2.069644 1.856028 -0.213616
885.77734375 2.926529 0.988598 -1.937931
886.55859375 2.13992 1.964949 -0.174971
886.91015625 2.920098 0.867762 -2.052336
887.73828125 2.199909 1.986837 -0.213072
888.359375 2.089219 1.910988 -0.178231
888.9375 2.176918 1.947143 -0.229775
889.52734375 2.113295 1.903725 -0.20957
890.109375 2.1183229999999997 1.903447 -0.214876
890.4765625 3.002186 1.019045 -1.983141
891.2734375 2.126898 1.821644 -0.305254
891.87109375 2.049785 1.78 -0.269785
892.47265625 2.092603 1.752603 -0.34
892.8359375 3.039866 0.934866 -2.105
893.6171875 2.127123 1.774804 -0.352319
894.2109375 2.044608 1.729823 -0.314785
894.81640625 2.054019 1.734675 -0.319344
895.28515625 3.087478 1.717764 -1.369714
895.9765625 2.08242 1.661587 -0.420833
896.5546875 2.030313 1.587523 -0.44279
897.13671875 2.100744 1.646682 -0.454062
897.609375 3.0830450000000003 1.624138 -1.458907
898.0625 3.108652 0.768672 -2.33998
898.8984375 2.14795 1.652833 -0.495117
899.37890625 2.9463980000000003 1.698742 -1.247656
900.078125 2.114818 1.649818 -0.465
900.65625 1.942922 1.590363 -0.352559
901.234375 2.032352 1.654224 -0.378128
901.71875 2.9269030000000003 1.512461 -1.414442
902.40234375 2.124717 1.519525 -0.605192
902.9765625 2.22898 1.604254 -0.624726
903.54296875 2.084219 1.53 -0.554219
904.0078125 2.920515 1.359511 -1.561004
904.67578125 2.1596219999999997 1.544622 -0.615
905.25390625 2.197291 1.673779 -0.523512
905.6171875 2.830636 0.875854 -1.954782
906.390625 2.019951 1.697942 -0.322009
906.8828125 2.889296 1.519511 -1.369785
907.5390625 2.039867 1.624867 -0.415
908.12109375 2.133575 1.416046 -0.717529
908.48828125 2.800013 0.418758 -2.381255
909.27734375 1.90876 2.50882 0.60006
909.71875 1.867012 2.952012 1.085
910.40625 1.2796409999999998 2.424641 1.145
911.00390625 1.2076790000000002 2.075 0.867321
911.578125 1.346254 1.645 0.298746
912.171875 1.564143 1.364684 -0.199459
912.75390625 1.5011869999999998 1.251696 -0.249491
913.32421875 1.337553 1.017272 -0.320281
913.890625 1.645569 0.815569 -0.83
914.45703125 1.654143 0.749851 -0.904292
915.046875 1.6636389999999999 0.608639 -1.055
915.62109375 1.705583 0.695902 -1.009681
916.19921875 2.073879 0.476482 -1.597397
916.7578125 1.839661 0.3398 -1.499861
917.3125 1.969614 0.457241 -1.512373
917.8828125 1.901104 0.511104 -1.39
918.44921875 1.902865 0.64232 -1.260545
919.0234375 1.8335590000000002 0.791384 -1.042175
919.3984375 2.678966 0.018966 -2.66
920.1484375 1.9520089999999999 1.05 -0.902009
920.7109375 2.008949 1.079637 -0.929312
921.28125 1.9838609999999999 1.171992 -0.811869
921.66015625 2.577555 0.287912 -2.289643
922.41796875 1.928506 1.318506 -0.61
922.77734375 2.663641 0.328641 -2.335
923.5546875 1.951082 1.393083 -0.557999
924.12890625 1.94963 1.41463 -0.535
924.69140625 1.9442279999999998 1.399266 -0.544962
925.0703125 2.690976 0.666759 -2.024217
925.83984375 2.195688 1.61724 -0.578448
926.21484375 2.484416 0.481328 -2.003088
926.97265625 2.011652 1.65439 -0.357262
927.53125 2.024336 1.613281 -0.411055
928.1015625 1.9565700000000001 1.553935 -0.402635
928.68359375 2.008822 1.6596 -0.349222
929.24609375 1.981601 1.626601 -0.355
929.59765625 2.309687 0.574701 -1.734986
930.35546875 2.1149940000000003 1.684994 -0.43
930.71484375 2.508585 0.564639 -1.943946
931.48046875 2.054176 1.71 -0.344176
932.05078125 2.116869 1.801869 -0.315
932.62890625 1.988243 1.627232 -0.361011
933.203125 1.932684 1.682684 -0.25
933.76953125 1.864542 1.629656 -0.234886
934.31640625 1.840853 1.750853 -0.09
934.89453125 1.924902 1.794921 -0.129981
935.48828125 1.857068 1.66617 -0.190898
936.05859375 1.926576 1.63446 -0.292116
936.62890625 1.88132 1.528118 -0.353202
937.1875 1.930008 1.4957 -0.434308
937.7578125 1.913498 1.483498 -0.43
938.140625 2.681174 0.713878 -1.967296
938.89453125 2.035849 1.574948 -0.460901
939.46484375 2.023104 1.398655 -0.624449
940.03125 2.078293 1.180139 -0.898154
940.40625 2.7886640000000003 0.19966 -2.589004
941.15234375 1.959066 1.07 -0.889066
941.72265625 1.874501 1.199501 -0.675
942.3046875 1.942495 1.362559 -0.579936
942.66015625 2.7003 0.543435 -2.156865
943.44140625 1.849855 1.701669 -0.148186
944.0 1.599945 2.15 0.550055
944.5703125 1.736067 1.959464 0.223397
945.1328125 1.726885 1.773068 0.046183
945.70703125 1.845407 1.660022 -0.185385
946.27734375 1.7646009999999999 1.644715 -0.119886
946.8515625 1.974612 1.11 -0.864612
947.375 2.529907 0.43 -2.099907
947.984375 2.007884 1.602884 -0.405
948.5625 1.935371 1.778981 -0.15639
948.921875 2.78368 0.954051 -1.829629
949.70703125 2.0500410000000002 1.803519 -0.246522
950.26953125 1.925044 1.744988 -0.180056
950.828125 1.971587 1.829118 -0.142469
951.38671875 1.96936 1.764415 -0.204945
951.94921875 1.908684 1.908684 0.0
952.52734375 1.951543 1.944988 -0.006555
953.08203125 1.936151 1.866151 -0.07
953.65234375 1.883959 1.863959 -0.02
954.21484375 1.8578480000000002 1.573636 -0.284212
954.765625 1.825578 1.665703 -0.159875
955.328125 1.799555 1.824802 0.025247
955.8984375 1.791333 1.821333 0.03
956.45703125 1.794576 1.810123 0.015547
957.0234375 1.844453 1.737871 -0.106582
957.57421875 1.85548 1.725536 -0.129944
958.1328125 1.85039 1.538018 -0.312372
958.69140625 1.735842 1.580842 -0.155
959.05078125 2.847526 0.708885 -2.138641
959.828125 1.830684 1.46959 -0.361094
960.40625 1.789086 1.44007 -0.349016
960.96875 1.8182939999999999 1.467852 -0.350442
961.5234375 1.827713 1.358326 -0.469387
962.0859375 1.844134 1.309564 -0.53457
962.66796875 1.7727620000000002 1.268223 -0.504539
963.2265625 1.858971 1.328971 -0.53
963.79296875 1.889716 1.379716 -0.51
964.3515625 1.9172920000000002 1.346591 -0.570701
964.91015625 1.855 1.22 -0.635
965.28125 2.813688 0.405 -2.408688
966.03125 1.916949 1.158333 -0.758616
966.390625 2.700423 0.150111 -2.550312
967.1796875 1.999519 1.309519 -0.69
967.546875 2.6221039999999998 0.237104 -2.385
967.80859375 2.508111 0.483705 -2.024406
968.83203125 2.038773 1.321506 -0.717267
969.43359375 1.931944 1.349828 -0.582116
970.00390625 1.8876460000000002 1.359482 -0.528164
970.578125 1.944986 1.434572 -0.510414
971.1484375 1.9383110000000001 1.393311 -0.545
971.71875 1.929141 1.364265 -0.564876
972.29296875 1.941506 1.326506 -0.615
972.87890625 1.943119 1.343906 -0.599213
973.4609375 1.9599790000000001 1.319979 -0.64
974.03515625 1.951165 1.221165 -0.73
974.609375 1.936715 1.17636 -0.760355
975.171875 1.9099300000000001 1.193427 -0.716503
975.75390625 1.9184449999999997 1.348445 -0.57
976.3515625 1.926942 1.467643 -0.459299
976.921875 1.9239929999999998 1.559454 -0.364539
977.26953125 2.651938 0.634893 -2.017045
978.046875 1.969689 1.674689 -0.295
978.515625 2.653286 2.22415 -0.429136
979.20703125 1.96112 1.66612 -0.295
979.796875 1.878542 1.5885 -0.290042
980.3984375 1.895827 1.676483 -0.219344
980.96875 1.9112390000000001 1.655771 -0.255468
981.33203125 2.660954 0.750954 -1.91
982.09765625 1.90402 1.64902 -0.255
982.6171875 2.4914630000000004 1.122691 -1.368772
983.29296875 1.858895 1.566852 -0.292043
983.875 1.8181280000000002 1.465 -0.353128
984.22265625 2.8033740000000003 0.612861 -2.190513
985.0078125 1.912208 1.351611 -0.560597
985.4921875 3.4221510000000004 2.004567 -1.417584
985.79296875 2.129543 0.229622 -1.899921
986.734375 1.9950899999999998 1.291548 -0.703542
987.3359375 1.9075790000000001 1.261095 -0.646484
987.9140625 1.934832 1.259832 -0.675
988.26171875 2.829175 0.26542 -2.563755
989.05859375 2.00694 1.360839 -0.646101
989.5546875 2.864201 1.279303 -1.584898
990.24609375 1.9778030000000002 1.453105 -0.524698
990.8359375 1.9082340000000002 1.414797 -0.493437
991.18359375 2.874524 0.559524 -2.315
991.98046875 2.004931 1.459931 -0.545
992.4609375 2.9491389999999997 1.314837 -1.634302
993.1640625 1.988115 1.535551 -0.452564
993.765625 1.917749 1.550643 -0.367106
994.11328125 2.853985 0.72086 -2.133125
994.91796875 1.998175 1.618494 -0.379681
995.26953125 2.7848249999999997 0.539966 -2.244859
996.09375 1.989631 1.77125 -0.218381
996.703125 1.899913 1.704913 -0.195
997.29296875 1.963635 1.748635 -0.215
997.8671875 1.973506 1.75433 -0.219176
998.4453125 1.9661750000000002 1.701175 -0.265
998.8203125 2.822577 1.052649 -1.769928
999.60546875 2.013252 1.639948 -0.373304
999.96875 2.868679 0.523679 -2.345
1000.8046875 2.034976 1.621119 -0.413857
1001.2265625 2.6834379999999998 1.590663 -1.092775
1001.97265625 2.037161 1.632161 -0.405
1002.5703125 1.991141 1.646141 -0.345
1003.17578125 2.0101560000000003 1.737376 -0.27278
1003.61328125 2.9943790000000003 1.729443 -1.264936
1004.3359375 2.02461 1.734734 -0.289876
1004.921875 1.981797 1.757949 -0.223848
1005.5 2.012106 1.83 -0.182106
1005.9453125 3.0406500000000003 1.796175 -1.244475
1006.66015625 2.034372 1.78515 -0.249222
1007.26953125 2.002241 1.749956 -0.252285
1007.62109375 3.0126 0.815 -2.1976
1008.421875 2.104815 1.649815 -0.455
1008.765625 3.0352819999999996 0.465282 -2.57
1009.6015625 2.13653 1.542024 -0.594506
1010.20703125 2.002834 1.473818 -0.529016
1010.78515625 2.072733 1.514658 -0.558075
1011.13671875 2.835268 0.510268 -2.325
1011.9296875 2.137502 1.452538 -0.684964
1012.53125 2.063908 1.434241 -0.629667
1013.1015625 2.095 1.475 -0.62
1013.46875 2.999073 0.574073 -2.425
1014.28125 2.112343 1.51503 -0.597313
1014.859375 2.056138 1.568066 -0.488072
1015.4296875 2.14746 1.698844 -0.448616
1015.79296875 2.973092 0.798348 -2.174744
1016.6015625 2.143917 1.716417 -0.4275
1017.19140625 2.103316 1.767988 -0.335328
1017.76953125 2.097347 1.804994 -0.292353
1018.125 3.05 0.965 -2.085
1018.91796875 2.107513 1.863828 -0.243685
1019.50390625 2.074592 1.82963 -0.244962
1020.09375 2.136579 1.827543 -0.309036
1020.68359375 2.072741 1.77664 -0.296101
1021.265625 2.099055 1.854383 -0.244672
1021.63671875 3.056892 0.957382 -2.09951
1022.4140625 2.101692 1.973996 -0.127696
1023.00390625 2.08067 1.951138 -0.129532
1023.6015625 2.116591 1.916591 -0.2
1024.1875 2.09817 1.814 -0.28417
1024.7578125 2.098477 1.827079 -0.271398
1025.12109375 3.0846069999999997 0.849633 -2.234974
1025.90234375 2.201855 1.584541 -0.617314
1026.328125 2.889882 1.672104 -1.217778
1027.05078125 2.128315 1.63249 -0.495825
1027.63671875 2.046906 1.661874 -0.385032
1028.21484375 2.0224610000000003 1.622656 -0.399805
1028.78515625 2.026322 1.601322 -0.425
1029.36328125 2.03224 1.5836 -0.44864
1029.73046875 2.980876 0.679963 -2.300913
1030.53515625 2.012589 1.582589 -0.43
1031.125 2.079943 1.67 -0.409943
1031.68359375 2.0302569999999998 1.585 -0.445257
1032.109375 2.2275590000000003 1.832559 -0.395
1032.76953125 2.059929 1.759929 -0.3
1033.35546875 1.975 1.8 -0.175
1033.71875 2.904654 0.84125 -2.063404
1034.515625 2.027396 1.792396 -0.235
1034.9375 2.79035 1.593594 -1.196756
1035.671875 2.038105 1.448105 -0.59
1036.26171875 1.95189 1.359438 -0.592452
1036.84375 1.997069 1.307132 -0.689937
1037.27734375 2.823973 1.084022 -1.739951
1037.99609375 1.968546 1.298638 -0.669908
1038.56640625 1.982528 1.427753 -0.554775
1039.1328125 1.9548869999999998 1.56262 -0.392267
1039.578125 3.068175 1.549663 -1.518512
1040.28125 1.954957 2.112391 0.157434
1040.86328125 1.8935679999999997 2.068783 0.175215
1041.44140625 1.8485319999999998 2.024675 0.176143
1041.875 2.909484 1.77 -1.139484
1042.56640625 1.7958390000000002 1.945839 0.15
1043.1484375 1.7512699999999999 1.887573 0.136303
1043.5078125 3.07649 1.07807 -1.99842
1044.3046875 1.868609 1.805 -0.063609
1044.890625 1.726147 1.671518 -0.054629
1045.45703125 1.793033 1.683033 -0.11
1046.02734375 1.796842 1.654681 -0.142161
1046.59765625 1.817161 1.618069 -0.199092
1046.94140625 2.908752 0.584463 -2.324289
1047.7578125 1.911587 1.441587 -0.47
1048.21875 2.849062 1.394062 -1.455
1048.9140625 1.979433 1.404757 -0.574676
1049.4765625 1.9175 1.407564 -0.509936
1049.828125 3.027089 0.552089 -2.475
1050.625 1.968719 1.465 -0.503719
1051.1015625 3.125085 1.148264 -1.976821
1051.76953125 2.067615 1.139658 -0.927957
1052.3359375 2.120897 1.031011 -1.089886
1052.6875 3.002256 0.017273 -2.984983
1053.46875 2.202795 0.972094 -1.230701
1053.9453125 2.9844720000000002 0.839535 -2.144937
1054.61328125 2.190782 1.260273 -0.930509
1055.1875 2.0941669999999997 1.344167 -0.75
1055.546875 2.79682 0.534185 -2.262635
1056.3125 2.038646 1.832143 -0.206503
1056.67578125 2.932981 0.7583 -2.174681
1057.5 2.190901 1.895 -0.295901
1058.078125 2.118639 1.873639 -0.245
1058.6484375 2.132055 1.912065 -0.21999
1059.2265625 2.131907 1.833337 -0.29857
1059.80078125 2.153125 1.848738 -0.304387
1060.16796875 2.983869 0.827623 -2.156246
1060.94921875 2.109936 1.793774 -0.316162
1061.54296875 2.081489 1.84 -0.241489
1062.11328125 2.094105 1.839105 -0.255
1062.5390625 2.9643360000000003 1.634895 -1.329441
1063.24609375 2.119664 1.758143 -0.361521
1063.83984375 2.081835 1.721947 -0.359888
1064.43359375 2.088595 1.668595 -0.42
1065.0078125 2.053202 1.658231 -0.394971
1065.5703125 2.081707 1.671707 -0.41
1065.9375 1.9798110000000002 0.878712 -1.101099
1066.6328125 2.099115 1.788231 -0.310884
1067.2265625 2.018822 1.76 -0.258822
1067.8125 2.022681 1.743824 -0.278857
1068.4140625 2.019863 1.714863 -0.305
1068.98828125 2.053222 1.732529 -0.320693
1069.36328125 3.016509 0.77189 -2.244619
1070.13671875 2.116377 1.599727 -0.51665
1070.578125 2.831648 1.259174 -1.572474
1071.328125 2.074289 1.439914 -0.634375
1071.92578125 1.998376 1.528376 -0.47
1072.49609375 2.009624 1.614927 -0.394697
1073.06640625 2.013652 1.619389 -0.394263
1073.65625 2.014903 1.550817 -0.464086
1074.234375 1.986163 1.43791 -0.548253
1074.8203125 2.015213 1.442415 -0.572798
1075.39453125 2.054628 1.48492 -0.569708
1075.75390625 2.8371890000000004 0.508132 -2.329057
1076.4765625 2.093408 1.599045 -0.494363
1076.95703125 3.122243 1.362431 -1.759812
1077.671875 2.053516 1.683516 -0.37
1078.2578125 2.004213 1.747321 -0.256892
1078.84765625 2.063155 1.813155 -0.25
1079.28125 2.8724600000000002 1.692647 -1.179813
1079.6015625 2.924449 0.685 -2.239449
1080.5625 2.134827 1.868894 -0.265933
1081.03515625 3.076751 1.663198 -1.413553
1081.76953125 2.164916 1.929926 -0.23499
1082.34765625 2.067619 1.957619 -0.11
1082.9375 1.99391 1.923661 -0.070249
1083.5234375 2.028412 2.063412 0.035
1084.12109375 2.110796 2.129105 0.018309
1084.49609375 2.921091 1.034126 -1.886965
1085.28515625 2.177691 2.027691 -0.15
1085.859375 2.096888 1.914406 -0.182482
1086.4375 2.102217 1.827391 -0.274826
1086.84765625 2.3411039999999996 2.009206 -0.331898
1087.50390625 2.097935 1.754737 -0.343198
1088.109375 2.077623 1.728447 -0.349176
1088.7109375 2.110849 1.726064 -0.384785
1089.1328125 2.9287929999999998 1.529534 -1.399259
1089.859375 2.057918 1.651016 -0.406902
1090.4453125 2.028906 1.623022 -0.405884
1091.05859375 2.069314 1.654585 -0.414729
1091.515625 3.074943 1.5971 -1.477843
1092.234375 2.094236 1.695785 -0.398451
1092.82421875 2.016515 1.678558 -0.337957
1093.40625 2.069044 1.704044 -0.365
1093.859375 3.097735 1.532838 -1.564897
1094.56640625 2.0571289999999998 1.694473 -0.362656
1095.171875 2.058535 1.688854 -0.369681
1095.55859375 1.756902 1.409859 -0.347043
1096.234375 2.0817099999999997 1.680111 -0.401599
1096.8125 2.003456 1.613681 -0.389775
1097.40234375 2.078531 1.689865 -0.388666
1098.00390625 2.078341 1.685997 -0.392344
1098.5703125 2.063428 1.668775 -0.394653
1099.140625 2.060043 1.668942 -0.391101
1099.5 3.0383999999999998 0.735 -2.3034
1100.28515625 2.09031 1.61531 -0.475
1100.86328125 2.002962 1.6172 -0.385762
1101.4453125 2.058351 1.68745 -0.370901
1101.83203125 3.0131170000000003 0.748117 -2.265
1102.609375 2.0802430000000003 1.551447 -0.528796
1103.19921875 2.101855 1.496596 -0.605259
1103.48828125 2.788259 0.263411 -2.524848
1104.36328125 2.048016 1.541859 -0.506157
1104.96484375 2.02551 1.543612 -0.481898
1105.5546875 2.087587 1.568971 -0.518616
1105.91796875 2.997216 0.643848 -2.353368
1106.69140625 2.089656 1.63467 -0.454986
1107.0546875 2.931901 0.50692 -2.424981
1107.87109375 2.063065 1.713094 -0.349971
1108.3046875 2.858287 1.452172 -1.406115
1109.04296875 2.104525 1.731959 -0.372566
1109.6328125 2.020908 1.739241 -0.281667
1110.203125 1.993783 1.702617 -0.291166
1110.78125 1.977358 1.682358 -0.295
1111.375 2.025422 1.695 -0.330422
1111.73046875 2.924902 0.694902 -2.23
1112.53515625 2.04791 1.71291 -0.335
1113.1171875 2.01111 1.709056 -0.302054
1113.69140625 2.009056 1.659837 -0.349219
1114.265625 1.93279 1.58 -0.35279
1114.859375 1.902651 1.608274 -0.294377
1115.453125 1.985845 1.794912 -0.190933
1116.0234375 1.946032 1.754473 -0.191559
1116.6015625 1.929218 1.689883 -0.239335
1117.1640625 1.928982 1.643982 -0.285
1117.52734375 2.930347 0.657921 -2.272426
1118.328125 1.9796179999999999 1.543763 -0.435855
1118.91015625 2.002016 1.547016 -0.455
1119.4765625 1.992697 1.492573 -0.500124
1120.04296875 1.928807 1.396047 -0.53276
1120.6171875 1.9949999999999999 1.41 -0.585
1120.96875 2.936533 0.457813 -2.47872
1121.75390625 2.045941 1.437623 -0.608318
1122.34375 2.013862 1.388862 -0.625
1122.90625 1.9845160000000002 1.365831 -0.618685
1123.47265625 1.9280439999999999 1.358044 -0.57
1124.0390625 1.982424 1.379664 -0.60276
1124.62890625 1.9583409999999999 1.314513 -0.643828
1125.21484375 2.0066 1.38776 -0.61884
1125.7890625 1.9981470000000001 1.419952 -0.578195
1126.34765625 2.045826 1.513326 -0.5325
1126.72265625 2.9240500000000003 0.579206 -2.344844
1127.49609375 2.002509 1.502509 -0.5
1127.95703125 3.10038 1.297219 -1.803161
1128.65625 2.032541 1.583393 -0.449148
1129.25390625 1.9968599999999999 1.606936 -0.389924
1129.82421875 1.975621 1.606071 -0.36955
1130.38671875 1.9445430000000001 1.535522 -0.409021
1130.84765625 2.484157 2.08833 -0.395827
1131.28515625 2.897513 0.439129 -2.458384
1132.14453125 2.037844 1.555285 -0.482559
1132.625 3.154462 1.75 -1.404462
1133.296875 1.9995720000000001 1.604572 -0.395
1133.7578125 3.0406690000000003 1.398404 -1.642265
1134.44921875 2.00504 1.587773 -0.417267
1135.0390625 1.929725 1.559725 -0.37
1135.39453125 2.9298719999999996 0.649872 -2.28
1136.20703125 1.968605 1.508605 -0.46
1136.6796875 3.042483 1.257555 -1.784928
1137.359375 1.963298 1.478422 -0.484876
1137.953125 1.939515 1.469093 -0.470422
1138.546875 1.952633 1.478059 -0.474574
1139.12890625 1.9416470000000001 1.433135 -0.508512
1139.7109375 1.969786 1.429891 -0.539895
1140.2890625 1.965366 1.449951 -0.515415
1140.640625 2.897907 0.488027 -2.40988
1141.4375 1.978646 1.468646 -0.51
1141.8671875 2.634671 1.192963 -1.441708
1142.61328125 1.993692 1.459122 -0.53457
1143.20703125 1.974474 1.511792 -0.462682
1143.7890625 1.999923 1.559923 -0.44
1144.359375 1.973317 1.523317 -0.45
1144.94140625 1.97278 1.47953 -0.49325
1145.3203125 2.920718 0.511011 -2.409707
1146.109375 2.029179 1.425728 -0.603451
1146.68359375 1.964325 1.417316 -0.547009
1147.2578125 1.974043 1.389043 -0.585
1147.84765625 2.008541 1.429541 -0.579
1148.42578125 2.044567 1.459567 -0.585
1148.796875 2.9034999999999997 0.518589 -2.384911
1149.30078125 2.808869 1.327108 -1.481761
1150.15625 2.068275 1.505714 -0.562561
1150.59765625 2.85439 1.34439 -1.51
1151.3203125 2.060593 1.528874 -0.531719
1151.921875 2.047746 1.559551 -0.488195
1152.51171875 2.0669 1.5819 -0.485
1153.08984375 2.047895 1.572895 -0.475
1153.66015625 2.027817 1.492817 -0.535
1154.23046875 2.0366169999999997 1.509909 -0.526708
1154.60546875 2.919925 0.594911 -2.325014
1155.3984375 2.108981 1.618991 -0.48999
1155.859375 3.1004899999999997 1.415561 -1.684929
1156.5703125 2.0679879999999997 1.549945 -0.518043
1157.15234375 2.093092 1.533553 -0.559539
1157.72265625 2.065 1.505 -0.56
1158.15625 2.82298 1.315589 -1.507391
1158.48828125 2.8358220000000003 0.345908 -2.489914
1159.4375 2.073927 1.443466 -0.630461
1159.8984375 2.97454 1.312412 -1.662128
1160.60546875 2.049243 1.539954 -0.509289
1161.1875 2.055 1.635 -0.42
1161.5390625 2.863973 0.611542 -2.252431
1162.3359375 2.013979 1.519828 -0.494151
1162.8203125 3.013764 1.318859 -1.694905
1163.51171875 2.00474 1.53474 -0.47
1164.08984375 2.030679 1.664986 -0.365693
1164.4453125 2.6431889999999996 0.582546 -2.060643
1165.24609375 1.987916 1.483163 -0.504753
1165.73828125 2.834424 1.208616 -1.625808
1166.1640625 2.723958 1.384937 -1.339021
1166.98828125 1.8888040000000001 1.578804 -0.31
1167.578125 1.81703 1.504073 -0.312957
1168.1640625 1.854946 1.494953 -0.359993
1168.66015625 2.741768 1.097662 -1.644106
1169.328125 1.833871 1.408871 -0.425
1169.92578125 1.857454 1.432454 -0.425
1170.26953125 2.974885 0.534885 -2.44
1171.0546875 2.014052 1.414052 -0.6
1171.53125 3.038202 1.124651 -1.913551
1172.25390625 1.9809260000000002 1.390986 -0.58994
1172.83984375 1.955381 1.395381 -0.56
1173.1953125 2.926324 0.396207 -2.530117
1173.984375 2.044476 1.390384 -0.654092
1174.453125 2.938842 1.03598 -1.902862
1175.13671875 2.012533 1.397621 -0.614912
1175.58984375 3.069215 1.539215 -1.53
1176.3125 2.0781 1.532167 -0.545933
1176.89453125 2.076199 1.569981 -0.506218
1177.26171875 2.8989570000000002 0.579466 -2.319491
1178.03515625 2.061179 1.511179 -0.55
1178.62890625 2.003828 1.513996 -0.489832
1179.234375 2.0387079999999997 1.548708 -0.49
1179.6015625 2.937412 0.607412 -2.33
1180.3828125 2.071587 1.621587 -0.45
1180.96875 2.009007 1.599063 -0.409944
1181.5625 2.027681 1.625 -0.402681
1181.921875 2.943148 0.643208 -2.29994
1182.71875 1.984753 1.575 -0.409753
1183.328125 1.981605 1.694807 -0.286798
1183.91015625 1.982701 1.623624 -0.359077
1184.2734375 2.859318 0.644318 -2.215
1185.0625 2.032566 1.568466 -0.4641
1185.6796875 2.000641 1.570211 -0.43043
1186.265625 1.967838 1.51854 -0.449298
1186.63671875 2.96551 0.628169 -2.337341
1187.4375 2.038635 1.523698 -0.514937
1188.02734375 1.9024649999999999 1.45451 -0.447955
1188.6171875 1.970214 1.886374 -0.08384
1188.984375 2.8042789999999997 0.695506 -2.108773
1189.8125 2.040022 2.00375 -0.036272
1190.3984375 1.949556 1.656028 -0.293528
1190.984375 2.108481 0.823481 -1.285
1191.3515625 2.776806 -0.028194 -2.805
1192.16015625 2.099677 1.309677 -0.79
1192.7734375 2.018744 1.588744 -0.43
1193.3515625 2.158849 1.374475 -0.784374
1193.703125 2.5749989999999996 0.352025 -2.222974
1194.484375 2.086251 1.5014 -0.584851
1194.9609375 2.963825 1.268796 -1.695029
1195.66015625 2.0139810000000002 1.493981 -0.52
1196.2578125 2.058693 1.528846 -0.529847
1196.8359375 1.928874 1.578986 -0.349888
1197.265625 2.766286 1.416286 -1.35
1197.98046875 2.109851 1.509902 -0.599949
1198.56640625 2.207799 1.734312 -0.473487
1199.1640625 1.874275 1.704546 -0.169729
1199.73046875 2.009973 1.619973 -0.39
1200.3203125 1.979559 1.619559 -0.36
1200.890625 2.054986 1.72 -0.334986
1201.46484375 2.074421 1.679421 -0.395
1202.02734375 2.102543 1.672543 -0.43
1202.609375 2.132813 1.640486 -0.492327
1203.19921875 2.1079980000000003 1.588448 -0.51955
1203.765625 2.125862 1.615671 -0.510191
1204.34375 2.085169 1.639409 -0.44576
1204.90234375 2.085993 1.684712 -0.401281
1205.48046875 2.088769 1.689929 -0.39884
1206.06640625 2.13846 1.75846 -0.38
1206.6328125 2.1345590000000003 1.729591 -0.404968
1207.203125 2.102938 1.688407 -0.414531
1207.76953125 2.101655 1.684892 -0.416763
1208.34765625 2.093623 1.704347 -0.389276
1208.91015625 2.068663 1.713663 -0.355
1209.28515625 2.7026 0.687793 -2.014807
1210.07421875 2.107342 1.692313 -0.415029
1210.65234375 2.0396330000000003 1.647472 -0.392161
1211.23828125 2.056539 1.691539 -0.365
1211.59375 2.7912999999999997 0.6813 -2.11
1212.41015625 2.093311 1.709043 -0.384268
1212.8515625 2.573513 1.44149 -1.132023
1213.6171875 2.071444 1.631444 -0.44
1214.1953125 2.062093 1.644437 -0.417656
1214.77734375 2.029866 1.644866 -0.385
1215.3828125 2.062656 1.705 -0.357656
1215.84375 2.608707 2.068906 -0.539801
1216.55078125 2.072714 1.699553 -0.373161
1217.1484375 2.0476739999999998 1.668953 -0.378721
1217.73046875 2.0899739999999998 1.695285 -0.394689
1218.140625 2.702381 1.475192 -1.227189
1218.87109375 2.161978 1.677124 -0.484854
1219.48828125 2.096978 1.499843 -0.597135
1220.07421875 2.070662 1.515 -0.555662
1220.66796875 2.039793 1.609793 -0.43
1221.234375 2.052284 1.792531 -0.259753
1221.58984375 2.8062709999999997 0.83212 -1.974151
1222.40234375 2.0016950000000002 1.739859 -0.261836
1223.015625 1.972804 1.767965 -0.204839
1223.59765625 2.072663 1.837663 -0.235
1223.9609375 2.733637 0.824952 -1.908685
1224.7578125 2.066434 1.76209 -0.304344
1225.3359375 2.034687 1.754687 -0.28
1225.92578125 2.024672 1.741869 -0.282803
1226.3046875 2.801887 0.761887 -2.04
1227.10546875 2.025278 1.665525 -0.359753
1227.578125 2.908596 1.444149 -1.464447
1228.26953125 2.02453 1.649939 -0.374591
1228.8671875 2.009084 1.642151 -0.366933
1229.4453125 1.9932720000000002 1.593272 -0.4
1230.03515625 2.01286 1.60286 -0.41
1230.41015625 2.827193 0.65266 -2.174533
1231.203125 1.9957200000000002 1.643922 -0.351798
1231.80078125 1.9645899999999998 1.65343 -0.31116
1232.38671875 1.9540650000000002 1.647979 -0.306086
1232.7578125 2.7741000000000002 0.674567 -2.099533
1233.56640625 1.983781 1.609562 -0.374219
1234.16796875 1.945758 1.594368 -0.35139
1234.75 1.914546 1.57 -0.344546
1235.10546875 2.78621 0.644877 -2.141333
1235.921875 1.95418 1.589912 -0.364268
1236.3984375 2.5820279999999998 2.00322 -0.578808
1237.13671875 1.95 1.575 -0.375
1237.734375 1.983486 1.565 -0.418486
1238.3203125 2.002155 1.572155 -0.43
1238.73828125 2.531345 1.376878 -1.154467
1239.2578125 2.921106 0.621106 -2.3
1240.109375 2.032753 1.508184 -0.524569
1240.51953125 2.575275 1.259739 -1.315536
1240.8828125 2.827594 0.503764 -2.32383
1241.82421875 2.0540570000000002 1.514057 -0.54
1242.4296875 1.913698 1.396132 -0.517566
1243.01953125 1.94942 1.459889 -0.489531
1243.6171875 1.9576719999999999 1.507672 -0.45
1244.21484375 1.989812 1.52439 -0.465422
1244.57421875 2.754485 0.63 -2.124485
1245.36328125 2.036831 1.600212 -0.436619
1245.9609375 1.9966430000000002 1.599952 -0.396691
1246.5703125 2.008994 1.644157 -0.364837
1246.93359375 2.7998279999999998 0.649834 -2.149994
1247.75390625 2.0193019999999997 1.664302 -0.355
1248.359375 1.9870990000000002 1.624238 -0.362861
1248.953125 1.9647750000000002 1.59 -0.374775
1249.31640625 2.7584540000000004 0.578454 -2.18
1250.1328125 2.03598 1.61641 -0.41957
1250.75390625 1.891538 1.544319 -0.347219
1251.34765625 1.9320929999999998 1.508093 -0.424
1251.7109375 2.737533 0.739763 -1.99777
1252.51953125 1.849443 1.409962 -0.439481
1253.08203125 1.928282 1.593801 -0.334481
1253.7109375 1.99366 1.524734 -0.468926
1254.29296875 1.880454 1.435454 -0.445
1254.86328125 1.8932829999999998 1.438451 -0.454832
1255.44140625 1.905324 1.42655 -0.478774
1256.0390625 1.8999249999999999 1.469925 -0.43
1256.625 1.865901 1.415 -0.450901
1257.2109375 1.905556 1.440556 -0.465
1257.59375 2.718281 0.558281 -2.16
1258.390625 1.9004180000000002 1.420506 -0.479912
1258.9765625 1.8845509999999999 1.42 -0.464551
1259.57421875 1.92333 1.478444 -0.444886
1259.94921875 2.7370900000000002 0.512849 -2.224241
1260.78515625 1.93489 1.4478 -0.48709
1261.38671875 1.871504 1.385138 -0.486366
1261.97265625 1.984779 1.48 -0.504779
1262.3203125 2.679519 0.429736 -2.249783
1263.16015625 1.947699 1.472699 -0.475
1263.7734375 1.889899 1.478966 -0.410933
1264.38671875 1.934599 1.519723 -0.414876
1264.98046875 1.919769 1.519994 -0.399775
1265.57421875 1.9291 1.529569 -0.399531
1266.16796875 1.915425 1.486291 -0.429134
1266.77734375 1.951347 1.541366 -0.409981
1267.13671875 2.7065360000000003 0.546669 -2.159867
1267.96484375 1.976907 1.556907 -0.42
1268.55859375 1.889272 1.545 -0.344272
1269.1484375 1.9093170000000002 1.570167 -0.33915
1269.5078125 2.725942 0.547366 -2.178576
1270.35546875 1.9348969999999999 1.554897 -0.38
1270.9765625 1.914977 1.520047 -0.39493
1271.57421875 1.936005 1.526117 -0.409888
1271.93359375 2.7098769999999996 0.524891 -2.184986
1272.77734375 1.9506130000000002 1.54 -0.410613
1273.41015625 1.9124700000000001 1.574904 -0.337566
1274.01953125 1.9325450000000002 1.549994 -0.382551
1274.3828125 2.7888780000000004 0.599572 -2.189306
1275.2109375 1.985804 1.479792 -0.506012
1275.80859375 1.94 1.47 -0.47
1276.41015625 1.9540579999999999 1.468597 -0.485461
1276.765625 2.7480729999999998 0.428206 -2.319867
1277.62109375 1.966475 1.491846 -0.474629
1278.22265625 1.939438 1.496366 -0.443072
1278.8203125 1.94 1.505 -0.435
1279.171875 2.71457 0.455 -2.25957
1280.01953125 1.969637 1.469637 -0.5
1280.64453125 1.962907 1.509941 -0.452966
1281.24609375 1.977927 1.53 -0.447927
1281.60546875 2.7699730000000002 0.589973 -2.18
1282.4296875 2.04109 1.506104 -0.534986
1283.03125 2.00975 1.541894 -0.467856
1283.63671875 1.962265 1.495447 -0.466818
1283.9921875 2.6647510000000003 0.479798 -2.184953
1284.84375 2.02923 1.603869 -0.425361
1285.4453125 2.0 1.645 -0.355
1286.02734375 1.986655 1.678757 -0.307898
1286.40234375 2.806127 0.788206 -2.017921
1287.2421875 2.08641 1.73641 -0.35
1287.828125 1.9816340000000001 1.715 -0.266634
1288.40234375 1.986294 1.694546 -0.291748
1288.765625 2.763871 0.664153 -2.099718
1289.578125 1.987977 1.677977 -0.31
1290.17578125 1.9961600000000002 1.68616 -0.31
1290.76171875 1.9602110000000001 1.626859 -0.333352
1291.140625 2.792116 0.659116 -2.133
1291.94921875 2.0128719999999998 1.629019 -0.383853
1292.54296875 1.958674 1.644716 -0.313958
1293.12890625 1.96007 1.634695 -0.325375
1293.51171875 2.8463220000000002 0.686846 -2.159476
1294.33203125 1.950726 1.566065 -0.384661
1294.92578125 1.933982 1.548982 -0.385
1295.51171875 1.9898660000000001 1.557592 -0.432274
1295.8671875 2.8149140000000004 0.555 -2.259914
1296.6953125 1.998776 1.53251 -0.466266
1297.30078125 1.9850150000000002 1.531597 -0.453418
1297.91015625 1.9953820000000002 1.490382 -0.505
1298.26171875 2.880349 0.515933 -2.364416
1299.078125 2.034271 1.494297 -0.539974
1299.671875 2.0136969999999996 1.489429 -0.524268
1300.26953125 1.9625 1.385 -0.5775
1300.65625 2.861161 0.491161 -2.37
1301.45703125 1.994846 1.347062 -0.647784
1302.04296875 1.966752 1.406291 -0.560461
1302.625 1.934532 1.395 -0.539532
1303.0078125 2.8438039999999996 0.5548 -2.289004
1303.8046875 1.988979 1.493022 -0.495957
1304.40625 1.9691800000000002 1.54418 -0.425
1304.9921875 1.999043 1.569043 -0.43
1305.3671875 2.862895 0.649594 -2.213301
1306.16015625 2.008584 1.664507 -0.344077
1306.765625 2.004797 1.715 -0.289797
1307.3671875 1.995965 1.63433 -0.361635
1307.734375 2.80286 0.653207 -2.149653
1308.55078125 2.0357499999999997 1.724905 -0.310845
1309.140625 1.9996269999999998 1.764938 -0.234689
1309.7265625 1.926717 1.706717 -0.22
1310.09375 2.748903 0.779645 -1.969258
1310.8984375 1.971737 1.742412 -0.229325
1311.51171875 1.9944060000000001 1.789406 -0.205
1312.0859375 1.9901039999999999 1.79469 -0.195414
1312.46484375 2.768525 0.825646 -1.942879
1313.25 2.014944 1.785 -0.229944
1313.86328125 1.903444 1.688691 -0.214753
1314.453125 1.987708 1.682708 -0.305
1314.8359375 2.842816 0.764817 -2.077999
1315.6171875 1.959302 1.619302 -0.34
1316.2109375 1.909343 1.584823 -0.32452
1316.79296875 1.925889 1.580889 -0.345
1317.296875 2.581151 1.255 -1.326151
1317.9921875 1.921456 1.58152 -0.339936
1318.58203125 1.893338 1.548338 -0.345
1319.16796875 1.886247 1.499926 -0.386321
1319.6484375 2.603952 1.224296 -1.379656
1320.05078125 2.721086 0.60704 -2.114046
1320.95703125 2.0047740000000003 1.544774 -0.46
1321.31640625 2.7233009999999997 0.568946 -2.154355
1322.125 1.99457 1.53 -0.46457
1322.72265625 1.9556630000000002 1.528396 -0.427267
1323.3125 1.9774569999999998 1.567262 -0.410195
1323.7890625 2.556129 1.26975 -1.286379
1324.48046875 1.9402009999999998 1.530285 -0.409916
1325.0859375 1.938582 1.549441 -0.389141
1325.6640625 1.9150420000000001 1.54 -0.375042
1326.140625 2.7164469999999996 1.360361 -1.356086
1326.50390625 2.668127 0.588127 -2.08
1327.41796875 1.866945 1.523117 -0.343828
1327.875 2.635 1.67 -0.965
1328.59765625 1.948177 1.743897 -0.20428
1329.16015625 2.0412879999999998 1.518597 -0.522691
1329.73828125 1.98589 1.553515 -0.432375
1330.3125 2.1666950000000003 1.572237 -0.594458
1330.8828125 2.135709 1.697157 -0.438552
1331.26171875 3.022991 1.038553 -1.984438
1332.0546875 1.6965729999999999 2.212452 0.515879
1332.640625 1.818012 2.169463 0.351451
1333.203125 1.869989 1.92 0.050011
1333.71875 2.80708 1.477905 -1.329175
1334.09375 2.769591 0.615 -2.154591
1334.953125 1.8839709999999998 1.723971 -0.16
1335.34375 3.21938 0.83003 -2.38935
1336.09375 1.902533 1.427625 -0.474908
1336.5859375 2.961584 1.319977 -1.641607
1337.2265625 1.879866 1.345159 -0.534707
1337.80078125 1.8546110000000002 1.246525 -0.608086
1338.36328125 1.786625 1.461781 -0.324844
1338.81640625 2.8917010000000003 1.153149 -1.738552
1339.49609375 2.138701 1.311173 -0.827528
1340.046875 2.124559 1.054559 -1.07
1340.609375 2.0723409999999998 1.045 -1.027341
1341.11328125 2.54962 0.564355 -1.985265
1341.484375 2.7111989999999997 -0.047051 -2.75825
1342.3046875 2.154243 1.162481 -0.991762
1342.86328125 2.214631 1.309122 -0.905509
1343.41796875 2.1137259999999998 1.22011 -0.893616
1343.97265625 2.014861 1.404861 -0.61
1344.4609375 2.929138 1.669849 -1.259289
1344.828125 2.7642490000000004 0.679905 -2.084344
1345.68359375 2.109986 1.78 -0.329986
1346.2578125 2.175828 1.865936 -0.309892
1346.71484375 2.997512 1.608508 -1.389004
1347.37109375 2.014017 1.734093 -0.279924
1347.94921875 2.0666379999999998 1.798004 -0.268634
1348.3046875 2.618832 0.636033 -1.982799
1348.83203125 2.8238570000000003 1.53 -1.293857
1349.2265625 2.340864 1.191333 -1.149531
1350.15625 2.121499 1.827079 -0.29442
1350.62890625 3.082675 1.696642 -1.386033
1351.01953125 2.697983 0.525469 -2.172514
1351.875 2.01888 1.72 -0.29888
1352.24609375 2.7299999999999995 0.575 -2.155
1352.88671875 1.299796 1.0 -0.299796
1353.2890625 2.684715 0.479978 -2.204737
1354.15234375 2.047387 1.653115 -0.394272
1354.609375 2.732547 1.44 -1.292547
1355.32421875 2.021531 1.678771 -0.34276
1355.8984375 1.94279 1.827812 -0.114978
1356.46484375 1.947707 1.837707 -0.11
1357.03125 1.938637 1.76925 -0.169387
1357.37890625 2.575826 0.648058 -1.927768
1358.16796875 1.957471 1.659926 -0.297545
1358.71875 2.257361 0.98 -1.277361
1359.203125 3.155215 1.730215 -1.425
1359.890625 1.977674 1.65808 -0.319594
1360.46484375 1.942963 1.597046 -0.345917
1361.046875 1.920843 1.511076 -0.409767
1361.5703125 2.5631820000000003 1.193796 -1.369386
1362.19921875 1.943841 1.295067 -0.648774
1362.75390625 1.983135 1.299114 -0.684021
1363.12890625 2.9215780000000002 0.366375 -2.555203
1363.890625 1.981057 1.320605 -0.660452
1364.45703125 1.962455 1.352511 -0.609944
1365.03515625 1.950624 1.405624 -0.545
1365.4140625 2.8686890000000003 0.484954 -2.383735
1366.18359375 2.039921 1.55995 -0.479971
1366.75 1.981366 1.605 -0.376366
1367.328125 1.9831860000000001 1.618262 -0.364924
1367.69921875 2.8122700000000003 0.622812 -2.189458
1368.27734375 1.933655 0.808757 -1.124898
1368.62109375 2.811333 0.416544 -2.394789
1369.58984375 2.066185 1.803288 -0.262897
1370.18359375 2.002332 1.829606 -0.172726
1370.765625 1.96571 1.804227 -0.161483
1371.12109375 2.940163 0.793088 -2.147075
1371.92578125 2.039374 1.855269 -0.184105
1372.3984375 2.905923 1.701375 -1.204548
1373.10546875 2.035683 1.854988 -0.180695
1373.6796875 2.022936 1.837555 -0.185381
1374.25390625 2.025205 1.775986 -0.249219
1374.8515625 2.0176030000000003 1.691103 -0.3265
1375.43359375 2.041594 1.664033 -0.377561
1376.01171875 2.012734 1.642734 -0.37
1376.58203125 2.008076 1.624463 -0.383613
1377.15625 2.00815 1.58207 -0.42608
1377.51953125 2.956826 0.604853 -2.351973
1378.31640625 2.045788 1.612186 -0.433602
1378.921875 2.013147 1.608466 -0.404681
1379.5 2.038219 1.595 -0.443219
1379.875 2.904973 0.695 -2.209973
1380.6640625 2.039194 1.364194 -0.675
1381.26953125 2.049483 1.399933 -0.64955
1381.86328125 2.111933 1.435 -0.676933
1382.234375 2.833174 0.401892 -2.431282
1383.01171875 2.098849 1.425138 -0.673711
1383.59765625 2.12432 1.515 -0.60932
1384.18359375 2.1404129999999997 1.574312 -0.566101
1384.55078125 2.942297 0.638376 -2.303921
1385.359375 2.197139 1.715639 -0.4815
1385.94921875 2.154899 1.720364 -0.434535
1386.52734375 2.135009 1.728173 -0.406836
1386.890625 2.649098 0.599295 -2.049803
1387.67578125 2.139527 1.598277 -0.54125
1388.28125 2.17278 1.655 -0.51778
1388.85546875 2.164901 1.679965 -0.484936
1389.23046875 2.9022769999999998 0.619909 -2.282368
1390.015625 2.175722 1.686035 -0.489687
1390.609375 2.102436 1.71256 -0.389876
1391.1875 2.135334 1.787262 -0.348072
1391.5703125 3.0132939999999997 0.914932 -2.098362
1392.390625 2.1940209999999998 1.894245 -0.299776
1392.98046875 2.122882 1.864981 -0.257901
1393.5625 2.1772620000000003 1.872262 -0.305
1393.9296875 2.975346 0.825918 -2.149428
1394.75 2.156802 1.91 -0.246802
1395.36328125 2.169095 1.929095 -0.24
1395.953125 2.158961 1.903961 -0.255
1396.3125 2.94482 0.788676 -2.156144
1397.10546875 2.128409 1.849923 -0.278486
1397.69921875 2.1135159999999997 1.883684 -0.229832
1398.29296875 2.139539 1.879858 -0.259681
1398.65234375 2.9475819999999997 0.833474 -2.114108
1399.46484375 2.1142060000000003 1.784421 -0.329785
1400.0546875 2.0926869999999997 1.807211 -0.285476
1400.625 2.123634 1.83 -0.293634
1400.9921875 2.968897 0.799599 -2.169298
1401.81640625 2.10309 1.699949 -0.403141
1402.40625 2.064446 1.705201 -0.359245
1402.98828125 2.094213 1.699428 -0.394785
1403.3515625 2.9696420000000003 0.679648 -2.289994
1404.15234375 2.100342 1.678496 -0.421846
1404.73828125 2.090249 1.698728 -0.391521
1405.328125 2.116913 1.704807 -0.412106
1405.7109375 2.972564 0.634774 -2.33779
1406.515625 2.129206 1.744242 -0.384964
1407.10546875 2.089878 1.759948 -0.32993
1407.6875 2.101819 1.723587 -0.378232
1408.06640625 3.0567189999999997 0.688881 -2.367838
1408.890625 2.186624 1.771638 -0.414986
1409.4921875 2.102788 1.716267 -0.386521
1410.05859375 2.105843 1.795853 -0.30999
1410.515625 2.552705 1.367891 -1.184814
1411.21484375 2.15319 1.871165 -0.282025
1411.796875 2.1368430000000003 1.899083 -0.23776
1412.375 2.125 1.88 -0.245
1412.96484375 2.155237 1.895338 -0.259899
1413.55078125 2.1548819999999997 1.8633 -0.291582
1414.125 2.169973 1.855 -0.314973
1414.7109375 2.14871 1.854694 -0.294016
1415.32421875 2.181483 1.9 -0.281483
1415.90625 2.166094 1.902237 -0.263857
1416.4921875 2.144585 1.849585 -0.295
1417.0703125 2.163935 1.876796 -0.287139
1417.6640625 2.184828 1.889828 -0.295
1418.24609375 2.127523 1.903515 -0.224008
1418.83984375 2.1089350000000002 1.874403 -0.234532
1419.21484375 2.9899999999999998 0.795 -2.195
1420.0078125 2.143752 1.788781 -0.354971
1420.44921875 2.994936 0.686682 -2.308254
1421.19140625 2.1674510000000002 1.789951 -0.3775
1421.55859375 2.9245490000000003 0.514622 -2.409927
1422.37890625 2.138842 1.717582 -0.42126
1422.87109375 2.96367 1.346544 -1.617126
1423.57421875 2.14751 1.778494 -0.369016
1424.17578125 2.1038580000000002 1.765173 -0.338685
1424.7734375 2.108413 1.746665 -0.361748
1425.2421875 2.7646430000000004 1.35 -1.414643
1425.984375 2.122464 1.696168 -0.426296
1426.59375 2.167337 1.779265 -0.388072
1427.1875 2.159512 1.750259 -0.409253
1427.64453125 2.828003 1.414981 -1.413022
1428.37109375 2.142912 1.778127 -0.364785
1428.98828125 2.105509 1.794122 -0.311387
1429.5859375 2.125569 1.830569 -0.295
1430.05078125 2.8584389999999997 1.534492 -1.323947
1430.7421875 2.134591 1.784591 -0.35
1431.33984375 2.12285 1.777906 -0.344944
1431.92578125 2.12915 1.80415 -0.325
1432.41015625 2.8273770000000003 1.557733 -1.269644
1433.12890625 2.162083 1.897083 -0.265
1433.71484375 2.108425 1.875323 -0.233102
1434.29296875 2.151145 1.856145 -0.295
1434.76171875 2.797734 1.567734 -1.23
1435.1640625 2.9489970000000003 0.806404 -2.142593
1436.08984375 2.198013 1.977652 -0.220361
1436.4609375 2.816716 0.954911 -1.861805
1437.28515625 2.170569 1.930569 -0.24
1437.8984375 2.12479 1.934854 -0.189936
1438.5 2.145 1.96 -0.185
1438.86328125 2.9606 0.804633 -2.155967
1439.734375 2.174179 2.005728 -0.168451
1440.2421875 2.6878450000000003 1.44 -1.247845
1440.94921875 2.091563 1.916563 -0.175
1441.55859375 2.104704 1.944704 -0.16
1442.1796875 2.089941 1.949612 -0.140329
1442.7890625 2.077056 1.929949 -0.147107
1443.39453125 2.069378 1.919378 -0.15
1443.97265625 2.095 1.875 -0.22
1444.578125 2.132131 1.883693 -0.248438
1445.1640625 2.094697 1.829697 -0.265
1445.76953125 2.094615 1.829637 -0.264978
1446.13671875 3.025558 0.801982 -2.223576
1446.9609375 2.170984 1.80984 -0.361144
1447.5546875 2.097281 1.767079 -0.330202
1448.12890625 2.135644 1.761894 -0.37375
1448.5 2.9513320000000003 0.66 -2.291332
1449.33203125 2.17361 1.715 -0.45861
1449.8515625 2.6585840000000003 1.162506 -1.496078
1450.51171875 2.126204 1.756318 -0.369886
1451.1015625 2.141708 1.756708 -0.385
1451.703125 2.167867 1.762896 -0.404971
1452.1484375 2.732934 1.493264 -1.23967
1452.88671875 2.09201 1.751682 -0.340328
1453.48046875 2.119872 1.824956 -0.294916
1454.0703125 2.142159 1.816378 -0.325781
1454.51171875 2.892888 1.518616 -1.374272
1455.23828125 2.128095 1.792734 -0.335361
1455.84765625 2.088871 1.801371 -0.2875
1456.4375 2.1437 1.848466 -0.295234
1456.91015625 2.967288 1.507336 -1.459952
1457.296875 2.904453 0.685 -2.219453
1458.1796875 2.155733 1.822538 -0.333195
1458.53515625 2.940351 0.68858 -2.251771
1459.35546875 2.156219 1.739891 -0.416328
1459.71484375 2.948442 0.447817 -2.500625
1460.5390625 2.187378 1.819857 -0.367521
1461.02734375 2.939409 0.569861 -2.369548
1462.33203125 2.147135 1.840337 -0.306798
1462.9453125 2.092189 1.822211 -0.269978
1463.55078125 2.1012 1.7612 -0.34
1463.90234375 2.880319 0.658886 -2.221433
1464.73046875 2.143947 1.784603 -0.359344
1465.23828125 2.615292 1.4 -1.215292
1465.921875 2.1194509999999998 1.798201 -0.32125
1466.5234375 2.066078 1.842506 -0.223572
1467.10546875 2.101164 1.839914 -0.26125
1467.56640625 2.810015 1.579848 -1.230167
1468.27734375 2.1331189999999998 1.883732 -0.249387
1468.8828125 2.120684 1.913133 -0.207551
1469.48046875 2.103017 1.875517 -0.2275
1469.9453125 2.758804 1.53 -1.228804
1470.640625 2.1502280000000003 1.900884 -0.249344
1471.234375 2.09818 1.898765 -0.199415
1471.82421875 2.083444 1.923444 -0.16
1472.29296875 2.7590149999999998 1.539568 -1.219447
1473.00390625 2.129615 1.937509 -0.192106
1473.60546875 2.153417 1.929931 -0.223486
1474.1875 2.072566 1.853894 -0.218672
1474.65625 2.7883329999999997 1.558333 -1.23
1475.05859375 2.813297 0.841479 -1.971818
1475.94921875 2.169289 1.970436 -0.198853
1476.32421875 2.919521 0.725 -2.194521
1477.71875 2.044542 1.829654 -0.214888
1478.31640625 2.114265 1.93655 -0.177715
1478.6640625 2.863258 0.824746 -2.038512
1479.46875 2.164971 1.919023 -0.245948
1479.96484375 2.91 1.595 -1.315
1480.65625 2.105583 1.922727 -0.182856
1481.2421875 2.142257 1.942257 -0.2
1481.8203125 2.085764 1.92373 -0.162034
1482.2734375 2.82202 1.717822 -1.104198
1483.00390625 2.1331189999999998 1.918119 -0.215
1483.59765625 2.110569 1.853069 -0.2575
1483.9375 3.0149999999999997 0.755 -2.26
1484.75 2.192118 1.89 -0.302118
1485.3515625 2.123335 1.851191 -0.272144
1485.95703125 2.10944 1.835183 -0.274257
1486.3046875 2.9863239999999998 0.673104 -2.31322
1487.1328125 2.187015 1.818796 -0.368219
1487.734375 2.178426 1.853426 -0.325
1488.3203125 2.116425 1.791425 -0.325
1488.68359375 2.992281 0.652296 -2.339985
1489.515625 2.1865040000000002 1.806518 -0.379986
1490.12109375 2.151366 1.826908 -0.324458
1490.703125 2.178894 1.791104 -0.38779
1491.06640625 3.003439 0.629214 -2.374225
1491.87890625 2.225922 1.811117 -0.414805
1492.48046875 2.1698850000000003 1.814955 -0.35493
1493.078125 2.21701 1.799083 -0.417927
1493.44140625 3.032658 0.569254 -2.463404
1494.2578125 2.1885499999999998 1.74355 -0.445
1494.8515625 2.178202 1.823326 -0.354876
1495.4375 2.163137 1.838587 -0.32455
1495.80859375 2.998939 0.733939 -2.265
1496.625 2.162267 1.83 -0.332267
1497.23046875 2.229913 1.879913 -0.35
1497.8125 2.245096 1.862537 -0.382559
1498.15625 3.048086 0.628828 -2.419258
1498.9609375 2.094597 1.71975 -0.374847
1499.57421875 2.1150860000000002 1.89602 -0.219066
1500.17578125 2.2367369999999998 1.871737 -0.365
1500.54296875 2.888053 0.727557 -2.160496
1501.3359375 2.184618 1.859599 -0.325019
1501.92578125 2.145943 1.824553 -0.32139
1502.515625 2.183654 1.782925 -0.400729
1502.8984375 2.926076 0.620375 -2.305701
1503.6953125 2.176104 1.771104 -0.405
1504.28515625 2.2145070000000002 1.859507 -0.355
1504.87109375 2.193968 1.81976 -0.374208
1505.234375 2.937596 0.668408 -2.269188
1506.02734375 2.1928780000000003 1.807878 -0.385
1506.62109375 2.2008 1.871093 -0.329707
1507.21875 2.197486 1.868071 -0.329415
1507.578125 3.012679 0.754819 -2.25786
1508.375 2.219924 1.91 -0.309924
1508.96484375 2.195684 1.900323 -0.295361
1509.57421875 2.2031460000000003 1.844948 -0.358198
1509.9375 3.0110140000000003 0.681014 -2.33
1510.734375 2.217186 1.810486 -0.4067
1511.33203125 2.202767 1.811204 -0.391563
1511.9140625 2.245298 1.849978 -0.39532
1512.28515625 2.99173 0.681947 -2.309783
1513.08203125 2.247782 1.798635 -0.449147
1513.6953125 2.21493 1.805586 -0.409344
1514.27734375 2.237946 1.808611 -0.429335
1514.64453125 2.945483 0.665537 -2.279946
1515.4296875 2.199583 1.807372 -0.392211
1516.03515625 2.159722 1.810241 -0.349481
1516.6484375 2.232917 1.846191 -0.386726
1517.0 2.9077330000000003 0.595 -2.312733
1517.796875 2.237936 1.867936 -0.37
1518.38671875 2.201993 1.863359 -0.338634
1518.984375 2.229861 1.891733 -0.338128
1519.33203125 2.895941 0.654299 -2.241642
1520.15234375 2.1766550000000002 1.843039 -0.333616
1520.76953125 2.164923 1.874923 -0.29
1521.33203125 2.081601 1.861657 -0.219944
1521.6953125 2.733165 0.755031 -1.978134
1522.47265625 2.1110409999999997 1.764541 -0.3465
1523.0859375 2.151438 1.885563 -0.265875
1523.671875 2.068792 2.073792 0.0050
1524.046875 3.060182 1.169973 -1.890209
1524.828125 2.129258 2.004258 -0.125
1525.421875 2.099062 1.956104 -0.142958
1526.0078125 2.013367 1.859301 -0.154066
1526.3828125 3.005383 0.844585 -2.160798
1527.171875 2.021093 1.6496 -0.371493
1527.5390625 3.111555 0.451028 -2.660527
1528.3515625 2.208452 1.773989 -0.434463
1528.79296875 2.9427510000000003 1.765627 -1.177124
1529.51171875 2.0537140000000003 1.826237 -0.227477
1530.10546875 2.149963 1.874963 -0.275
1530.6796875 2.1588410000000002 1.876829 -0.282012
1531.25390625 2.083313 1.7741 -0.309213
1531.8203125 2.050135 1.759234 -0.290901
1532.41015625 2.092346 1.742652 -0.349694
1532.984375 2.086128 1.719275 -0.366853
1533.57421875 2.168166 1.682346 -0.48582
1533.94921875 3.261185 0.716185 -2.545
1534.74609375 2.188695 1.637441 -0.551254
1535.2578125 3.203475 1.244169 -1.959306
1535.6328125 2.893505 0.374534 -2.518971
1536.5390625 2.218684 1.704584 -0.5141
1537.14453125 2.260736 1.765768 -0.494968
1537.75390625 2.274863 1.75 -0.524863
1538.10546875 3.12385 0.654613 -2.469237
1538.9296875 2.244145 1.749464 -0.494681
1539.52734375 2.2245429999999997 1.754862 -0.469681
1540.13671875 2.237669 1.761859 -0.47581
1540.5 3.02886 0.61 -2.41886
1541.3359375 2.245775 1.81056 -0.435215
1541.9375 2.225893 1.800893 -0.425
1542.51953125 2.252861 1.904904 -0.347957
1542.88671875 2.9572000000000003 0.7772 -2.18
1543.72265625 2.088245 1.798959 -0.289286
1544.3203125 2.09995 1.88745 -0.2125
1544.89453125 2.080279 1.855287 -0.224992
1545.25390625 2.781046 0.691046 -2.09
1546.078125 2.1211219999999997 1.893778 -0.227344
1546.68359375 2.06588 1.884947 -0.180933
1547.296875 2.123713 1.854174 -0.269539
1547.6640625 2.9307429999999997 0.694669 -2.236074
1548.5 2.1100000000000003 1.85 -0.26
1549.09765625 2.073962 1.799712 -0.27425
1549.71484375 2.1129160000000002 1.754332 -0.358584
1550.08984375 2.951749 0.637051 -2.314698
1550.921875 2.199909 1.729909 -0.47
1551.51953125 2.184905 1.749905 -0.435
1552.11328125 2.1963179999999998 1.68974 -0.506578
1552.47265625 2.842771 0.481361 -2.36141
1553.29296875 2.264491 1.659926 -0.604565
1553.8984375 2.234999 1.65019 -0.584809
1554.4921875 2.238226 1.573764 -0.664462
1554.84375 2.8024519999999997 0.3625 -2.439952
1555.65234375 2.233418 1.57 -0.663418
1556.25390625 2.221076 1.656076 -0.565
1556.8671875 2.255526 1.687222 -0.568304
1557.21875 2.878027 0.52384 -2.354187
1558.046875 2.112964 1.578544 -0.53442
1558.64453125 2.047285 1.575 -0.472285
1559.25390625 2.080937 1.522218 -0.558719
1559.609375 2.6860329999999997 0.46636 -2.219673
1560.4296875 2.0688959999999996 1.474476 -0.59442
1561.04296875 2.016244 1.522414 -0.49383
1561.63671875 1.9966789999999999 1.526679 -0.47
1562.0 2.625 0.455 -2.17
1562.81640625 2.021595 1.556595 -0.465
1563.4375 1.987083 1.662083 -0.325
1564.0390625 2.013916 1.734893 -0.279023
1564.41015625 2.659464 0.670186 -1.989278
1565.2109375 2.00335 1.734864 -0.268486
1565.80859375 1.977157 1.699803 -0.277354
1566.3984375 1.98621 1.65396 -0.33225
1566.765625 2.589516 0.606183 -1.983333
1567.61328125 1.939625 1.508047 -0.431578
1568.20703125 1.9316 1.641825 -0.289775
1568.79296875 1.969578 1.592444 -0.377134
1569.1484375 2.415307 0.541667 -1.87364
1569.96484375 1.9461279999999999 1.646952 -0.299176
1570.5625 1.9751049999999999 1.745761 -0.229344
1571.16015625 1.956129 1.671861 -0.284268
1571.515625 2.573962 0.629085 -1.944877
1572.328125 1.9791239999999999 1.634162 -0.344962
1572.93359375 1.964071 1.619497 -0.344574
1573.5390625 1.984769 1.559769 -0.425
1573.90625 2.669627 0.473462 -2.196165
1574.73046875 1.999836 1.544988 -0.454848
1575.33203125 1.981281 1.582062 -0.399219
1575.91796875 2.13318 1.67818 -0.455
1576.28125 2.663694 0.55925 -2.104444
1577.12109375 1.966439 1.761439 -0.205
1577.71875 1.863355 1.833355 -0.03
1578.28515625 1.9087399999999999 1.764892 -0.143848
1578.65625 2.7030089999999998 0.790145 -1.912864
1579.44140625 1.709512 1.554883 -0.154629
1580.01953125 1.893943 1.369619 -0.524324
1580.61328125 1.7809970000000002 1.595997 -0.185
1580.99609375 2.8900370000000004 0.530168 -2.359869
1581.78125 2.13245 1.07745 -1.055
1582.35546875 2.168018 1.419793 -0.748225
1582.9375 2.0120999999999998 1.357419 -0.654681
1583.45703125 2.28294 0.76361 -1.51933
1584.1328125 1.940947 1.419312 -0.521635
1584.7265625 2.014338 1.575454 -0.438884
1585.078125 2.762924 0.589704 -2.17322
1585.89453125 1.9310740000000002 1.45998 -0.471094
1586.4765625 1.8887049999999999 1.384093 -0.504612
1587.0703125 2.009439 1.509602 -0.499837
1587.43359375 2.584269 0.339269 -2.245
1588.24609375 1.9815230000000001 1.534737 -0.446786
1588.8359375 2.081111 1.595556 -0.485555
1589.3984375 1.9203869999999998 1.520749 -0.399638
1589.75390625 2.7261610000000003 0.581732 -2.144429
1590.58203125 1.855 1.63 -0.225
1591.1796875 1.9000000000000001 1.81 -0.09
1591.73828125 1.952887 1.6319 -0.320987
1592.1015625 2.7047410000000003 0.56396 -2.140781
1592.8984375 1.962861 1.444289 -0.518572
1593.47265625 1.933167 1.454849 -0.478318
1594.06640625 1.952522 1.404084 -0.548438
1594.4296875 2.6865040000000002 0.361504 -2.325
1595.24609375 1.987303 1.422303 -0.565
1595.828125 2.0045349999999997 1.45 -0.554535
1596.41796875 2.083038 1.503887 -0.579151
1596.79296875 2.687894 0.411291 -2.276603
1597.6171875 2.065417 1.611587 -0.45383
1598.21484375 2.052822 1.912354 -0.140468
1598.7890625 2.064718 1.964718 -0.1
1599.140625 2.935026 0.857961 -2.077065
1599.94921875 2.05035 1.668338 -0.382012
1600.5546875 2.107388 1.599303 -0.508085
1601.140625 1.999119 1.454217 -0.544902
1601.5 2.937336 0.45 -2.487336
1602.3203125 2.101081 1.398233 -0.702848
1602.90625 2.0119920000000002 1.446992 -0.565
1603.484375 2.00249 1.472435 -0.530055
1603.8671875 2.733313 0.538811 -2.194502
1604.66796875 1.964497 1.584568 -0.379929
1605.25 1.9683039999999998 1.535 -0.433304
1605.828125 2.003462 1.409794 -0.593668
1606.19140625 2.924125 0.494125 -2.43
1606.9921875 2.067263 1.24762 -0.819643
1607.59375 2.138499 1.543375 -0.595124
1608.1875 2.137808 1.554 -0.583808
1608.546875 2.7456650000000002 0.463712 -2.281953
1609.3359375 2.089826 1.454864 -0.634962
1609.92578125 2.072372 1.547985 -0.524387
1610.5078125 2.057257 1.597257 -0.46
1610.88671875 2.7970699999999997 0.58207 -2.215
1611.68359375 2.112327 1.744186 -0.368141
1612.265625 2.098417 1.873642 -0.224775
1612.83984375 2.067267 1.837267 -0.23
1613.20703125 2.74061 0.79061 -1.95
1613.9921875 2.062992 1.772992 -0.29
1614.5859375 2.0538060000000002 1.82495 -0.228856
1615.1796875 2.043856 1.803856 -0.24
1615.53515625 2.8041280000000004 0.790373 -2.013755
1616.32421875 2.101737 1.766737 -0.335
1616.91796875 2.005696 1.732444 -0.273252
1617.5234375 1.989736 1.689736 -0.3
1617.8828125 2.787895 0.618404 -2.169491
1618.68359375 2.039696 1.629249 -0.410447
1619.2734375 2.021662 1.658303 -0.363359
1619.86328125 1.985705 1.571669 -0.414036
1620.23046875 2.7860129999999996 0.565803 -2.22021
1621.03125 2.1082490000000003 1.583333 -0.524916
1621.640625 2.0415039999999998 1.579238 -0.462266
1622.22265625 2.029022 1.559022 -0.47
1622.58984375 2.800583 0.530583 -2.27
1623.3828125 1.962132 1.489479 -0.472653
1623.98828125 1.976006 1.554428 -0.421578
1624.58984375 1.995231 1.551682 -0.443549
1624.9609375 2.8690160000000002 0.55495 -2.314066
1625.75390625 2.04953 1.591093 -0.458437
1626.35546875 2.010711 1.594913 -0.415798
1626.9453125 1.9398769999999999 1.518158 -0.421719
1627.3046875 2.79364 0.479519 -2.314121
1628.12890625 2.027136 1.527136 -0.5
1628.734375 2.058457 1.563457 -0.495
1629.328125 2.052734 1.545 -0.507734
1629.6875 2.8157 0.4657 -2.35
1630.51171875 2.005331 1.511112 -0.494219
1631.1328125 2.047672 1.612672 -0.435
1631.72265625 2.000606 1.607169 -0.393437
1632.0859375 2.694977 0.549977 -2.145
1632.875 2.01 1.64 -0.37
1633.4921875 2.044892 1.708824 -0.336068
1634.078125 2.0044079999999997 1.639408 -0.365
1634.44140625 2.874438 0.569181 -2.305257
1635.28125 2.057064 1.660259 -0.396805
1635.88671875 2.027562 1.707562 -0.32
1636.46875 2.057358 1.717358 -0.34
1636.83203125 2.813818 0.658818 -2.155
1637.66015625 2.049332 1.669332 -0.38
1638.26171875 2.049644 1.713711 -0.335933
1638.8515625 2.042824 1.668798 -0.374026
1639.19921875 2.7313669999999997 0.532332 -2.199035
1640.01953125 2.029961 1.624961 -0.405
1640.6171875 2.007557 1.634355 -0.373202
1641.21484375 1.970221 1.563964 -0.406257
1641.58984375 2.8063599999999997 0.532209 -2.274151
1642.39453125 2.067488 1.594988 -0.4725
1643.0 2.056366 1.655 -0.401366
1643.59375 2.0414060000000003 1.598073 -0.443333
1643.97265625 2.817672 0.542672 -2.275
1644.79296875 1.992721 1.497721 -0.495
1645.40625 2.003355 1.553355 -0.45
1645.98828125 1.980937 1.526475 -0.454462
1646.34375 2.766066 0.437885 -2.328181
1647.16796875 2.021127 1.582511 -0.438616
1647.78515625 2.025237 1.610259 -0.414978
1648.38671875 1.9586160000000001 1.493616 -0.465
1648.75 2.7798689999999997 0.465 -2.314869
1649.546875 2.006696 1.514326 -0.49237
1650.14453125 2.019972 1.629972 -0.39
1650.75 2.0368690000000003 1.55 -0.486869
1651.125 2.68 0.45 -2.23
1651.58984375 2.8427740000000004 1.278917 -1.563857
1652.5 2.024832 1.58 -0.444832
1652.984375 2.6378459999999997 1.327942 -1.309904
1653.6875 1.977412 1.518672 -0.45874
1654.12890625 3.034796 1.575 -1.459796
1654.8671875 2.061196 1.661626 -0.39957
1655.47265625 2.018897 1.624144 -0.394753
1656.0625 1.9831269999999999 1.593646 -0.389481
1656.640625 2.656376 2.149245 -0.507131
1657.2421875 1.993503 1.609577 -0.383926
1657.859375 2.036484 1.626484 -0.41
1658.44140625 2.034479 1.614479 -0.42
1658.8125 2.758635 0.583654 -2.174981
1659.6171875 2.0632099999999998 1.57821 -0.485
1660.13671875 2.523792 1.005 -1.518792
1660.46875 2.699635 0.324635 -2.375
1661.3828125 2.04529 1.555755 -0.489535
1662.0078125 2.0587809999999998 1.623781 -0.435
1662.59375 2.045442 1.599271 -0.446171
1662.94921875 2.737113 0.478102 -2.259011
1663.7578125 2.0617419999999997 1.574577 -0.487165
1664.375 2.069888 1.6 -0.469888
1664.96484375 2.002029 1.49471 -0.507319
1665.33203125 2.785249 0.430249 -2.355
1666.12890625 2.022673 1.521236 -0.501437
1666.72265625 2.006757 1.554465 -0.452292
1667.31640625 1.944694 1.424694 -0.52
1667.67578125 2.746053 0.326434 -2.419619
1668.51171875 1.9968089999999998 1.415908 -0.580901
1669.109375 2.049516 1.499516 -0.55
1669.70703125 1.968881 1.365 -0.603881
1670.05859375 2.669499 0.354499 -2.315
1670.875 1.981635 1.48 -0.501635
1671.48828125 1.990631 1.599335 -0.391296
1672.08203125 1.9800039999999999 1.538501 -0.441503
1672.43359375 2.694844 0.569844 -2.125
1673.25 1.984968 1.625 -0.359968
1673.85546875 2.033486 1.665 -0.368486
1674.4453125 1.978252 1.598288 -0.379964
1674.8046875 2.728844 0.578844 -2.15
1675.62109375 1.956521 1.66 -0.296521
1676.2265625 1.938369 1.683953 -0.254416
1676.81640625 1.967296 1.727296 -0.24
1677.16796875 2.712553 0.637944 -2.074609
1678.02734375 2.012613 1.749715 -0.262898
1678.6328125 1.964118 1.727454 -0.236664
1679.23046875 1.930107 1.635275 -0.294832
1679.5859375 2.749891 0.554891 -2.195
1680.4296875 1.9884089999999999 1.683199 -0.30521
1681.03125 2.044648 1.734648 -0.31
1681.6484375 1.944106 1.613945 -0.330161
1682.16015625 2.629072 1.148755 -1.480317
1682.8515625 1.970782 1.592885 -0.377897
1683.21875 2.72194 0.46207 -2.25987
1684.046875 1.98738 1.644185 -0.343195
1684.5390625 2.747254 1.429695 -1.317559
1685.265625 1.982519 1.5379 -0.444619
1685.64453125 2.74989 0.384941 -2.364949
1686.453125 1.9491 1.45453 -0.49457
1686.92578125 2.782001 1.222175 -1.559826
1687.64453125 1.973884 1.549995 -0.423889
1688.265625 1.9576190000000002 1.557619 -0.4
1688.88671875 1.954257 1.542773 -0.411484
1689.48046875 1.9525000000000001 1.51 -0.4425
1690.07421875 1.9969259999999998 1.577376 -0.41955
1690.42578125 2.7297219999999998 0.420581 -2.309141
1690.93359375 2.870312 1.37074 -1.499572
1691.89453125 2.009939 1.589939 -0.42
1692.51171875 2.00973 1.62973 -0.38
1693.11328125 2.008944 1.5968 -0.412144
1693.46875 2.7743279999999997 0.410719 -2.363609
1694.3203125 2.02175 1.598793 -0.422957
1694.79296875 2.722495 1.398424 -1.324071
1695.55078125 1.978739 1.479471 -0.499268
1696.1640625 2.024813 1.614813 -0.41
1696.76171875 1.962204 1.584386 -0.377818
1697.2265625 2.7805109999999997 1.4 -1.380511
1697.96484375 2.0354419999999998 1.824298 -0.211144
1698.57421875 1.969522 2.109522 0.14
1699.0546875 3.188084 1.9694 -1.218684
1699.7578125 1.679796 2.114796 0.435
1700.36328125 1.667405 1.973229 0.305824
1700.7265625 3.125503 1.125534 -1.999969
1701.56640625 1.667817 1.674808 0.006991
1702.015625 2.3878630000000003 1.612681 -0.775182
1702.78125 1.694073 1.45346 -0.240613
1703.39453125 1.689953 1.374953 -0.315
1703.7421875 3.134684 0.556867 -2.577817
1704.59765625 1.7742520000000002 1.324518 -0.449734
1705.21875 1.8005309999999999 1.27884 -0.521691
1705.83203125 1.8333110000000001 1.219926 -0.613385
1706.1796875 3.0103370000000003 0.230344 -2.779993
1707.015625 1.959224 1.209224 -0.75
1707.62109375 2.050373 1.230953 -0.81942
1708.2265625 2.001674 1.106826 -0.894848
1708.58984375 2.89951 0.107729 -2.791781
1709.4375 1.986977 0.980455 -1.006522
1709.93359375 2.104926 1.229382 -0.875544
1710.60546875 2.134635 1.179635 -0.955
1711.2109375 2.143245 1.315 -0.828245
1711.80859375 2.1366110000000003 1.396625 -0.739986
1712.41015625 2.168896 1.543435 -0.625461
1712.99609375 2.159746 1.614809 -0.544937
1713.35546875 2.914344 0.64498 -2.269364
1714.17578125 2.193017 1.632404 -0.560613
1714.77734375 2.206052 1.711366 -0.494686
1715.3828125 2.155 1.69 -0.465
1715.75 2.843082 0.595 -2.248082
1716.5859375 2.154859 1.709859 -0.445
1717.19140625 2.111707 1.724832 -0.386875
1717.79296875 2.141279 1.718519 -0.42276
1718.1640625 2.744683 0.619977 -2.124706
1718.98828125 2.129095 1.754406 -0.374689
1719.59765625 2.149671 1.789491 -0.36018
1720.1875 2.1188 1.7288 -0.39
1720.66796875 2.986658 1.688543 -1.298115
1721.35546875 2.113025 1.7349 -0.378125
1721.96484375 2.130818 1.765906 -0.364912
1722.5703125 2.159435 1.757951 -0.401484
