4.23046875 0.689235 -0.230759 -0.919994
4.515625 0.07889199999999999 -0.155957 -0.234849
5.1171875 0.778297 -0.175849 -0.954146
6.06640625 0.7225950000000001 -0.275128 -0.997723
7.06640625 0.748338 -0.225234 -0.973572
8.1015625 0.7411859999999999 -0.277034 -1.01822
9.078125 0.7467199999999999 -0.323047 -1.069767
10.0546875 0.70726 -0.277733 -0.984993
10.984375 0.709344 -0.175 -0.884344
11.41015625 0.820611 0.238964 -0.581647
12.85546875 0.659207 -0.125008 -0.784215
13.8671875 0.728825 -0.105732 -0.834557
14.94140625 0.7413879999999999 -0.145194 -0.886582
15.9609375 0.768726 -0.181274 -0.95
16.9296875 0.6902659999999999 -0.108079 -0.798345
18.078125 0.659302 -0.205 -0.864302
19.19140625 0.714614 -0.165386 -0.88
20.30078125 0.731233 -0.211075 -0.942308
21.4296875 0.659873 -0.187136 -0.847009
22.4609375 0.683292 -0.199229 -0.882521
23.4921875 0.6581279999999999 -0.200732 -0.85886
24.53125 0.67921 -0.165469 -0.844679
25.62890625 0.692278 -0.16139 -0.853668
26.703125 0.689854 -0.175146 -0.865
27.74609375 0.776381 -0.217434 -0.993815
28.14453125 0.48312600000000006 -0.075024 -0.55815
28.60546875 0.258318 -0.180159 -0.438477
29.78515625 0.657159 -0.244099 -0.901258
30.20703125 1.689398 1.06633 -0.623068
30.546875 0.49 -0.21 -0.7
31.765625 0.683624 -0.136292 -0.819916
32.9140625 0.756813 -0.135056 -0.891869
33.8828125 0.783599 -0.055233 -0.838832
34.81640625 0.754936 -0.140064 -0.895
35.796875 0.754832 -0.155112 -0.909944
36.84375 0.7769039999999999 -0.233027 -1.009931
37.84375 0.727412 -0.295352 -1.022764
39.17578125 0.757267 -0.205 -0.962267
40.265625 0.733947 -0.173098 -0.907045
41.32421875 0.757634 -0.171933 -0.929567
42.34765625 0.731233 -0.190163 -0.921396
43.4609375 0.736713 -0.185068 -0.921781
44.56640625 0.741735 -0.143726 -0.885461
45.640625 0.7178910000000001 -0.197109 -0.915
46.70703125 0.760206 -0.11 -0.870206
47.75 0.753735 -0.105 -0.858735
48.77734375 0.7883359999999999 -0.150143 -0.938479
49.875 0.778438 -0.135 -0.913438
50.85546875 0.7525409999999999 -0.135121 -0.887662
51.84765625 0.871499 0.136989 -0.73451
52.84765625 0.7921969999999999 -0.013151 -0.805348
53.875 0.834259 -0.13 -0.964259
55.078125 0.7171270000000001 -0.445439 -1.162566
56.15234375 0.669146 -0.400854 -1.07
57.1328125 0.8550070000000001 0.180359 -0.674648
58.12109375 0.27167600000000003 0.227223 -0.044453
59.12890625 0.760367 0.305953 -0.454414
60.125 0.7000000000000001 0.015 -0.685
61.1796875 0.134344 -0.160656 -0.295
61.390625 0.700247 -0.078164 -0.778411
62.359375 0.674504 -0.244746 -0.91925
63.390625 0.666378 -0.238418 -0.904796
64.5 0.694918 -0.215 -0.909918
65.66796875 0.749904 -0.214145 -0.964049
66.71484375 0.689333 -0.250661 -0.939994
68.01171875 0.666503 -0.148497 -0.815
68.97265625 0.709706 -0.100138 -0.809844
70.171875 0.707645 -0.116074 -0.823719
71.10546875 0.748744 -0.095006 -0.84375
72.2734375 0.743684 -0.141316 -0.885
73.23828125 0.6856720000000001 -0.180426 -0.866098
74.3515625 0.677978 -0.154082 -0.83206
75.44921875 0.6851799999999999 -0.26982 -0.955
76.59765625 0.728389 -0.263438 -0.991827
77.51953125 0.6573370000000001 -0.240006 -0.897343
78.71875 0.660023 -0.2475 -0.907523
79.8515625 0.615781 -0.275 -0.890781
80.77734375 0.655502 -0.261147 -0.916649
81.90234375 0.653539 -0.131038 -0.784577
82.71484375 0.665389 -0.107449 -0.772838
83.8359375 0.6900000000000001 -0.095 -0.785
84.7890625 0.694773 -0.120088 -0.814861
85.9921875 0.695883 -0.050202 -0.746085
87.359375 0.656508 -0.054492 -0.711
88.44140625 0.6587419999999999 -0.13006 -0.788802
89.56640625 0.649262 -0.100419 -0.749681
90.90625 0.707931 -0.226465 -0.934396
92.078125 0.67459 -0.21041 -0.885
92.99609375 0.07817700000000005 -0.285 -0.363177
94.05078125 0.148104 -0.285 -0.433104
95.21875 0.669911 -0.24 -0.909911
96.25 0.733072 -0.175 -0.908072
97.35546875 0.648814 -0.165014 -0.813828
98.31640625 0.679898 -0.105622 -0.78552
99.41796875 0.676088 -0.143131 -0.819219
100.26953125 0.659665 -0.160053 -0.819718
101.3828125 0.635613 -0.180637 -0.81625
102.4375 0.6546799999999999 -0.19 -0.84468
103.68359375 0.668698 -0.302966 -0.971664
104.8984375 0.670358 0.082906 -0.587452
106.0546875 0.742275 0.037327 -0.704948
107.14453125 0.690234 -0.064766 -0.755
108.38671875 0.7302679999999999 -0.076092 -0.80636
109.5 0.652452 -0.195 -0.847452
110.58203125 0.6699330000000001 -0.176332 -0.846265
111.53125 0.7095830000000001 -0.160349 -0.869932
112.55078125 0.688487 -0.216488 -0.904975
113.73828125 0.654212 -0.205 -0.859212
114.6875 0.671535 -0.062986 -0.734521
115.78125 0.755554 -0.084219 -0.839773
116.85546875 0.125218 -0.351078 -0.476296
117.9140625 0.22363299999999997 -0.343005 -0.566638
118.9453125 0.206733 -0.212669 -0.419402
119.96484375 0.05881000000000003 -0.230377 -0.289187
121.09765625 0.793301 0.11 -0.683301
122.1484375 0.088368 -0.245 -0.333368
123.25 0.20414800000000002 -0.16 -0.364148
124.28515625 0.13763999999999998 -0.25 -0.38764
125.3515625 0.12978499999999998 -0.252877 -0.382662
126.37890625 0.74085 -0.099467 -0.840317
127.44921875 0.928366 0.163444 -0.764922
128.5625 0.8572500000000001 0.18725 -0.67
129.5546875 0.809275 0.117489 -0.691786
130.3125 0.320813 -0.114554 -0.435367
130.53125 0.714106 0.105658 -0.608448
131.5 0.7990440000000001 0.18 -0.619044
132.54296875 0.7218939999999999 0.0034 -0.718494
133.32421875 0.37883100000000003 0.039522 -0.339309
133.82421875 0.919405 0.330283 -0.589122
134.18359375 0.367817 0.099366 -0.268451
135.06640625 0.9155389999999999 0.294436 -0.621103
135.84765625 0.15287399999999998 -0.110656 -0.26353
136.10546875 0.8250190000000001 0.170289 -0.65473
137.1328125 0.238049 -0.123403 -0.361452
138.23828125 0.363104 -0.086585 -0.449689
139.3203125 0.829592 0.027331 -0.802261
140.34375 0.32675 -0.037835 -0.364585
141.3671875 0.794492 -0.020423 -0.814915
142.3515625 0.215669 -0.079082 -0.294751
143.32421875 0.166074 -0.23206 -0.398134
144.42578125 0.7095520000000001 -0.118621 -0.828173
145.4921875 0.783319 -0.009157 -0.792476
146.54296875 0.798986 0.090248 -0.708738
147.578125 0.772679 0.198421 -0.574258
148.62109375 0.9306430000000001 0.161468 -0.769175
149.62890625 0.945322 0.318423 -0.626899
150.67578125 0.774034 0.324034 -0.45
151.77734375 0.7940910000000001 0.257299 -0.536792
152.828125 0.805688 0.208406 -0.597282
153.86328125 0.802549 0.136585 -0.665964
154.890625 0.748274 0.133274 -0.615
155.97265625 0.765879 0.148773 -0.617106
157.0625 0.756074 0.128026 -0.628048
158.18359375 0.833585 0.138363 -0.695222
159.23046875 0.789688 0.204881 -0.584807
160.296875 0.8273760000000001 0.239134 -0.588242
161.31640625 0.820555 0.203951 -0.616604
162.390625 0.771085 0.150529 -0.620556
163.50390625 0.852648 0.174086 -0.678562
164.65625 1.050707 -0.173125 -1.223832
165.69921875 1.0273940000000001 0.047407 -0.979987
166.6796875 1.171918 0.522332 -0.649586
167.703125 1.149146 0.714912 -0.434234
168.86328125 1.058006 0.554714 -0.503292
169.9453125 1.045167 0.425167 -0.62
171.06640625 1.159095 0.469789 -0.689306
172.08984375 1.077079 0.4576 -0.619479
173.12109375 1.0590549999999999 0.462043 -0.597012
174.16796875 1.125958 0.484938 -0.64102
175.25390625 1.060414 0.42828 -0.632134
176.37109375 1.089539 0.473078 -0.616461
177.42578125 1.174473 0.469636 -0.704837
178.47265625 1.071387 0.424541 -0.646846
179.4921875 1.166539 0.514561 -0.651978
180.546875 1.126004 0.52 -0.606004
181.65234375 1.139369 0.499369 -0.64
182.76171875 1.2839800000000001 0.58218 -0.7018
183.78515625 1.1683569999999999 0.487515 -0.680842
184.83984375 1.239953 0.489953 -0.75
185.87109375 1.173019 0.539077 -0.633942
186.9375 1.184688 0.533333 -0.651355
188.015625 1.2190400000000001 0.604487 -0.614553
189.1015625 1.1364830000000001 0.568072 -0.568411
190.1484375 1.215749 0.537727 -0.678022
191.11328125 1.193232 0.499272 -0.69396
192.15234375 1.2595450000000001 0.569692 -0.689853
193.13671875 1.1782110000000001 0.598303 -0.579908
194.19140625 1.244705 0.640797 -0.603908
195.21875 1.1086 0.614635 -0.493965
196.47265625 1.180728 0.528687 -0.652041
197.671875 1.065785 0.39598 -0.669805
198.96875 1.186815 0.494118 -0.692697
200.16796875 1.115208 0.368785 -0.746423
201.28125 1.197318 0.348852 -0.848466
202.33984375 1.083298 0.301509 -0.781789
203.39453125 1.190053 0.404986 -0.785067
204.421875 1.1534339999999998 0.476012 -0.677422
205.57421875 1.093532 0.397126 -0.696406
206.65234375 1.1877529999999998 0.474182 -0.713571
207.68359375 1.108759 0.120509 -0.98825
208.69921875 1.077684 0.241262 -0.836422
209.75 1.093487 0.355 -0.738487
210.81640625 1.32156 0.719886 -0.601674
211.96875 1.248265 0.704231 -0.544034
213.0703125 1.3452069999999998 0.778874 -0.566333
214.06640625 1.286118 0.729779 -0.556339
215.1015625 1.304829 0.707607 -0.597222
216.1328125 1.113655 0.108835 -1.00482
217.22265625 1.061323 0.31833 -0.742993
218.31640625 1.343616 0.759497 -0.584119
219.38671875 1.08658 0.644714 -0.441866
220.38671875 1.083582 0.524023 -0.559559
221.4140625 1.026165 0.321367 -0.704798
222.5 1.17 0.365 -0.805
223.5546875 1.121081 0.319535 -0.801546
224.6171875 1.292813 0.479553 -0.81326
225.60546875 1.206418 0.489971 -0.716447
226.55078125 1.262225 0.522272 -0.739953
227.5078125 1.1757279999999999 0.539681 -0.636047
228.5625 1.3562250000000002 0.312045 -1.04418
229.66015625 1.152275 0.368198 -0.784077
230.93359375 1.2390889999999999 0.763963 -0.475126
232.078125 1.238505 0.753668 -0.484837
232.83984375 1.166791 0.775635 -0.391156
234.26953125 1.086034 0.269939 -0.816095
235.51171875 0.975344 0.265344 -0.71
236.68359375 0.926348 0.299859 -0.626489
237.7265625 1.00144 0.45 -0.55144
238.796875 1.029124 0.499663 -0.529461
239.765625 0.939302 0.353714 -0.585588
240.80859375 0.89009 0.229445 -0.660645
241.875 0.9020699999999999 0.31 -0.59207
242.953125 0.864419 0.214419 -0.65
243.98046875 0.857612 0.124596 -0.733016
245.03515625 0.897367 0.12784 -0.769527
246.09765625 0.856737 0.073959 -0.782778
247.17578125 0.854966 0.050434 -0.804532
248.30859375 0.799145 -0.38537 -1.184515
249.42578125 0.732393 -0.161435 -0.893828
250.49609375 0.705692 0.154114 -0.551578
251.51171875 0.807381 0.277655 -0.529726
252.61328125 0.6900000000000001 0.055 -0.635
253.71484375 0.842129 0.117177 -0.724952
254.80859375 0.8291099999999999 0.119265 -0.709845
255.8359375 0.7782579999999999 0.139071 -0.639187
256.87109375 0.778216 0.108638 -0.669578
257.90625 0.8191299999999999 0.19207 -0.62706
259.01953125 0.979965 0.094965 -0.885
260.0546875 1.0825989999999999 0.132599 -0.95
261.12890625 1.167505 0.309011 -0.858494
262.125 1.278297 0.52 -0.758297
263.0859375 0.9768370000000001 0.376873 -0.599964
264.03125 1.004176 0.402129 -0.602047
265.07421875 0.9640569999999999 0.334057 -0.63
266.24609375 0.963785 0.213519 -0.750266
267.578125 1.088895 0.358895 -0.73
268.76171875 1.254659 0.464659 -0.79
269.8515625 1.34235 0.627195 -0.715155
270.96875 1.3687610000000001 0.508068 -0.860693
272.125 1.358509 0.31 -1.048509
273.20703125 1.39279 0.007971 -1.384819
274.1875 1.368862 0.576518 -0.792344
275.19140625 1.2622010000000001 0.854627 -0.407574
276.234375 1.270786 0.865845 -0.404941
277.29296875 1.272016 0.780954 -0.491062
278.375 1.370508 0.735 -0.635508
279.40234375 1.364103 0.875 -0.489103
280.41015625 1.3541370000000001 0.709906 -0.644231
281.41015625 1.262229 0.288474 -0.973755
282.4140625 1.311236 0.39 -0.921236
283.44140625 1.3493140000000001 0.519813 -0.829501
284.45703125 1.3552650000000002 0.5984 -0.756865
285.48828125 1.30572 0.583616 -0.722104
286.72265625 1.392393 0.677539 -0.714854
287.84375 1.25 0.605 -0.645
289.01171875 1.338627 0.563728 -0.774899
290.171875 1.2245979999999999 0.605 -0.619598
291.23828125 1.44753 0.741859 -0.705671
292.3046875 1.3183829999999999 0.718725 -0.599658
293.34375 1.409205 0.794205 -0.615
294.40234375 1.252118 0.569041 -0.683077
295.5078125 1.298992 0.593992 -0.705
296.66015625 1.25753 0.585569 -0.671961
297.71875 1.35957 0.61957 -0.74
298.14453125 1.330564 0.504916 -0.825648
298.875 1.22659 0.555 -0.67159
299.859375 1.324108 0.609121 -0.714987
300.953125 1.3195350000000001 0.52471 -0.794825
302.0546875 1.29462 0.679851 -0.614769
303.1796875 1.261036 0.782528 -0.478508
304.265625 1.482634 0.625 -0.857634
305.25390625 1.339305 0.609105 -0.7302
306.3984375 1.252754 0.562762 -0.689992
307.5390625 1.362096 0.6048 -0.757296
308.62109375 1.3018459999999998 0.567932 -0.733914
309.73046875 1.4171040000000001 0.530234 -0.88687
310.73828125 1.3049549999999999 0.285 -1.019955
311.8046875 1.26662 0.531702 -0.734918
312.93359375 1.310657 0.619823 -0.690834
314.02734375 1.3882910000000002 0.654402 -0.733889
315.10546875 1.26546 0.584973 -0.680487
316.17578125 1.235655 0.472186 -0.763469
317.23046875 1.363607 0.48 -0.883607
318.26171875 1.2933340000000002 0.584667 -0.708667
319.4140625 1.236054 0.54 -0.696054
320.50390625 1.3226849999999999 0.577958 -0.744727
321.58984375 1.3213370000000002 0.579254 -0.742083
322.6171875 1.245128 0.489539 -0.755589
323.68359375 1.275162 0.526582 -0.74858
324.7109375 1.208986 0.554975 -0.654011
325.87109375 1.143834 0.470274 -0.67356
326.984375 1.32965 0.573203 -0.756447
328.046875 1.264344 0.459153 -0.805191
329.11328125 1.292589 0.533451 -0.759138
330.20703125 1.39534 0.666649 -0.728691
331.2890625 1.265472 0.589232 -0.67624
332.4453125 1.325798 0.600798 -0.725
333.5 1.347394 0.705 -0.642394
334.52734375 1.313857 0.689809 -0.624048
335.59765625 1.194074 0.506218 -0.687856
336.7109375 1.238105 0.515 -0.723105
337.83203125 1.400439 0.546899 -0.85354
338.91796875 1.3181829999999999 0.628368 -0.689815
339.97265625 1.01786 0.399491 -0.618369
340.9609375 1.398454 0.589973 -0.808481
341.9765625 1.3959 0.65328 -0.74262
343.03515625 1.3818709999999998 0.562699 -0.819172
344.140625 1.268162 0.405 -0.863162
345.18359375 1.2061359999999999 0.32494 -0.881196
346.23046875 1.342903 0.440283 -0.90262
347.2265625 1.1995770000000001 0.395 -0.804577
348.28125 1.35453 0.485 -0.86953
349.35546875 1.2349809999999999 0.509981 -0.725
350.4765625 1.323006 0.549736 -0.77327
351.51171875 1.181669 0.511758 -0.669911
352.578125 1.2051910000000001 0.579566 -0.625625
353.63671875 1.279566 0.565 -0.714566
354.68359375 1.2337609999999999 0.559949 -0.673812
355.79296875 1.2164220000000001 0.581422 -0.635
356.9453125 1.395 0.53 -0.865
357.92578125 1.007957 0.232963 -0.774994
358.99609375 1.012213 0.352932 -0.659281
360.08203125 1.29559 0.538501 -0.757089
361.1640625 1.1637179999999998 0.654975 -0.508743
362.28515625 1.31699 0.752784 -0.564206
363.36328125 1.216248 0.63 -0.586248
364.41796875 1.32428 0.555537 -0.768743
365.44140625 1.194715 0.565 -0.629715
366.53515625 1.2145510000000002 0.597353 -0.617198
367.61328125 1.259954 0.69 -0.569954
368.7109375 1.329555 0.469555 -0.86
369.7265625 1.199512 0.126467 -1.073045
370.71875 1.125 0.03 -1.095
371.66015625 1.311021 0.471193 -0.839828
372.67578125 1.343369 0.680001 -0.663368
373.73046875 1.397752 0.854959 -0.542793
374.80078125 1.29223 0.943387 -0.348843
376.13671875 1.329074 1.113499 -0.215575
377.359375 1.321473 0.994651 -0.326822
378.49609375 1.4841440000000001 0.861823 -0.622321
379.609375 1.336993 0.722363 -0.61463
380.76953125 1.300886 0.659981 -0.640905
381.8046875 1.261759 0.591898 -0.669861
382.86328125 1.3591319999999998 0.653229 -0.705903
383.9375 1.325 0.625 -0.7
385.0 1.234658 0.56 -0.674658
386.15234375 1.408215 0.654465 -0.75375
387.22265625 1.260345 0.616317 -0.644028
388.26171875 1.221381 0.537116 -0.684265
389.3046875 1.403549 0.589048 -0.814501
390.38671875 1.253775 0.531726 -0.722049
391.50390625 1.420687 0.571312 -0.849375
392.5859375 1.319507 0.42494 -0.894567
393.6640625 1.234543 0.485 -0.749543
394.70703125 1.3750300000000002 0.662336 -0.712694
395.75390625 1.265796 0.585656 -0.68014
396.90234375 1.3994369999999998 0.609501 -0.789936
398.0234375 1.258018 0.588292 -0.669726
399.1484375 1.4163109999999999 0.746045 -0.670266
400.2265625 1.24547 0.767607 -0.477863
401.29296875 1.394834 0.726071 -0.668763
402.35546875 1.2756820000000002 0.634959 -0.640723
403.5234375 1.370203 0.609364 -0.760839
404.64453125 1.254458 0.474947 -0.779511
405.7265625 1.233285 0.37641 -0.856875
406.8359375 1.380919 0.399922 -0.980997
407.89453125 1.207473 0.27 -0.937473
409.0390625 1.33785 0.359746 -0.978104
410.1796875 1.22102 0.357391 -0.863629
411.3125 1.223799 0.395 -0.828799
412.3671875 1.328745 0.503745 -0.825
413.453125 1.212524 0.456066 -0.756458
414.55078125 1.329943 0.615 -0.714943
415.671875 1.210413 0.539414 -0.670999
416.828125 1.292014 0.505645 -0.786369
417.90625 1.214374 0.493535 -0.720839
418.96484375 1.248154 0.519354 -0.7288
420.05859375 1.37707 0.65 -0.72707
421.1484375 1.20343 0.623697 -0.579733
422.28125 1.337358 0.662358 -0.675
423.3515625 1.208619 0.453889 -0.75473
424.4140625 1.383784 0.529952 -0.853832
425.40234375 1.235673 0.439849 -0.795824
426.49609375 1.426012 0.518088 -0.907924
427.5625 1.2313459999999998 0.585 -0.646346
428.62890625 1.31978 0.745085 -0.574695
429.65234375 1.2893940000000002 0.74 -0.549394
430.6796875 1.19197 0.582207 -0.609763
431.71484375 1.2581410000000002 0.57935 -0.678791
432.7734375 1.266762 0.562368 -0.704394
433.88671875 1.1521940000000002 0.477847 -0.674347
434.9609375 1.210523 0.506028 -0.704495
435.96484375 1.318959 0.410555 -0.908404
437.0 1.27 0.215 -1.055
438.0625 1.2227839999999999 0.647115 -0.575669
439.11328125 1.215275 0.64 -0.575275
440.20703125 1.165909 0.51 -0.655909
441.23046875 1.164933 0.449933 -0.715
442.2265625 1.215779 0.403187 -0.812592
443.21875 1.17307 0.38 -0.79307
444.33203125 1.223573 0.406847 -0.816726
445.65625 1.106346 0.311346 -0.795
446.9296875 1.295482 0.489303 -0.806179
448.03125 1.194725 0.45498 -0.739745
449.12890625 1.329409 0.59 -0.739409
450.17578125 1.2048 0.1283 -1.0765
451.23046875 0.784768 -0.070032 -0.8548
452.4140625 0.640435 -0.324009 -0.964444
453.35546875 0.672295 0.219942 -0.452353
454.33203125 0.18211500000000003 0.448811 0.266696
455.33984375 0.73859 0.439403 -0.299187
456.41015625 0.689798 0.220345 -0.469453
457.5 0.654451 0.12 -0.534451
458.58984375 0.6278680000000001 -0.266136 -0.894004
459.64453125 0.719132 -0.305006 -1.024138
460.69140625 0.66945 -0.29055 -0.96
461.7421875 0.7083790000000001 -0.14614 -0.854519
462.8046875 0.05880000000000002 -0.245241 -0.304041
463.921875 0.8292030000000001 -0.255728 -1.084931
465.12890625 0.7917150000000001 -0.59221 -1.383925
466.0078125 0.37313700000000005 -0.233366 -0.606503
467.07421875 1.259866 0.575 -0.684866
468.12109375 1.472939 0.852041 -0.620898
469.1796875 1.388105 0.797391 -0.590714
470.29296875 1.365212 0.805782 -0.55943
471.35546875 1.5179019999999999 1.009682 -0.50822
472.35546875 1.3901379999999999 0.884904 -0.505234
473.40625 1.519329 0.924635 -0.594694
474.44921875 1.502403 0.932075 -0.570328
475.5234375 1.352425 0.827548 -0.524877
476.6171875 1.528162 0.91397 -0.614192
477.65625 1.412031 0.907031 -0.505
478.6875 1.504765 0.9455 -0.559265
479.67578125 1.438574 0.993884 -0.44469
480.75390625 1.248749 0.834052 -0.414697
481.8125 1.561738 0.951875 -0.609863
482.8515625 1.376101 0.672727 -0.703374
483.8515625 1.280164 0.498828 -0.781336
484.828125 1.437948 0.504583 -0.933365
485.76953125 1.4687890000000001 0.61495 -0.853839
486.8203125 1.3872740000000001 0.51228 -0.874994
488.00390625 1.330732 0.43807 -0.892662
489.2578125 1.499719 0.661748 -0.837971
490.36328125 1.411279 0.661377 -0.749902
491.421875 1.3036789999999998 0.613679 -0.69
492.46484375 1.5158550000000002 0.797748 -0.718107
493.56640625 1.37465 0.769867 -0.604783
494.65625 1.3382640000000001 0.847879 -0.490385
495.6640625 1.538108 0.954891 -0.583217
496.6328125 1.423484 1.003789 -0.419695
497.65234375 1.503023 0.973023 -0.53
498.61328125 1.579071 0.998485 -0.580586
499.56640625 1.560309 0.949606 -0.610703
500.19921875 1.436298 -0.003625 -1.439923
501.69140625 1.0247069999999998 -0.240293 -1.265
502.85546875 1.514856 0.71497 -0.799886
503.890625 1.374138 0.66 -0.714138
504.9765625 1.581025 0.810933 -0.770092
505.99609375 1.438231 0.79399 -0.644241
507.1015625 1.4257300000000002 0.78322 -0.64251
508.1171875 1.5573860000000002 0.83747 -0.719916
509.09765625 1.5623779999999998 0.882945 -0.679433
510.13671875 1.391394 0.717443 -0.673951
511.21875 1.417837 0.688641 -0.729196
512.27734375 1.543746 0.824481 -0.719265
513.32421875 1.419494 0.795 -0.624494
514.34765625 1.3944649999999998 0.774465 -0.62
515.3046875 1.5270260000000002 0.87228 -0.654746
516.31640625 1.5211480000000002 0.859557 -0.661591
517.66015625 1.378394 0.734215 -0.644179
518.9140625 1.5198589999999998 0.804859 -0.715
520.0390625 1.467266 0.759785 -0.707481
521.1171875 1.3457309999999998 0.681452 -0.664279
522.1640625 1.503512 0.735 -0.768512
523.24609375 1.473383 0.755656 -0.717727
524.37890625 1.343928 0.644241 -0.699687
525.4140625 1.522484 0.704921 -0.817563
526.3984375 1.406293 0.66822 -0.738073
527.4375 1.3500079999999999 0.598542 -0.751466
528.4375 1.180908 0.569394 -0.611514
529.50390625 1.166878 0.498023 -0.668855
530.5703125 1.1999680000000001 0.485 -0.714968
531.5625 1.401176 0.558 -0.843176
532.49609375 1.227087 0.363979 -0.863108
533.50390625 1.449809 0.624809 -0.825
534.52734375 1.311995 0.649852 -0.662143
535.78515625 1.454491 0.690155 -0.764336
537.06640625 1.339617 0.654936 -0.684681
537.65625 1.563013 0.880302 -0.682711
539.26171875 1.891872 1.3772 -0.514672
540.4296875 1.291859 0.59 -0.701859
541.51953125 1.2828680000000001 0.524907 -0.757961
542.5546875 1.406196 0.706898 -0.699298
543.60546875 1.234311 0.56487 -0.669441
544.65234375 1.3994870000000001 0.654849 -0.744638
545.6484375 1.453735 0.66649 -0.787245
546.63671875 1.204573 0.63 -0.574573
547.72265625 1.072268 0.511218 -0.56105
548.75390625 1.235367 0.630393 -0.604974
549.7421875 1.125175 0.49139 -0.633785
551.03515625 1.042172 0.44 -0.602172
552.30078125 1.1768580000000002 0.557007 -0.619851
553.44921875 1.1881719999999998 0.53558 -0.652592
554.6171875 1.060575 0.524258 -0.536317
555.68359375 1.269215 0.624557 -0.644658
556.71484375 1.147297 0.513508 -0.633789
557.76171875 1.1062189999999998 0.441403 -0.664816
558.8515625 1.210658 0.480729 -0.729929
559.9296875 1.182301 0.473025 -0.709276
561.03515625 1.09748 0.4626 -0.63488
562.06640625 1.094306 0.53 -0.564306
563.0703125 1.259575 0.639653 -0.619922
564.09375 1.141046 0.541046 -0.6
565.19140625 1.437492 0.724832 -0.71266
566.2109375 1.2899159999999998 0.664916 -0.625
567.26171875 1.392917 0.75 -0.642917
568.359375 1.3594789999999999 0.742681 -0.616798
569.625 1.366768 0.72 -0.646768
570.8203125 1.387345 0.787452 -0.599893
571.5625 1.553634 0.045833 -1.507801
573.07421875 1.244498 0.574523 -0.669975
574.1796875 1.403047 0.750459 -0.652588
575.18359375 1.2632430000000001 0.684806 -0.578437
576.20703125 1.350523 0.739066 -0.611457
577.25 1.329918 0.7 -0.629918
578.34765625 1.248014 0.624182 -0.623832
579.375 1.417812 0.69 -0.727812
580.359375 1.3490959999999999 0.669171 -0.679925
581.375 1.2612809999999999 0.625 -0.636281
582.359375 1.468966 0.812914 -0.656052
583.37890625 1.325175 0.718979 -0.606196
584.609375 1.346354 0.637942 -0.708412
585.8046875 1.432528 0.502555 -0.929973
586.8515625 1.3267440000000001 0.583711 -0.743033
587.890625 1.357078 0.782545 -0.574533
588.93359375 1.506753 1.149129 -0.357624
590.01171875 1.326879 1.014148 -0.312731
591.140625 1.2980420000000001 0.913127 -0.384915
592.1953125 1.424737 0.854781 -0.569956
593.1875 1.4076279999999999 0.798824 -0.608804
594.28515625 1.293741 0.642231 -0.65151
595.3671875 1.4185159999999999 0.685 -0.733516
596.421875 1.46207 0.75 -0.71207
597.48828125 1.316721 0.636815 -0.679906
598.52734375 1.299302 0.578746 -0.720556
599.55078125 1.49759 0.73 -0.76759
600.59765625 1.366306 0.644591 -0.721715
601.72265625 1.29966 0.549855 -0.749805
602.765625 1.455731 0.655913 -0.799818
603.765625 1.354403 0.636572 -0.717831
604.8046875 1.398013 0.698398 -0.699615
605.76171875 1.4598149999999999 0.7 -0.759815
606.78125 1.2548940000000002 0.555 -0.699894
608.07421875 1.453284 0.390242 -1.063042
609.40625 1.383333 0.745 -0.638333
610.578125 1.4955159999999998 0.859911 -0.635605
611.6875 1.4327100000000002 0.819687 -0.613023
612.7734375 1.498613 0.812694 -0.685919
613.859375 1.487835 0.732864 -0.754971
614.46875 1.534159 0.874159 -0.66
615.94140625 1.5188000000000001 0.759282 -0.759518
616.91015625 1.354655 0.66428 -0.690375
617.91015625 1.498951 0.735 -0.763951
618.90234375 1.3958309999999998 0.693831 -0.702
620.04296875 1.54142 0.628324 -0.913096
621.2890625 1.405033 0.475 -0.930033
622.3671875 1.387308 0.574802 -0.812506
623.4375 1.2749709999999999 0.528625 -0.746346
624.5078125 1.332897 0.56639 -0.766507
625.6328125 1.266931 0.582986 -0.683945
626.69921875 1.3750879999999999 0.665088 -0.71
627.78125 1.292242 0.651389 -0.640853
628.80859375 1.253989 0.609753 -0.644236
629.83984375 1.389018 0.709018 -0.68
630.9140625 1.217828 0.669441 -0.548387
632.03125 1.4285999999999999 0.748906 -0.679694
633.05859375 1.3334830000000002 0.734886 -0.598597
634.09765625 1.4457719999999998 0.763914 -0.681858
635.09765625 1.342127 0.687325 -0.654802
636.12890625 1.367087 0.676846 -0.690241
637.16796875 1.407227 0.743457 -0.66377
638.2109375 1.285669 0.724795 -0.560874
639.265625 1.4894349999999998 0.775643 -0.713792
640.23046875 1.384373 0.734987 -0.649386
641.52734375 1.4177179999999998 0.7041 -0.713618
642.6953125 1.3653110000000002 0.84116 -0.524151
643.84375 1.3626559999999999 0.852656 -0.51
644.94921875 1.453246 0.903348 -0.549898
646.07421875 1.368725 0.733884 -0.634841
647.125 1.2887810000000002 0.55 -0.738781
648.2578125 1.3637480000000002 0.593211 -0.770537
649.3046875 1.457313 0.702514 -0.754799
650.3828125 1.4374310000000001 0.778916 -0.658515
651.43359375 1.580117 0.945824 -0.634293
652.41015625 1.3988459999999998 0.911109 -0.487737
653.421875 1.369567 0.795853 -0.573714
654.42578125 1.453758 0.91383 -0.539928
655.55859375 1.467309 0.889324 -0.577985
656.61328125 1.3618000000000001 0.7118 -0.65
657.64453125 1.296359 0.619707 -0.676652
658.67578125 1.247976 0.543672 -0.704304
659.6875 1.488746 0.820547 -0.668199
660.6640625 1.4545029999999999 0.795056 -0.659447
661.953125 1.391491 0.752559 -0.638932
663.34375 1.580771 0.905771 -0.675
664.4609375 1.38655 0.724949 -0.661601
665.671875 1.4592239999999999 0.765 -0.694224
666.734375 1.402459 0.782864 -0.619595
667.90625 1.410837 0.757679 -0.653158
669.05078125 1.51243 0.81243 -0.7
670.05859375 1.2283 0.594593 -0.633707
671.078125 1.308725 0.654899 -0.653826
672.18359375 1.297365 0.699943 -0.597422
673.296875 1.2698070000000001 0.725 -0.544807
674.41015625 1.362634 0.543331 -0.819303
675.45703125 1.2829190000000001 0.333033 -0.949886
676.4375 1.278549 0.538571 -0.739978
677.44921875 1.386109 0.76558 -0.620529
678.484375 1.4266860000000001 0.996765 -0.429921
679.6015625 1.389539 0.924008 -0.465531
680.66015625 1.404966 0.887551 -0.517415
681.74609375 1.4778959999999999 0.800274 -0.677622
682.734375 1.335893 0.670529 -0.665364
683.7578125 1.339507 0.615 -0.724507
684.83984375 1.353431 0.613431 -0.74
685.96484375 1.382256 0.704413 -0.677843
687.0625 1.367666 0.693571 -0.674095
688.1484375 1.391626 0.682727 -0.708899
689.2109375 1.3646539999999998 0.699819 -0.664835
690.2890625 1.404017 0.754916 -0.649101
691.4140625 1.417559 0.779676 -0.637883
692.53515625 1.537572 0.709339 -0.828233
693.58203125 1.425953 0.6268 -0.799153
694.59765625 1.508998 0.908757 -0.600241
695.65234375 1.418296 0.854022 -0.564274
696.73046875 1.3053810000000001 0.770381 -0.535
697.83203125 1.588648 0.849568 -0.73908
698.90234375 1.4997820000000002 0.854068 -0.645714
699.9296875 1.627971 0.951045 -0.676926
700.89453125 1.46731 0.924969 -0.542341
701.88671875 1.454961 0.789386 -0.665575
702.86328125 1.4852910000000001 0.520312 -0.964979
703.9453125 1.297236 0.226961 -1.070275
705.20703125 1.274084 0.758668 -0.515416
706.28125 1.339859 1.054609 -0.28525
707.29296875 1.365486 1.18818 -0.177306
708.3984375 1.244094 0.673072 -0.571022
709.48046875 1.112884 0.284984 -0.8279
710.55078125 1.1227179999999999 0.277961 -0.844757
711.546875 1.146226 0.170215 -0.976011
712.5234375 1.412625 0.642822 -0.769803
713.453125 1.4684599999999999 0.764684 -0.703776
714.41015625 1.5096470000000002 0.77 -0.739647
715.6015625 1.363553 0.506144 -0.857409
716.546875 1.473041 0.624693 -0.848348
717.5078125 1.513092 0.508745 -1.004347
718.421875 1.45526 0.739561 -0.715699
719.69921875 1.416416 0.666443 -0.749973
720.8046875 1.3684699999999999 0.513841 -0.854629
721.98828125 1.142826 0.155 -0.987826
723.0390625 1.029968 0.174968 -0.855
724.0703125 1.229437 0.401512 -0.827925
725.05078125 1.177211 0.487285 -0.689926
726.07421875 1.467686 0.755684 -0.712002
727.07421875 1.414579 0.63 -0.784579
728.09375 1.385307 0.653711 -0.731596
729.09375 1.432536 0.697536 -0.735
730.44140625 1.397072 0.694877 -0.702195
731.09375 1.410781 0.670781 -0.74
732.41796875 1.4279359999999999 0.760203 -0.667733
733.8515625 1.341166 0.713141 -0.628025
734.87890625 1.432512 0.597914 -0.834598
735.96875 1.292454 0.2626 -1.029854
736.98828125 1.474194 0.392603 -1.081591
738.00390625 1.496068 0.531894 -0.964174
739.11328125 1.396218 0.601827 -0.794391
740.203125 1.345234 0.551797 -0.793437
741.25 1.420714 0.67 -0.750714
742.2578125 1.4582739999999998 0.683383 -0.774891
743.21875 1.454141 0.749141 -0.705
744.25390625 1.4211960000000001 0.765 -0.656196
745.86328125 1.365159 0.788842 -0.576317
746.38671875 2.767748 2.133046 -0.634702
747.16015625 1.380108 0.800155 -0.579953
748.24609375 1.430434 0.806723 -0.623711
749.3984375 1.44819 0.768908 -0.679282
750.4921875 1.5402559999999998 0.87778 -0.662476
751.59765625 1.4827080000000001 0.808897 -0.673811
752.74609375 1.409783 0.78052 -0.629263
753.81640625 1.434601 0.804581 -0.63002
754.86328125 1.428908 0.77 -0.658908
755.91796875 1.4513690000000001 0.780855 -0.670514
757.0 1.3796119999999998 0.75 -0.629612
758.07421875 1.401844 0.741929 -0.659915
759.10546875 1.42916 0.829961 -0.599199
760.09375 1.46895 0.853173 -0.615777
761.0859375 1.569665 0.904869 -0.664796
762.3671875 1.4097140000000001 0.79 -0.619714
763.59765625 1.508315 0.853914 -0.654401
764.73046875 1.39333 0.794994 -0.598336
765.80078125 1.5518079999999999 0.841245 -0.710563
766.81640625 1.488656 0.839569 -0.649087
767.80078125 1.064711 0.290765 -0.773946
768.8828125 0.793401 0.173154 -0.620247
769.94921875 0.816153 0.261015 -0.555138
771.015625 1.54488 0.678284 -0.866596
771.96484375 1.458411 0.85681 -0.601601
773.03125 1.4026 0.642012 -0.760588
774.05078125 1.38873 0.666161 -0.722569
775.1328125 1.544187 0.786338 -0.757849
776.203125 1.4789919999999999 0.714908 -0.764084
777.20703125 1.41605 0.735 -0.68105
778.18359375 1.623457 0.809877 -0.81358
779.16796875 1.5315539999999999 0.746649 -0.784905
780.40234375 1.443605 0.714855 -0.72875
781.71875 1.573147 0.856536 -0.716611
782.96484375 1.419093 0.705 -0.714093
784.03515625 1.458012 0.757452 -0.70056
785.09765625 1.5425939999999998 0.833598 -0.708996
786.19921875 1.3922560000000002 0.737256 -0.655
787.328125 1.4420799999999998 0.74708 -0.695
788.41796875 1.4175 0.746296 -0.671204
789.51171875 1.443108 0.76313 -0.679978
790.5390625 1.494954 0.814943 -0.680011
791.546875 1.539798 0.855 -0.684798
792.640625 1.395728 0.716309 -0.679419
793.7265625 1.4469159999999999 0.684736 -0.76218
794.80078125 1.549155 0.729291 -0.819864
795.828125 1.4278870000000001 0.689684 -0.738203
796.84375 1.385 0.67 -0.715
797.86328125 1.56859 0.871267 -0.697323
798.9296875 1.4662730000000002 0.764683 -0.70159
799.98828125 1.431698 0.490323 -0.941375
800.97265625 1.466268 0.697563 -0.768705
802.05859375 1.233393 0.48 -0.753393
803.2265625 1.1759089999999999 0.515 -0.660909
804.3515625 1.262799 0.609216 -0.653583
805.39453125 1.193636 0.58 -0.613636
806.453125 1.16952 0.51452 -0.655
807.44140625 1.488207 0.698526 -0.789681
808.40234375 1.489854 0.74333 -0.746524
809.390625 1.6115430000000002 0.892386 -0.719157
810.3671875 1.52782 0.755 -0.77282
811.41015625 1.33952 0.636386 -0.703134
812.4609375 1.564046 0.864923 -0.699123
813.46484375 1.38565 0.696396 -0.689254
814.44140625 1.487209 0.814946 -0.672263
815.41015625 1.134823 0.430476 -0.704347
816.4375 1.038611 0.414091 -0.62452
817.453125 0.990042 0.13 -0.860042
818.60546875 0.7438450000000001 -0.230072 -0.973917
819.45703125 0.071498 -0.361443 -0.432941
820.47265625 0.15311000000000002 -0.376585 -0.529695
821.5859375 0.87936 -0.705205 -1.584565
822.51953125 0.884904 0.104994 -0.77991
823.6015625 0.83134 0.238864 -0.592476
824.671875 0.829702 0.199419 -0.630283
825.6875 0.8760300000000001 0.182448 -0.693582
826.69921875 0.817075 0.017075 -0.8
827.68359375 0.968972 0.093994 -0.874978
828.71484375 0.822896 -0.052338 -0.875234
829.7890625 0.898841 -0.045326 -0.944167
830.96484375 0.833827 -0.099845 -0.933672
832.15234375 0.87475 -0.080163 -0.954913
833.265625 0.84125 -0.11 -0.95125
834.3359375 0.84948 -0.130436 -0.979916
835.44921875 0.8735360000000001 -0.150998 -1.024534
836.5859375 0.84821 -0.134437 -0.982647
837.625 1.13233 0.09 -1.04233
838.6015625 1.439339 0.73037 -0.708969
839.73828125 1.439622 0.914686 -0.524936
840.8828125 1.4307750000000001 0.866587 -0.564188
841.98828125 1.422863 0.764719 -0.658144
843.08984375 1.353118 0.63 -0.723118
844.12890625 1.3097349999999999 0.585085 -0.72465
845.140625 1.252055 0.514023 -0.738032
846.1953125 1.288213 0.538486 -0.749727
847.26171875 1.4125290000000001 0.552529 -0.86
848.26171875 1.3728319999999998 0.558025 -0.814807
849.3125 1.452002 0.672143 -0.779859
850.34375 1.3529170000000001 0.742917 -0.61
851.88671875 1.418502 0.814707 -0.603795
852.67578125 1.385624 0.680798 -0.704826
853.83984375 1.329358 0.570292 -0.759066
854.9453125 1.440179 0.607426 -0.832753
856.06640625 1.338691 0.505839 -0.832852
857.0859375 1.4916260000000001 0.588827 -0.902799
858.140625 1.3499029999999999 0.577172 -0.772731
859.23046875 1.526682 0.494925 -1.031757
860.3203125 1.480683 0.557711 -0.922972
861.3359375 1.3903750000000001 0.64942 -0.740955
862.3515625 1.535763 0.711674 -0.824089
863.35546875 1.4611640000000001 0.64 -0.821164
864.34765625 1.443642 0.54332 -0.900322
865.37890625 1.468348 0.765759 -0.702589
866.6328125 1.3992360000000001 0.709798 -0.689438
867.83984375 0.861808 0.461509 -0.400299
868.98046875 0.921995 0.394946 -0.527049
870.1015625 0.933921 0.243355 -0.690566
871.19140625 0.922297 0.269733 -0.652564
872.3125 0.950106 0.3425 -0.607606
873.3984375 0.946677 0.341957 -0.60472
874.4375 0.965603 0.24375 -0.721853
875.49609375 0.913581 0.298692 -0.614889
876.62109375 0.89137 0.244122 -0.647248
877.7109375 1.019569 0.319569 -0.7
878.7890625 0.889716 0.25482 -0.634896
879.87109375 0.993789 0.280953 -0.712836
880.8828125 0.89703 0.280355 -0.616675
881.96875 0.892659 0.253761 -0.638898
883.08203125 0.983868 0.26014 -0.723728
884.17578125 0.8897660000000001 0.234941 -0.654825
885.234375 0.843027 0.218027 -0.625
886.31640625 0.92318 0.233784 -0.689396
887.3515625 0.861327 0.23149 -0.629837
888.44921875 0.87402 0.209057 -0.664963
889.60546875 0.896847 0.269894 -0.626953
890.671875 0.914188 0.272604 -0.641584
891.734375 0.849529 0.222185 -0.627344
892.75390625 0.916629 0.244927 -0.671702
893.80859375 0.912927 0.263074 -0.649853
894.875 0.924303 0.23 -0.694303
895.99609375 0.9089809999999999 0.174067 -0.734914
897.04296875 0.892372 0.206179 -0.686193
898.0703125 0.882155 0.047155 -0.835
899.1015625 0.94326 -0.025402 -0.968662
900.16015625 0.8783329999999999 -0.162238 -1.040571
901.25 0.859057 -0.12 -0.979057
902.3671875 0.907817 0.139804 -0.768013
903.43359375 0.9287880000000001 0.283868 -0.64492
904.4453125 0.878847 0.349526 -0.529321
905.51171875 0.952257 0.406223 -0.546034
906.5859375 0.9353859999999999 0.345 -0.590386
907.16796875 0.9059060000000001 0.390979 -0.514927
908.72265625 0.9169 0.213044 -0.703856
909.78515625 0.940447 0.185851 -0.754596
910.77734375 0.8519450000000001 0.166945 -0.685
911.80078125 0.9514640000000001 0.214095 -0.737369
912.85546875 0.8393170000000001 0.139994 -0.699323
913.9296875 0.839829 0.124472 -0.715357
914.953125 0.9184789999999999 0.068479 -0.85
915.93359375 0.8845430000000001 0.129523 -0.75502
916.94140625 0.858642 0.118398 -0.740244
917.97265625 0.9225450000000001 0.146796 -0.775749
919.390625 0.866107 0.181875 -0.684232
920.6796875 0.934277 0.209299 -0.724978
921.80078125 0.9129860000000001 0.182228 -0.730758
922.90625 0.9538599999999999 0.184167 -0.769693
923.953125 0.863248 0.191112 -0.672136
925.0546875 0.9382699999999999 0.223158 -0.715112
926.171875 0.9120079999999999 0.178901 -0.733107
927.2578125 0.994344 0.170312 -0.824032
928.25390625 0.847197 0.138127 -0.70907
929.3125 0.771428 -0.234313 -1.005741
930.35546875 0.13554599999999972 2.163966 2.02842
932.49609375 0.521638 0.158638 -0.363
933.5390625 0.8374750000000001 -0.381085 -1.21856
934.53515625 1.266794 -0.414716 -1.68151
935.50390625 1.59692 -0.265 -1.86192
936.55078125 1.481751 -0.155933 -1.637684
937.86328125 1.524508 0.306758 -1.21775
939.0859375 1.383645 0.529805 -0.85384
940.24609375 1.529375 0.832914 -0.696461
941.3671875 1.4078430000000002 0.876522 -0.531321
942.47265625 1.413687 0.864664 -0.549023
943.6328125 1.5549110000000002 0.995 -0.559911
944.72265625 1.4876939999999998 0.964144 -0.52355
945.78515625 1.5675780000000001 1.034906 -0.532672
946.80859375 1.409651 0.97 -0.439651
947.875 1.51596 0.96 -0.55596
948.91796875 1.427036 0.944444 -0.482592
950.04296875 1.467796 0.8584 -0.609396
951.06640625 1.4485299999999999 0.904945 -0.543585
952.1015625 1.581248 0.916437 -0.664811
953.09375 1.495357 0.875357 -0.62
954.14453125 1.400019 0.754916 -0.645103
955.19921875 1.5003389999999999 0.744696 -0.755643
956.2578125 1.456552 0.791575 -0.664977
957.34375 1.399062 0.744062 -0.655
958.8359375 1.449526 0.664943 -0.784583
960.06640625 1.369659 0.304665 -1.064994
961.26171875 1.423254 0.32945 -1.093804
962.35546875 1.33636 0.59 -0.74636
963.48046875 1.519888 0.814979 -0.704909
964.49609375 1.5181399999999998 0.968285 -0.549855
965.51953125 1.441993 1.139986 -0.302007
966.60546875 1.423245 1.449983 0.026738
967.6875 1.420343 1.3225 -0.097843
968.7578125 1.468274 1.2272 -0.241074
969.80859375 1.3806 0.921988 -0.458612
970.81640625 1.494611 0.81574 -0.678871
971.82421875 1.405 0.795 -0.61
972.89453125 1.3349950000000002 0.704995 -0.63
973.99609375 1.455445 0.736953 -0.718492
975.03125 1.375588 0.73 -0.645588
976.11328125 1.485485 0.725 -0.760485
977.12890625 1.556491 0.602983 -0.953508
978.16796875 1.388148 0.773148 -0.615
979.2578125 1.472602 0.786611 -0.685991
980.33984375 1.3476 0.6776 -0.67
981.37890625 1.498365 0.705 -0.793365
982.38671875 1.376228 0.706781 -0.669447
983.44921875 1.403897 0.673925 -0.729972
984.51953125 1.480556 0.724985 -0.755571
985.62109375 1.334893 0.636093 -0.6988
986.75390625 1.382733 0.66807 -0.714663
987.79296875 1.451623 0.748318 -0.703305
988.83203125 1.403479 0.663479 -0.74
989.90234375 1.375448 0.684664 -0.690784
990.99609375 1.286858 0.638685 -0.648173
992.09375 1.584651 0.759651 -0.825
993.12890625 1.428629 0.875838 -0.552791
994.171875 1.381036 0.934876 -0.44616
995.25 1.4552969999999998 0.87 -0.585297
996.3515625 1.446704 0.789296 -0.657408
997.46875 1.363089 0.605 -0.758089
998.6171875 1.519558 0.573506 -0.946052
999.66015625 1.48141 0.867764 -0.613646
1000.73046875 1.419073 0.939975 -0.479098
1001.8359375 1.450943 0.654946 -0.795997
1002.921875 1.423211 0.506035 -0.917176
1004.03515625 1.4211179999999999 0.555107 -0.866011
1005.15234375 1.520737 0.693515 -0.827222
1006.2109375 1.405456 0.769697 -0.635759
1007.3046875 1.550033 0.740056 -0.809977
1008.3359375 1.482161 0.755544 -0.726617
1009.46484375 1.332593 0.627593 -0.705
1010.578125 1.4180320000000002 0.714469 -0.703563
1011.625 1.217457 0.49 -0.727457
1012.66015625 1.4090829999999999 0.655411 -0.753672
1013.6953125 1.3652090000000001 0.692267 -0.672942
1014.7578125 1.466863 0.792992 -0.673871
1015.83203125 1.422411 0.768368 -0.654043
1016.92578125 1.392487 0.853068 -0.539419
1017.92578125 1.3658860000000002 0.501144 -0.864742
1018.921875 1.432883 1.206918 -0.225965
1019.92578125 1.3249190000000002 1.11 -0.214919
1020.96484375 1.104632 0.289312 -0.81532
1021.97265625 1.227139 0.042139 -1.185
1023.0078125 1.146283 0.113211 -1.033072
1024.0234375 1.335454 0.292295 -1.043159
1025.015625 1.222715 0.347715 -0.875
1026.296875 1.335567 0.436104 -0.899463
1027.51953125 1.226363 0.429986 -0.796377
1028.58203125 0.78376 0.118772 -0.664988
1029.6171875 0.792687 0.173431 -0.619256
1030.66015625 0.879712 0.109526 -0.770186
1031.69140625 0.869964 0.210855 -0.659109
1032.80078125 0.747007 0.152113 -0.594894
1033.8984375 0.768784 0.235534 -0.53325
1034.984375 0.847442 0.123447 -0.723995
0.0 0.306581 -1.0 -1.306581
1037.02734375 0.376177 0.162798 -0.213379
1038.03515625 0.7665040000000001 0.587762 -0.178742
1039.1171875 0.787981 0.545906 -0.242075
1040.171875 0.815669 0.544285 -0.271384
1041.203125 0.337356 0.329038 -0.008318
1042.1640625 0.77852 0.079813 -0.698707
1043.13671875 0.047005999999999964 -0.237994 -0.285
1044.2109375 0.711283 -0.040299 -0.751582
1045.3359375 0.15042 -0.360286 -0.510706
1046.40234375 0.08921900000000005 -0.455225 -0.544444
1047.41796875 0.10000000000000003 -0.365 -0.465
1048.41015625 0.18926299999999996 -0.290594 -0.479857
1049.3515625 0.20788299999999998 -0.265617 -0.4735
1050.33984375 0.305045 -0.253139 -0.558184
1051.3125 0.263522 -0.181 -0.444522
1052.28515625 0.6640429999999999 0.088629 -0.575414
1053.19140625 0.12657000000000002 -0.113103 -0.239673
1054.1875 0.238644 -0.085946 -0.32459
1055.0546875 0.225423 -0.20696 -0.432383
1056.01953125 0.219711 -0.360046 -0.579757
1057.03125 0.8841990000000001 -0.045801 -0.93
1058.0 0.85861 -0.17 -1.02861
1058.921875 0.798786 -0.041163 -0.839949
1059.85546875 0.869936 0.279957 -0.589979
1060.765625 0.902719 0.283337 -0.619382
1061.65234375 0.917736 0.078773 -0.838963
1062.6015625 0.930185 0.12328 -0.806905
1063.59765625 0.874922 0.24 -0.634922
1064.546875 0.9038080000000001 0.278837 -0.624971
1065.51953125 1.033509 0.439933 -0.593576
1066.44140625 0.83986 0.229947 -0.609913
1067.390625 1.019706 0.282386 -0.73732
1068.34765625 0.9456330000000001 0.064046 -0.881587
1069.2890625 0.994542 0.069555 -0.924987
1070.30078125 0.734464 -0.405424 -1.139888
1071.17578125 1.010405 -0.297242 -1.307647
1072.08203125 0.8464230000000001 -0.268503 -1.114926
1072.96875 0.814326 0.034609 -0.779717
1073.9296875 0.930858 0.448032 -0.482826
1074.8359375 1.0386039999999999 0.569054 -0.46955
1075.80859375 0.986332 0.449656 -0.536676
1076.7578125 1.068564 -0.041119 -1.109683
1077.61328125 0.906684 0.053894 -0.85279
1078.4609375 1.0172539999999999 0.422305 -0.594949
1079.359375 1.0097269999999998 0.534727 -0.475
1080.26171875 1.16037 0.442331 -0.718039
1081.13671875 0.740231 0.052723 -0.687508
1082.02734375 0.868093 0.178093 -0.69
1082.97265625 1.045984 0.32 -0.725984
1083.83984375 0.933449 0.30356 -0.629889
1084.734375 1.136879 0.333453 -0.803426
1085.64453125 1.03031 0.239993 -0.790317
1086.609375 1.135904 0.247396 -0.888508
1087.61328125 0.977176 0.303378 -0.673798
1088.5546875 0.908654 0.236702 -0.671952
1089.484375 0.978829 0.060179 -0.91865
1090.3984375 1.165316 0.263292 -0.902024
1091.32421875 1.246307 -0.027791 -1.274098
1091.91015625 1.7801989999999999 -0.034448 -1.814647
1093.08203125 0.876685 0.197284 -0.679401
1093.99609375 1.0948120000000001 0.249957 -0.844855
1094.84765625 1.081275 0.319263 -0.762012
1095.66015625 0.9523619999999999 0.194509 -0.757853
1096.5390625 1.111548 0.284977 -0.826571
1097.3671875 0.9877480000000001 0.308644 -0.679104
1098.21484375 1.104826 0.280525 -0.824301
1099.09375 0.98314 0.232266 -0.750874
1099.96484375 1.026564 0.245 -0.781564
1100.875 1.069339 0.28 -0.789339
1101.71875 1.103125 0.398125 -0.705
1102.55078125 1.15402 0.488451 -0.665569
1103.43359375 1.0792220000000001 0.33 -0.749222
1104.33203125 0.977266 0.297266 -0.68
1105.28125 1.03728 0.308814 -0.728466
1106.23046875 0.922879 0.229981 -0.692898
1107.19921875 1.128276 0.46883 -0.659446
1108.11328125 1.057714 0.404387 -0.653327
1108.96875 1.062539 0.282812 -0.779727
1109.9140625 1.055348 0.420468 -0.63488
1110.8671875 1.111384 0.455 -0.656384
1111.76171875 1.039716 0.45 -0.589716
1112.73828125 1.019919 0.28 -0.739919
1113.7109375 1.181425 0.249886 -0.931539
1114.59765625 1.100397 0.274849 -0.825548
1115.5703125 1.041468 0.226521 -0.814947
1116.578125 1.008623 0.184707 -0.823916
1117.6015625 1.2028320000000001 0.403774 -0.799058
1118.55078125 1.209387 0.489523 -0.719864
1119.51171875 1.218707 0.528783 -0.689924
1120.42578125 1.06538 0.433451 -0.631929
1121.39453125 0.9811000000000001 0.339968 -0.641132
1122.34765625 0.9661630000000001 0.281218 -0.684945
1123.375 0.9239139999999999 0.18 -0.743914
1124.39453125 0.99342 0.239954 -0.753466
1125.30859375 1.101024 0.304806 -0.796218
1126.2109375 1.079819 0.439819 -0.64
1127.1484375 1.155396 0.473177 -0.682219
1128.078125 1.120992 0.599297 -0.521695
1129.328125 0.969239 0.375 -0.594239
1130.359375 1.134573 0.423323 -0.71125
1131.3671875 1.09397 0.44397 -0.65
1132.3125 1.046777 0.487014 -0.559763
1133.66796875 1.029206 0.162734 -0.866472
1134.80859375 1.046441 0.251479 -0.794962
1135.85546875 0.993191 0.209971 -0.78322
1136.890625 1.0503179999999999 0.258521 -0.791797
1137.82421875 1.1411769999999999 0.017175 -1.124002
1138.7265625 1.044155 0.119243 -0.924912
1139.6796875 1.028429 0.378568 -0.649861
1140.7734375 1.168328 0.393953 -0.774375
1141.7890625 0.937019 0.209944 -0.727075
1143.0234375 0.977535 0.315 -0.662535
1143.97265625 0.984719 0.365 -0.619719
1144.97265625 1.113531 0.218531 -0.895
1145.95703125 1.088735 0.473735 -0.615
1147.0546875 1.01472 0.639873 -0.374847
1148.65234375 1.134809 0.639809 -0.495
1149.828125 0.9883630000000001 0.439734 -0.548629
1150.9921875 1.1285370000000001 0.444187 -0.68435
1152.0625 0.9812369999999999 0.33125 -0.649987
1153.1484375 1.006772 0.400191 -0.606581
1154.21875 1.03809 0.359609 -0.678481
1155.19140625 1.115144 0.389708 -0.725436
1156.1875 1.044806 0.289844 -0.754962
1157.40625 1.123551 0.43498 -0.688571
1158.36328125 1.184355 0.224355 -0.96
1159.4375 1.002038 0.403824 -0.598214
1160.6875 0.883082 -0.67 -1.553082
1161.62890625 0.978154 0.644099 -0.334055
1162.65625 0.831459 0.169271 -0.662188
1163.7421875 0.7444599999999999 -0.005461 -0.749921
1164.82421875 0.8461700000000001 0.211849 -0.634321
1165.94140625 0.9422570000000001 0.254234 -0.688023
1167.0234375 0.765 0.38 -0.385
1168.06640625 1.0097330000000002 1.11 0.100267
1169.0078125 1.048133 1.193133 0.145
1170.109375 1.13486 0.285 -0.84986
1171.2578125 1.0396830000000001 0.877133 -0.16255
1172.625 1.102188 0.44 -0.662188
1173.6328125 1.0256830000000001 0.087803 -0.93788
1174.73828125 1.0894059999999999 0.134406 -0.955
1175.828125 1.0 0.065 -0.935
1176.97265625 1.130431 0.199826 -0.930605
1178.0546875 1.0601639999999999 0.126267 -0.933897
1179.13671875 1.123113 0.168802 -0.954311
1180.13671875 1.1259190000000001 0.219723 -0.906196
1181.19140625 1.062704 0.159779 -0.902925
1182.265625 1.217547 0.287884 -0.929663
1183.3515625 1.0975219999999999 0.272607 -0.824915
1184.5859375 1.213373 0.394943 -0.81843
1186.25390625 1.084969 0.458647 -0.626322
1187.26953125 1.1645 0.759947 -0.404553
1188.3984375 1.119226 0.38 -0.739226
1189.5625 1.25241 0.043611 -1.208799
1190.68359375 1.0836329999999998 0.33924 -0.744393
1191.734375 1.0915400000000002 0.316902 -0.774638
0.0 1.4700000000000002 -1.0 -2.47
1193.80078125 1.051884 0.907126 -0.144758
1194.9375 1.205 0.855 -0.35
1195.97265625 1.102497 0.694041 -0.408456
1197.0859375 1.0867719999999998 0.389949 -0.696823
1198.59765625 1.195781 0.149664 -1.046117
1199.90234375 1.066278 0.209481 -0.856797
1201.125 1.139444 0.16 -0.979444
1202.22265625 1.078962 0.143962 -0.935
1203.2734375 1.086889 0.480382 -0.606507
1204.34765625 1.261463 0.593584 -0.667879
1205.3359375 1.154826 0.464826 -0.69
1206.37890625 1.131374 0.325838 -0.805536
1207.453125 1.1600000000000001 0.395 -0.765
1208.546875 1.184348 0.439783 -0.744565
1210.16015625 1.305255 0.443629 -0.861626
1211.26953125 1.1312259999999998 0.554986 -0.57624
1212.41796875 1.15821 0.543735 -0.614475
1213.54296875 1.130715 0.331581 -0.799134
1214.66796875 1.128144 0.348271 -0.779873
1215.70703125 1.102731 0.336847 -0.765884
1216.68359375 0.924625 0.074077 -0.850548
1218.73046875 0.449319 0.104964 -0.344355
1219.7578125 0.7195419999999999 1.759753 1.040211
1220.90234375 0.7917099999999999 0.979022 0.187312
1222.125 0.21528399999999998 0.5 0.284716
1223.34375 0.647447 0.097461 -0.549986
1224.51953125 0.16321999999999998 -0.30003 -0.46325
1225.64453125 0.039992999999999945 -0.805007 -0.845
1226.84765625 0.7061600000000001 -0.381262 -1.087422
1227.77734375 0.09788399999999997 -0.512614 -0.610498
1228.91796875 0.72967 -0.613753 -1.343423
1229.9453125 0.699377 -0.180623 -0.88
1230.85546875 0.04892099999999999 -0.420025 -0.468946
1231.90625 0.10640100000000002 -0.234875 -0.341276
1232.91015625 0.14198699999999986 -0.976191 -1.118178
1234.046875 0.744962 -0.915193 -1.660155
1234.94140625 0.302836 0.219867 -0.082969
1235.93359375 0.68272 0.44493 -0.23779
1237.015625 0.728491 0.269583 -0.458908
1238.23828125 0.662164 0.157248 -0.504916
1239.16796875 0.18479 -0.07021 -0.255
1240.26171875 0.749347 -0.095 -0.844347
1241.16015625 0.808262 0.083694 -0.724568
1242.1484375 0.8835310000000001 -0.010153 -0.893684
1243.2578125 0.760353 0.041245 -0.719108
1244.546875 0.859454 0.099454 -0.76
1245.5 0.327942 0.085 -0.242942
1246.48046875 0.5303370000000001 0.40993 -0.120407
1247.50390625 0.8156640000000001 0.73372 -0.081944
1248.51953125 0.844158 0.399952 -0.444206
1249.5546875 0.8598529999999999 -0.179436 -1.039289
1250.5625 0.8085660000000001 -0.263477 -1.072043
1251.5234375 0.683832 -0.476728 -1.16056
1252.57421875 0.7342980000000001 -0.29565 -1.029948
1253.51953125 0.7466119999999999 -0.990107 -1.736719
0.0 0.24410500000000002 -1.0 -1.244105
1255.41015625 0.7610399999999999 0.392267 -0.368773
1256.41015625 0.986766 1.026766 0.04
1257.35546875 1.09997 1.114976 0.015006
1258.27734375 1.2619609999999999 0.97 -0.291961
1259.20703125 1.287506 0.889132 -0.398374
1260.15234375 1.137873 0.614041 -0.523832
1261.13671875 1.0584 0.398451 -0.659949
1262.12109375 1.224866 0.505 -0.719866
1263.04296875 0.98654 0.48159 -0.50495
1263.9609375 1.023991 0.539385 -0.484606
1264.91015625 1.1204610000000002 0.385861 -0.7346
1265.84375 1.054204 0.157358 -0.896846
1266.7890625 0.9047440000000001 -0.030256 -0.935
1267.8046875 1.168616 0.223158 -0.945458
1268.7265625 1.005695 0.182412 -0.823283
1269.62890625 0.9686619999999999 0.339011 -0.629651
1270.24609375 1.908833 0.121055 -1.787778
1271.47265625 1.004961 0.48072 -0.524241
1272.45703125 1.0146600000000001 0.280936 -0.733724
1273.44921875 1.18874 0.303302 -0.885438
1274.4140625 1.0146950000000001 0.199863 -0.814832
1275.3359375 1.06792 0.151074 -0.916846
1276.26171875 1.213663 0.342621 -0.871042
1277.1875 1.076609 0.41875 -0.657859
1278.16015625 1.333424 0.413474 -0.91995
1279.16015625 1.329472 0.29 -1.039472
1280.12109375 1.145051 0.38052 -0.764531
1281.16015625 1.417813 0.645 -0.772813
1282.06640625 1.273665 0.579708 -0.693957
1283.00390625 1.082279 0.754197 -0.328082
1284.00390625 1.292622 0.822993 -0.469629
1284.97265625 1.24079 0.549673 -0.691117
1285.90625 1.157821 0.328535 -0.829286
1286.87890625 1.19245 0.178127 -1.014323
1287.8125 1.251992 0.16 -1.091992
1288.69921875 1.341772 0.33149 -1.010282
1289.61328125 1.344524 0.479667 -0.864857
1290.58203125 1.150633 0.318908 -0.831725
1291.56640625 1.3436029999999999 0.534951 -0.808652
1292.49609375 1.126214 0.485 -0.641214
1293.44140625 1.188866 0.485 -0.703866
1294.38671875 1.032543 0.278486 -0.754057
1295.26171875 1.007716 0.223691 -0.784025
1296.22265625 1.110967 0.279855 -0.831112
1297.2265625 1.2297639999999999 0.237506 -0.992258
1298.1484375 1.044701 0.184216 -0.860485
1299.03515625 1.2509409999999999 0.212065 -1.038876
1299.9296875 1.203917 0.137065 -1.066852
1300.7734375 1.001712 -0.036017 -1.037729
1301.71875 1.1988400000000001 0.344773 -0.854067
1302.6171875 1.128071 0.708251 -0.41982
1303.5859375 0.661208 0.61988 -0.041328
1304.546875 0.7207270000000001 0.554224 -0.166503
1305.4765625 0.924649 0.34013 -0.584519
1306.41796875 1.170676 0.043258 -1.127418
1307.34765625 1.282564 0.072564 -1.21
1308.2890625 1.2740200000000002 0.144373 -1.129647
1309.2109375 1.231081 0.365422 -0.865659
1310.15625 1.274216 0.608761 -0.665455
1311.07421875 1.3666019999999999 0.639492 -0.72711
1311.92578125 1.2095259999999999 0.518381 -0.691145
1312.78515625 1.344929 0.595969 -0.74896
1313.66015625 1.672248 0.809904 -0.862344
1314.5703125 1.330486 1.175898 -0.154588
1315.45703125 1.232148 0.853202 -0.378946
1316.328125 1.212102 0.236797 -0.975305
1317.23828125 1.073966 0.2 -0.873966
1318.11328125 1.006069 0.249698 -0.756371
1318.98046875 0.921242 0.29499 -0.626252
1319.890625 1.024976 0.258092 -0.766884
1320.828125 1.075045 0.261578 -0.813467
1321.76953125 1.011625 0.209973 -0.801652
1322.6796875 1.183566 0.22364 -0.959926
1323.56640625 1.1195780000000002 0.29493 -0.824648
1324.453125 1.1283860000000001 0.213459 -0.914927
1325.31640625 1.268771 0.354766 -0.914005
1326.20703125 1.175731 0.288202 -0.887529
1327.1640625 1.118409 0.319464 -0.798945
1328.14453125 1.17816 0.444959 -0.733201
1329.0703125 1.138448 0.56116 -0.577288
1329.9453125 1.144343 0.54 -0.604343
1330.90234375 1.189598 0.639775 -0.549823
1331.796875 1.2888229999999998 0.634134 -0.654689
1332.7265625 1.182562 0.275 -0.907562
1333.73046875 1.1453499999999999 0.139865 -1.005485
1334.6953125 1.210205 0.260898 -0.949307
1335.65625 1.208437 0.388437 -0.82
1336.53515625 1.111369 0.619254 -0.492115
1337.515625 1.3425449999999999 0.781309 -0.561236
1338.4453125 1.260018 0.582546 -0.677472
1339.3828125 1.202311 0.354187 -0.848124
1340.375 1.246012 0.245 -1.001012
1341.3125 1.438628 0.370625 -1.068003
1342.1875 1.1360130000000002 0.208542 -0.927471
1343.08203125 1.181987 0.255391 -0.926596
1344.03515625 1.329053 0.394859 -0.934194
1344.9609375 1.156386 0.174564 -0.981822
1345.8984375 1.198035 0.288505 -0.90953
1346.828125 1.367246 0.491035 -0.876211
1347.7265625 1.18614 0.362727 -0.823413
1348.62890625 1.14706 0.37206 -0.775
1349.5234375 1.169237 0.471045 -0.698192
1350.47265625 1.042392 0.293875 -0.748517
1351.44140625 0.963684 0.145 -0.818684
1352.37890625 1.171427 0.276642 -0.894785
1353.28125 1.1126559999999999 0.292656 -0.82
1354.20703125 1.080729 0.187927 -0.892802
1355.140625 1.243214 0.373301 -0.869913
1356.05859375 1.2195369999999999 0.495637 -0.7239
1356.99609375 0.737603 0.588979 -0.148624
1357.9921875 0.761728 0.622799 -0.138929
1358.921875 1.393685 0.419256 -0.974429
1359.8984375 1.229286 0.01 -1.219286
1360.87109375 1.3309790000000001 0.16328 -1.167699
1361.84765625 1.4231269999999998 0.168127 -1.255
1362.7578125 1.223855 0.28777 -0.936085
1363.4140625 1.489037 -0.083283 -1.57232
1364.7890625 1.044859 0.294945 -0.749914
1365.69140625 1.213126 0.428788 -0.784338
1366.58203125 1.311912 0.480136 -0.831776
1367.47265625 1.2246679999999999 0.439863 -0.784805
1368.359375 1.275655 0.445625 -0.83003
1369.2890625 1.309161 0.455112 -0.854049
1370.22265625 1.254969 0.527619 -0.72735
1371.10546875 1.208351 0.599948 -0.608403
1371.953125 1.367403 0.742631 -0.624772
1372.77734375 1.270125 0.785 -0.485125
1373.64453125 1.223102 0.58 -0.643102
1374.59375 1.3264369999999999 0.366437 -0.96
1375.515625 0.9619260000000001 0.349077 -0.612849
1376.44921875 1.015307 0.256563 -0.758744
1377.37890625 1.1671209999999999 0.393107 -0.774014
1378.2578125 1.327773 0.495 -0.832773
1379.10546875 1.192516 0.394956 -0.79756
1379.99609375 1.363918 0.314052 -1.049866
1380.93359375 1.2276690000000001 0.65993 -0.567739
1381.88671875 1.275733 0.835 -0.440733
1382.8203125 1.37736 0.787372 -0.589988
1383.71875 1.179205 0.674205 -0.505
1384.60546875 1.1713330000000002 0.440161 -0.731172
1385.5 1.115605 0.325 -0.790605
1386.40234375 1.003554 0.263746 -0.739808
1387.33203125 1.04151 0.178324 -0.863186
1388.29296875 1.259202 0.258324 -1.000878
1389.1875 1.164564 0.3615 -0.803064
1390.04296875 1.246683 0.308324 -0.938359
1390.94140625 1.2126519999999998 0.584683 -0.627969
1391.80859375 1.08625 0.885 -0.20125
1392.7578125 1.058106 0.70609 -0.352016
1393.703125 0.9737180000000001 0.504707 -0.469011
1394.671875 1.228374 0.309707 -0.918667
1395.609375 1.373491 0.268459 -1.105032
1396.46875 1.235485 0.613594 -0.621891
1397.4375 1.1592120000000001 0.56 -0.599212
1398.41796875 1.365048 0.439076 -0.925972
1399.3515625 1.207544 0.592009 -0.615535
1400.3515625 1.162018 0.620191 -0.541827
1401.32421875 1.289305 1.318245 0.02894
1402.22265625 1.124844 0.664844 -0.46
1403.12109375 1.157589 0.157879 -0.99971
1404.14453125 1.352799 0.360234 -0.992565
1405.1015625 1.215975 0.514364 -0.701611
1406.0390625 1.1143999999999998 0.684927 -0.429473
1407.03515625 1.151633 0.674509 -0.477124
1407.95703125 1.333264 0.766913 -0.566351
1408.85546875 1.1252119999999999 0.525 -0.600212
1409.859375 1.101309 0.421309 -0.68
1410.88671875 1.31312 0.381935 -0.931185
1411.85546875 1.289022 0.345014 -0.944008
1412.8203125 1.020377 -0.0106 -1.030977
1413.75390625 1.165313 0.105822 -1.059491
1414.703125 1.347474 0.35 -0.997474
1415.609375 1.162212 0.315 -0.847212
1416.20703125 1.330781 -0.142266 -1.473047
1417.5546875 1.08535 0.306011 -0.779339
1418.55859375 1.309305 0.546017 -0.763288
1419.41796875 1.149534 0.472734 -0.6768
1420.3515625 1.2568670000000002 0.56 -0.696867
1421.2890625 1.342187 0.565662 -0.776525
1422.1875 1.1926 0.4015 -0.7911
1423.203125 1.297822 0.529505 -0.768317
1424.2109375 1.2471809999999999 0.549924 -0.697257
1425.12109375 1.120755 0.507521 -0.613234
1426.1015625 1.3329170000000001 0.525 -0.807917
1426.98828125 1.221593 0.419636 -0.801957
1428.0390625 1.165458 0.394944 -0.770514
1429.06640625 1.314702 0.494877 -0.819825
1430.0625 1.21418 0.391786 -0.822394
1431.078125 1.138619 0.059542 -1.079077
1432.01171875 1.225765 0.274643 -0.951122
1432.984375 1.3173249999999999 0.601016 -0.716309
1433.8984375 1.2568730000000001 0.529706 -0.727167
1434.97265625 1.139016 0.429016 -0.71
1436.0078125 1.254502 0.49 -0.764502
1436.9765625 1.215023 0.445897 -0.769126
1437.92578125 1.104662 0.313558 -0.791104
1438.9609375 1.319059 0.419975 -0.899084
1439.875 1.215582 0.415 -0.800582
1440.9296875 1.096608 0.371608 -0.725
1441.90234375 1.261127 0.53896 -0.722167
1442.85546875 1.2923719999999999 0.379946 -0.912426
1443.78125 1.058675 0.389063 -0.669612
1444.79296875 1.161866 0.492944 -0.668922
1445.68359375 1.154043 0.524179 -0.629864
1446.6328125 1.1508310000000002 0.414767 -0.736064
1447.73828125 1.32986 0.51 -0.81986
1448.65625 1.180618 0.381987 -0.798631
1449.6640625 1.237358 0.434926 -0.802432
1450.6484375 1.2173129999999999 0.49 -0.727313
1451.56640625 1.123737 0.399943 -0.723794
1452.68359375 1.175545 0.379876 -0.795669
1453.7734375 1.435593 0.583083 -0.85251
1454.76953125 1.114935 0.379935 -0.735
1455.8359375 1.15546 0.434962 -0.720498
1456.83984375 1.32821 0.619357 -0.708853
1457.78125 1.211102 0.438219 -0.772883
1458.80859375 1.35761 0.603974 -0.753636
1459.7734375 1.1621730000000001 0.513474 -0.648699
1460.8359375 1.2878319999999999 0.605 -0.682832
1461.7578125 1.227794 0.539506 -0.688288
1462.27734375 1.418622 0.853993 -0.564629
1463.7265625 1.285595 0.50665 -0.778945
1464.76171875 1.274668 0.453583 -0.821085
1465.703125 1.277404 0.406961 -0.870443
1466.7421875 1.154525 0.35 -0.804525
1467.359375 1.1349960000000001 0.423773 -0.711223
1468.7734375 1.3045749999999998 0.532847 -0.771728
1469.3359375 1.347057 0.524873 -0.822184
1470.4765625 1.117195 0.355913 -0.761282
1471.56640625 1.358082 0.574848 -0.783234
1472.50390625 1.222096 0.468033 -0.754063
1473.53125 1.16086 0.361037 -0.799823
1474.515625 1.346861 0.465749 -0.881112
1475.40625 1.156444 0.326618 -0.829826
1476.44140625 1.265042 0.429496 -0.835546
1477.49609375 1.237988 0.468127 -0.769861
1478.45703125 1.230815 0.47514 -0.755675
1479.4765625 1.230626 0.738923 -0.491703
1480.44140625 1.1062720000000001 0.245 -0.861272
1481.4609375 1.074719 0.219719 -0.855
1482.5 1.217711 0.335 -0.882711
1483.53515625 1.1999330000000001 0.48527 -0.714663
1484.5234375 1.082214 0.363505 -0.718709
1485.578125 1.1618650000000001 0.401865 -0.76
1486.578125 1.243586 0.454914 -0.788672
1487.5 1.21 0.33 -0.88
1488.55859375 1.266766 0.42 -0.846766
1489.5390625 1.249954 0.444954 -0.805
1490.5234375 1.12196 0.342009 -0.779951
1491.5703125 1.269364 0.494437 -0.774927
1492.453125 1.169152 0.37923 -0.789922
1493.47265625 1.211491 0.379849 -0.831642
1494.5 1.294817 0.45 -0.844817
1495.46875 1.20957 0.47457 -0.735
1496.53515625 1.0392540000000001 0.299254 -0.74
1497.546875 1.2836569999999998 0.509643 -0.774014
1498.4609375 1.243794 0.424719 -0.819075
1499.41796875 1.123682 0.366798 -0.756884
1500.375 1.329542 0.545 -0.784542
1501.3828125 1.206455 0.469521 -0.736934
1502.4375 1.135141 0.451667 -0.683474
1503.3984375 1.333078 0.599008 -0.73407
1504.33203125 1.1848480000000001 0.516869 -0.667979
1505.328125 1.214569 0.525 -0.689569
1506.328125 1.319641 0.643078 -0.676563
1507.30078125 1.3876339999999998 0.668839 -0.718795
1508.30078125 1.1610010000000002 0.515 -0.646001
1509.359375 1.351325 0.54969 -0.801635
1510.27734375 1.195883 0.494672 -0.701211
1511.36328125 1.293157 0.493563 -0.799594
1512.37109375 1.212734 0.415 -0.797734
1513.4296875 1.134018 0.347531 -0.786487
1514.484375 1.3926640000000001 0.369242 -1.023422
1515.41015625 1.150704 0.317231 -0.833473
1516.43359375 1.157233 0.279697 -0.877536
1517.41015625 1.194606 0.305 -0.889606
1518.53125 1.255118 0.438003 -0.817115
1519.4921875 1.140849 0.504804 -0.636045
1520.5859375 1.420608 0.604976 -0.815632
1521.53125 1.1556579999999999 0.365 -0.790658
1522.54296875 1.3375430000000001 0.583442 -0.754101
1523.47265625 1.160874 0.45 -0.710874
1524.64453125 1.14907 0.414993 -0.734077
1525.75 1.165 0.435 -0.73
1526.82421875 1.203829 0.453865 -0.749964
1527.859375 1.161303 0.346309 -0.814994
1528.8984375 1.380606 0.542655 -0.837951
1529.828125 1.191922 0.359876 -0.832046
1530.98046875 1.117378 0.364967 -0.752411
1532.05859375 1.308834 0.484116 -0.824718
1533.0234375 1.19032 0.323072 -0.867248
1534.14453125 1.374779 0.459994 -0.914785
1535.05859375 1.158993 0.484531 -0.674462
1536.3515625 0.947584 0.155 -0.792584
1537.67578125 1.0709490000000002 0.295374 -0.775575
1538.78125 1.01723 0.043008 -0.974222
1539.8125 1.1367990000000001 0.1515 -0.985299
1540.828125 1.099876 0.309876 -0.79
1541.8828125 1.234979 0.468151 -0.766828
1542.91796875 1.1353309999999999 0.365468 -0.769863
1544.0234375 1.098551 0.34387 -0.754681
1545.03515625 1.223353 0.353353 -0.87
1546.00390625 1.1230980000000002 0.28 -0.843098
1547.21875 1.258125 0.438125 -0.82
1548.484375 1.108336 0.328857 -0.779479
1549.68359375 1.2807629999999999 0.464773 -0.81599
1550.796875 1.158975 0.373975 -0.785
1551.85546875 1.15311 0.399923 -0.753187
1552.9296875 1.356331 0.561521 -0.79481
1553.8828125 1.158178 0.473645 -0.684533
1555.09375 1.104501 0.375781 -0.72872
1556.21875 1.273275 0.511719 -0.761556
1557.30078125 1.2241710000000001 0.385161 -0.83901
1558.3203125 1.184593 0.428104 -0.756489
1559.3359375 1.21597 0.420422 -0.795548
1560.3515625 1.15547 0.366826 -0.788644
1561.5546875 1.1447370000000001 0.35 -0.794737
1562.66015625 1.137753 0.383719 -0.754034
1563.75 1.291692 0.555 -0.736692
1564.76953125 1.188704 0.46999 -0.718714
1565.81640625 1.18453 0.420765 -0.763765
1566.8671875 1.320251 0.47942 -0.840831
1567.9296875 1.1746349999999999 0.365 -0.809635
1569.01171875 1.154603 0.394752 -0.759851
1570.03515625 1.262557 0.480107 -0.78245
1571.03515625 1.191659 0.459535 -0.732124
1572.05078125 1.1552419999999999 0.418381 -0.736861
1573.078125 1.3835439999999999 0.464902 -0.918642
1574.0625 1.105385 0.280385 -0.825
1575.05859375 1.0326739999999999 0.379947 -0.652727
1576.03125 1.0376370000000001 0.351719 -0.685918
1577.0546875 1.244064 0.524344 -0.71972
1578.046875 1.064048 0.331035 -0.733013
1579.26171875 0.991854 0.264723 -0.727131
1580.4609375 1.208996 0.435 -0.773996
1581.4609375 1.151837 0.355 -0.796837
1582.53125 1.111927 0.334654 -0.777273
1583.55859375 1.263877 0.47 -0.793877
1584.5390625 1.174557 0.295 -0.879557
1585.61328125 1.303412 0.379308 -0.924104
1586.6015625 1.457843 0.519019 -0.938824
1587.52734375 1.245249 0.416301 -0.828948
1588.6328125 1.4148589999999999 0.645 -0.769859
1589.546875 1.268846 0.519888 -0.748958
1590.6796875 1.363017 0.41307 -0.949947
1591.734375 1.0846149999999999 0.279653 -0.804962
1592.64453125 1.094336 0.37 -0.724336
1593.65625 0.9838319999999999 0.355 -0.628832
1594.6015625 1.152189 0.47063 -0.681559
1595.5234375 1.0378500000000002 0.359121 -0.678729
1596.5703125 1.024119 0.296702 -0.727417
1597.703125 1.12268 0.324766 -0.797914
1598.6484375 1.026218 0.227726 -0.798492
1599.7109375 0.994578 0.240544 -0.754034
1600.73828125 1.079988 0.35 -0.729988
1601.6875 0.9915 0.2015 -0.79
1602.8359375 1.191295 0.374873 -0.816422
1603.8359375 1.2106350000000001 0.210056 -1.000579
1604.95703125 1.39811 0.64311 -0.755
1605.84765625 1.2708599999999999 0.531301 -0.739559
1606.87109375 1.34246 0.481601 -0.860859
1607.8828125 1.210191 0.354187 -0.856004
1608.8359375 1.119805 0.264805 -0.855
1609.94921875 1.333084 0.503866 -0.829218
1610.88671875 1.205039 0.343976 -0.861063
1611.87109375 1.166427 0.327006 -0.839421
1612.83203125 1.395878 0.586086 -0.809792
1613.38671875 1.081685 -0.358201 -1.439886
1614.71875 1.32324 0.274205 -1.049035
1615.68359375 1.365426 0.355817 -1.009609
1616.57421875 1.08517 0.878611 -0.206559
1617.56640625 1.0584339999999999 0.738153 -0.320281
1618.50390625 1.3176139999999998 0.685329 -0.632285
1619.3984375 1.119535 0.45 -0.669535
1620.33984375 1.048141 0.418043 -0.630098
1621.4609375 1.1558199999999998 0.434905 -0.720915
1622.40625 1.282936 0.523047 -0.759889
1623.30859375 1.044765 0.35488 -0.689885
1624.359375 1.031155 0.392681 -0.638474
1625.26171875 1.2601179999999998 0.322715 -0.937403
1626.203125 1.048613 0.02457 -1.024043
1627.33203125 1.206885 0.098782 -1.108103
1628.37890625 1.31454 0.247157 -1.067383
1629.28125 1.1508180000000001 0.321133 -0.829685
1630.34375 1.111607 0.437969 -0.673638
1631.34765625 1.209969 0.686901 -0.523068
1632.2578125 1.083328 0.628328 -0.455
1633.37890625 1.021244 0.43639 -0.584854
1634.359375 1.1379380000000001 0.344922 -0.793016
1635.37890625 1.178887 0.273423 -0.905464
1636.2421875 1.16 0.16 -1.0
1637.27734375 1.2605 0.53 -0.7305
1638.19140625 1.12997 0.449139 -0.680831
1639.24609375 1.184836 0.47893 -0.705906
1640.21484375 1.246842 0.562733 -0.684109
1641.17578125 1.023245 0.332126 -0.691119
1642.1484375 1.121207 0.393072 -0.728135
1643.0390625 1.19255 0.53 -0.66255
1643.98046875 1.049892 0.379954 -0.669938
1645.0625 1.257826 0.443125 -0.814701
1646.01171875 1.059795 0.329258 -0.730537
1647.0546875 1.183376 0.458128 -0.725248
1647.97265625 1.09902 0.65902 -0.44
1648.953125 1.1304239999999999 0.434895 -0.695529
1649.94140625 1.093589 0.373589 -0.72
1650.90625 1.0994410000000001 0.239609 -0.859832
1651.98828125 1.289709 0.438674 -0.851035
1652.91015625 1.041579 0.093673 -0.947906
1655.71875 0.25910700000000003 0.494107 0.235
1656.75390625 0.789902 0.910656 0.120754
1657.734375 0.361051 0.907326 0.546275
1658.7265625 0.669749 0.94342 0.273671
1659.6640625 0.6868829999999999 0.378654 -0.308229
1660.609375 0.9576979999999999 0.253343 -0.704355
1661.515625 1.311137 -0.808863 -2.12
0.0 0.2777339999999999 -1.0 -1.277734
1663.5703125 0.19491899999999995 -0.773429 -0.968348
1664.73828125 0.459422 0.374574 -0.084848
1665.5859375 0.14968399999999998 0.149832 1.48E-4
1666.5859375 0.12474999999999997 0.38975 0.265
1667.57421875 0.15646099999999996 0.475 0.318539
1667.78515625 0.6923499999999999 0.627477 -0.064873
1668.64453125 0.149766 -0.125019 -0.274785
1669.65234375 0.039725 0.089837 0.050112
1670.71484375 0.12493900000000002 -0.305 -0.429939
1671.65234375 0.170273 -0.302861 -0.473134
1672.6015625 0.16509000000000001 -0.078856 -0.243946
1673.60546875 0.11738199999999999 -0.090036 -0.207418
1674.65234375 0.11197300000000002 -0.176816 -0.288789
1675.66796875 0.09412300000000007 -0.65721 -0.751333
1676.6484375 0.11630999999999991 -0.614809 -0.731119
0.0 0.434121 -1.0 -1.434121
1678.53125 0.45849300000000004 -0.8081 -1.266593
1679.51171875 0.04805400000000004 -0.415998 -0.464052
1680.50390625 0.06734899999999999 -0.162006 -0.229355
1680.73828125 0.468808 -0.051705 -0.520513
1681.53125 0.07153700000000002 -0.124219 -0.195756
1682.5625 0.11718900000000002 -0.132321 -0.24951
1683.453125 0.066852 0.103141 0.036289
1684.40234375 0.132965 0.419325 0.28636
1685.3203125 0.14896 0.225 0.07604
1686.2890625 0.03978800000000002 -0.155212 -0.195
1687.265625 0.04866200000000004 -0.2375 -0.286162
1688.234375 0.148958 -0.154743 -0.303701
1688.4609375 0.65853 0.03853 -0.62
1689.1640625 0.17925200000000002 -0.220024 -0.399276
1690.01171875 0.12883099999999997 -0.335 -0.463831
1690.8828125 0.12621 -0.142839 -0.269049
1691.640625 0.204453 0.315 0.110547
1692.68359375 0.18026299999999998 -0.11426 -0.294523
1693.6171875 0.12364500000000006 -0.416355 -0.54
1694.53125 0.22753 -0.578571 -0.806101
1694.8046875 0.48896399999999995 -0.665 -1.153964
0.0 0.7236720000000001 -1.0 -1.723672
0.0 0.17407700000000004 -1.0 -1.174077
1696.6640625 0.2852260000000001 -0.520025 -0.805251
1697.1328125 0.09915400000000008 -0.69558 -0.794734
1697.36328125 0.5729769999999998 -0.525692 -1.098669
1698.015625 0.08116199999999996 -0.495 -0.576162
1698.234375 0.684036 -0.199883 -0.883919
1698.91796875 0.13614500000000002 -0.167734 -0.303879
1699.1484375 0.48863199999999996 -0.125 -0.613632
1699.81640625 0.24621400000000002 -0.110204 -0.356418
1700.01953125 0.5704739999999999 0.029978 -0.540496
1700.6796875 0.169403 -0.159305 -0.328708
1701.5546875 0.17456299999999997 -0.342733 -0.517296
1702.40625 0.28838 -0.211163 -0.499543
1703.19140625 0.13975300000000002 0.054753 -0.085
1704.0703125 0.14804799999999999 -0.145383 -0.293431
1704.9296875 0.190049 -0.139734 -0.329783
1705.16015625 1.014795 0.386111 -0.628684
1705.8125 0.148588 0.475518 0.32693
1706.66015625 0.20972699999999997 0.272093 0.062366
1707.4609375 0.06678100000000001 0.19 0.123219
1708.3359375 0.140379 0.165573 0.025194
1708.640625 0.962734 -0.043164 -1.005898
1708.8671875 0.05036200000000002 -0.952197 -1.002559
1709.15625 0.18543299999999996 -0.784567 -0.97
1709.98046875 0.08618700000000001 -0.265 -0.351187
1710.89453125 0.164051 -0.069734 -0.233785
1711.77734375 0.11848199999999999 0.09792 -0.020562
1712.64453125 0.264713 0.009941 -0.254772
1713.53125 0.121832 -0.180547 -0.302379
1713.765625 0.48484400000000005 -0.060156 -0.545
1714.4140625 0.08844099999999999 -0.43006 -0.518501
1715.265625 0.110124 -0.719821 -0.829945
1716.12890625 0.10860899999999996 -0.627436 -0.736045
1717.03125 0.09170199999999995 -0.901602 -0.993304
1717.921875 0.27702400000000005 -0.805098 -1.082122
0.0 0.674985 -1.0 -1.674985
1719.109375 2.06862 0.272822 -1.795798
1719.53125 0.24529799999999996 0.630898 0.3856
1720.109375 0.8385560000000001 0.680884 -0.157672
0.0 0.9372020000000001 -1.0 -1.937202
0.0 1.395 -1.0 -2.395
0.0 0.1742410000000001 -1.0 -1.174241
1722.76171875 0.10511500000000001 -0.255977 -0.361092
1723.61328125 0.07236200000000001 0.074023 0.001661
1724.421875 0.06568600000000002 0.581068 0.515382
1724.65234375 0.569413 0.854638 0.285225
1725.21875 0.14699700000000004 1.241438 1.094441
1725.515625 0.925988 1.777905 0.851917
1726.16796875 0.614385 1.635 1.020615
1726.39453125 0.6334219999999999 1.999672 1.36625
1726.75 0.32606500000000005 2.145 1.818935
1727.578125 0.13399800000000006 0.95957 0.825572
1728.39453125 0.08406699999999999 -0.069839 -0.153906
1729.203125 0.14711200000000002 -0.510112 -0.657224
1730.09375 0.20537699999999998 -0.379381 -0.584758
1730.92578125 0.09407100000000002 -0.262193 -0.356264
1731.66796875 0.108285 -0.042781 -0.151066
1731.90234375 0.416218 0.006218 -0.41
1732.515625 0.276474 -0.381846 -0.65832
1732.73046875 0.594071 -0.280006 -0.874077
1733.30078125 0.23995500000000003 -0.645045 -0.885
1734.14453125 0.05441399999999996 -0.835006 -0.88942
1734.9921875 0.08147599999999999 -0.705 -0.786476
1735.21875 0.5302539999999999 -0.527953 -1.058207
1735.859375 0.168686 -0.791097 -0.959783
1736.703125 0.1442000000000001 -0.92204 -1.06624
1737.484375 0.16546799999999995 -0.849526 -1.014994
1737.7265625 0.5447909999999999 -0.629255 -1.174046
1738.30859375 0.204986 -0.405 -0.609986
1739.07421875 0.12888899999999998 -0.27 -0.398889
1739.29296875 0.574267 -0.162586 -0.736853
1739.890625 0.142929 -0.115513 -0.258442
1740.2265625 0.307913 0.137369 -0.170544
1740.77734375 0.133148 -0.065 -0.198148
1741.6328125 0.22874999999999998 -0.026211 -0.254961
1741.8671875 1.1779950000000001 0.504053 -0.673942
1742.34765625 0.258134 0.045 -0.213134
1742.65234375 0.503248 -0.105896 -0.609144
1743.296875 0.06951200000000002 -0.338385 -0.407897
1744.18359375 0.827638 -0.041218 -0.868856
1744.39453125 0.8495389999999999 -0.019317 -0.868856
1744.94140625 0.337962 0.248014 -0.089948
1745.68359375 0.07361899999999999 0.104832 0.031213
1746.58203125 0.429641 0.408045 -0.021596
1747.41015625 0.13445800000000002 -0.201366 -0.335824
1748.234375 0.272112 0.237172 -0.03494
1749.10546875 0.15267699999999998 -0.100019 -0.252696
1749.93359375 0.23994299999999996 -0.230057 -0.47
1750.74609375 0.20317 0.208695 0.005525
1750.98046875 0.784665 0.379968 -0.404697
1751.58203125 0.096246 0.051246 -0.045
1752.43359375 0.09890700000000001 -0.105064 -0.203971
1753.3046875 0.135148 -0.204357 -0.339505
1753.9296875 0.6610189999999999 -0.033981 -0.695
1755.05078125 0.18950099999999992 -0.550452 -0.739953
1755.79296875 0.08117600000000003 -0.867266 -0.948442
1756.0234375 0.5004200000000001 -0.768856 -1.269276
1756.63671875 0.18078899999999998 -0.914233 -1.095022
1756.87109375 0.524504 -0.784344 -1.308848
1757.4765625 0.17823600000000006 -0.849067 -1.027303
1758.3515625 0.10723899999999997 -0.61239 -0.719629
1759.2109375 0.061548999999999965 -0.317205 -0.378754
1760.04296875 0.11582900000000002 -0.318668 -0.434497
1760.91796875 0.11669200000000002 -0.812975 -0.929667
1761.1484375 0.482753 -0.7 -1.182753
1761.73046875 0.129521 -0.645 -0.774521
1761.9609375 0.537679 -0.446453 -0.984132
1762.52734375 0.13295800000000002 -0.67545 -0.808408
1763.375 0.15996300000000002 -0.445 -0.604963
1764.21875 0.16156199999999998 -0.283438 -0.445
1765.09375 0.099701 0.083219 -0.016482
1765.328125 0.8213809999999999 0.38687 -0.434511
1765.96484375 0.05645700000000001 0.265 0.208543
1766.8203125 0.13374999999999998 0.338184 0.204434
1767.6640625 0.215548 0.309764 0.094216
1768.5 0.118899 0.11 -0.008899
1769.37109375 0.204189 0.045185 -0.159004
1770.23046875 0.10276000000000002 -0.12 -0.22276
1771.109375 0.10358800000000001 -0.267162 -0.37075
1771.34375 0.58039 -0.184219 -0.764609
1771.99609375 0.10586099999999998 -0.405435 -0.511296
1772.9140625 0.137971 -0.450243 -0.588214
1773.7265625 0.126849 -0.37178 -0.498629
1773.94140625 0.504782 -0.240484 -0.745266
1774.578125 0.139702 -0.305 -0.444702
1775.45703125 0.15879500000000002 -0.309191 -0.467986
1776.28515625 0.194295 -0.310014 -0.504309
1777.23046875 0.13406700000000005 -0.315032 -0.449099
1778.12890625 0.159609 -0.26 -0.419609
1778.98046875 0.14097299999999996 -0.250014 -0.390987
1779.8671875 0.300941 -0.204618 -0.505559
1780.7109375 0.16570799999999997 -0.288864 -0.454572
1781.58203125 0.10818799999999999 -0.111742 -0.21993
1782.51171875 0.1356099999999999 -0.971226 -1.106836
1783.5 0.12859700000000002 -0.345 -0.473597
1784.46875 0.16806200000000004 -0.506938 -0.675
1785.359375 0.24613400000000007 -0.694375 -0.940509
1786.26953125 0.15988500000000005 -0.985115 -1.145
1786.48828125 0.665512 -0.754387 -1.419899
1787.1796875 0.10953900000000005 -0.652609 -0.762148
1788.046875 0.17470699999999995 -0.420293 -0.595
1788.30859375 0.4262079999999999 -0.32374 -0.749948
1788.98046875 0.20612799999999998 -0.235022 -0.44115
1789.9453125 0.07432600000000002 -0.090317 -0.164643
1790.1640625 0.610409 0.126322 -0.484087
1790.828125 0.150433 0.17452 0.024087
1791.64453125 0.365904 0.059844 -0.30606
1792.49609375 0.20465899999999998 0.127599 -0.07706
1793.3515625 0.29949900000000007 0.984847 0.685348
1794.21484375 0.12662500000000004 0.384018 0.257393
1795.08984375 0.148716 -0.167828 -0.316544
1795.99609375 0.12607300000000005 -0.481797 -0.60787
1796.90625 0.206646 -0.540469 -0.747115
1797.80078125 0.15229199999999998 -0.56 -0.712292
1798.68359375 0.28316800000000003 -0.401495 -0.684663
1799.5625 0.20888899999999994 -0.366111 -0.575
1800.45703125 0.150391 -0.459609 -0.61
1801.3828125 0.15275899999999998 -0.343413 -0.496172
1802.27734375 0.13871699999999992 -0.366227 -0.504944
1803.18359375 0.251971 -0.241678 -0.493649
1804.02734375 0.37007399999999996 -0.131793 -0.501867
