20 
207 
579 
752 
1115 
1280 
1651 
1828 
2198 
2370 
2730 
2894 
3283 
3462 
3832 
4002 
4366 
4541 
4920 
5098 
5461 
5628 
5985 
6165 
6538 
6714 
7060 
7235 
7587 
7762 
8129 
8305 
8659 
8827 
9184 
9370 
9488 
9739 
9944 
10041 
10122 
10312 
10483 
10580 
10692 
10826 
10922 
11022 
11118 
11223 
11319 
11413 
11502 
11640 
11732 
11867 
11964 
12067 
12158 
12261 
12367 
12452 
12566 
12663 
12746 
12855 
12954 
13372 
13547 
13908 
14077 
14168 
14276 
14373 
14458 
14567 
14653 
14761 
14953 
15045 
15150 
15247 
15346 
15713 
15892 
16097 
16257 
16464 
16697 
16857 
17178 
17431 
17667 
17894 
18115 
18287 
18590 
18760 
19051 
19218 
19512 
19743 
19910 
20023 
20407 
20593 
20691 
20932 
21209 
21381 
21721 
21902 
22216 
22466 
22701 
22942 
23193 
23440 
23692 
23868 
24161 
24409 
24665 
24927 
25172 
25414 
25659 
25896 
26147 
26400 
26651 
26899 
27136 
27368 
27623 
27884 
28127 
28374 
28616 
28856 
29105 
29355 
29605 
29852 
30087 
30321 
30551 
30799 
31050 
31288 
31525 
31763 
31991 
32230 
32473 
32713 
32896 
33179 
33350 
33626 
33816 
33933 
34131 
34306 
34595 
34741 
35066 
35216 
35559 
35716 
36056 
36203 
36526 
36693 
37027 
37203 
37522 
37695 
38010 
38179 
38499 
38683 
39003 
39182 
39495 
39663 
39997 
40182 
40501 
40667 
40993 
41154 
41493 
41663 
42005 
42157 
42499 
42657 
43001 
43161 
43518 
43678 
44011 
44172 
44502 
44671 
45016 
45172 
45520 
45674 
46015 
46175 
46533 
46708 
47031 
47183 
47530 
47710 
48050 
48226 
48555 
48704 
49048 
49209 
49573 
49726 
50072 
50227 
50568 
50726 
51090 
51246 
51599 
51748 
52095 
52288 
52622 
52773 
53124 
53635 
53783 
54153 
54310 
54661 
54809 
55156 
55316 
55688 
55841 
56197 
56351 
56694 
56854 
57223 
57380 
57737 
57887 
58231 
58393 
58754 
58906 
59260 
59413 
59763 
59923 
60292 
60450 
60796 
60946 
61294 
61453 
61619 
61879 
62049 
62155 
62242 
62390 
62491 
62588 
62713 
62805 
62901 
63030 
63832 
63933 
64167 
64265 
64423 
64516 
64615 
64717 
64814 
64911 
65008 
65094 
65202 
65332 
65415 
65526 
65623 
65720 
65813 
65914 
66006 
66102 
66204 
66302 
66404 
66593 
66679 
66785 
67140 
67345 
67686 
67942 
68193 
68366 
68461 
68894 
69048 
69143 
69256 
69353 
69444 
69546 
69644 
69741 
69862 
69959 
70061 
70159 
70257 
70474 
70602 
70704 
70825 
70964 
71048 
71158 
71255 
71340 
71488 
71588 
71682 
71778 
71896 
72108 
72599 
72789 
73076 
73292 
73506 
73725 
73844 
73946 
74160 
74362 
74571 
74777 
74970 
75175 
75393 
75606 
75798 
76018 
76216 
76408 
76605 
76809 
77023 
77212 
77392 
77580 
77772 
77962 
78146 
78340 
78541 
78739 
78930 
79121 
79303 
79491 
79674 
79875 
80072 
80267 
80454 
80643 
80835 
81024 
81206 
81401 
81601 
81800 
81994 
82183 
82289 
82369 
82519 
82624 
82727 
82822 
82935 
83133 
83325 
83513 
83695 
83877 
83982 
84216 
84389 
84509 
84614 
84740 
84929 
85103 
85278 
85445 
85619 
85795 
85976 
86173 
86358 
86536 
86723 
86899 
87089 
87272 
87404 
87508 
87676 
87880 
88081 
88278 
88470 
88664 
88857 
89060 
89260 
89461 
89657 
89851 
90046 
90235 
90423 
90624 
90830 
91031 
91228 
91418 
91608 
91796 
91990 
92195 
92398 
92593 
92787 
92987 
93180 
93362 
93560 
93765 
93968 
94169 
94366 
94556 
94748 
94942 
95140 
95346 
95548 
95745 
95944 
96140 
96334 
96528 
96729 
96939 
97148 
97350 
97543 
97739 
97932 
98129 
98341 
98551 
98752 
98958 
99164 
99361 
99555 
99761 
99971 
100186 
100395 
100598 
100795 
100996 
101199 
101414 
101623 
101830 
102040 
102246 
102450 
102649 
102849 
103067 
103287 
103495 
103701 
103906 
104100 
104311 
104530 
104744 
104953 
105165 
105369 
105573 
105770 
105981 
106192 
106402 
106609 
106809 
107006 
107204 
107315 
107411 
107623 
107826 
108031 
108230 
108429 
108627 
108819 
109021 
109234 
109443 
109642 
109837 
110033 
110222 
110423 
110633 
110838 
111038 
111242 
111440 
111636 
111824 
112022 
112228 
112436 
112640 
112838 
113032 
113227 
113424 
113631 
113737 
113831 
114033 
114159 
114268 
114428 
114625 
114815 
115004 
115207 
115418 
115616 
115813 
116006 
116200 
116389 
116592 
116794 
116997 
117197 
117400 
117593 
117786 
117970 
118167 
118374 
118579 
118778 
118977 
119167 
119362 
119556 
119756 
119957 
120156 
120352 
120547 
120741 
120931 
121116 
121319 
121529 
121730 
121924 
122115 
122304 
122494 
122686 
122885 
123087 
123285 
123485 
123680 
123873 
124059 
124256 
124461 
124665 
124867 
125067 
125258 
125454 
125647 
125846 
126049 
126253 
126449 
126648 
126848 
127041 
127229 
127436 
127646 
127849 
128045 
128239 
128433 
128629 
128824 
129028 
129236 
129436 
129640 
129836 
130030 
130216 
130421 
130627 
130833 
131034 
131234 
131427 
131625 
131818 
132019 
132225 
132432 
132630 
132734 
132833 
133032 
133227 
133419 
133628 
133838 
134043 
134239 
134436 
134633 
134827 
135029 
135238 
135444 
135648 
135856 
136056 
136248 
136442 
136647 
136862 
137074 
137275 
137471 
137674 
137873 
138073 
138283 
138493 
138698 
138906 
139109 
139307 
139501 
139712 
139928 
140140 
140341 
140542 
140742 
140941 
141150 
141365 
141576 
141789 
141999 
142201 
142400 
142600 
142810 
143028 
143240 
143446 
143651 
143859 
144055 
144264 
144478 
144690 
144902 
145107 
145309 
145508 
145708 
145924 
146140 
146347 
146553 
146757 
146961 
147161 
147370 
147579 
147791 
148002 
148207 
148405 
148604 
148803 
149018 
149236 
149444 
149648 
149854 
150058 
150260 
150469 
150683 
150895 
151105 
151310 
151514 
151709 
151920 
152138 
152354 
152561 
152771 
152975 
153181 
153384 
153599 
153813 
154034 
154243 
154446 
154652 
154853 
155070 
155296 
155511 
155723 
155934 
156145 
156349 
156561 
156780 
156998 
157214 
157426 
157635 
157836 
158052 
158276 
158497 
158710 
158925 
159133 
159346 
159554 
159774 
159998 
160219 
160434 
160642 
160851 
161059 
161286 
161511 
161729 
161942 
162155 
162366 
162573 
162789 
163016 
163233 
163450 
163663 
163870 
164078 
164305 
164530 
164746 
164961 
165170 
165386 
165596 
165817 
166044 
166273 
166489 
166700 
166910 
167115 
167339 
167565 
167784 
167997 
168213 
168426 
168632 
168847 
169073 
169294 
169515 
169730 
169940 
170147 
170370 
170594 
170816 
171033 
171246 
171464 
171673 
171893 
172122 
172352 
172573 
172787 
173001 
173211 
173433 
173663 
173891 
174106 
174326 
174543 
174751 
174970 
175201 
175428 
175655 
175873 
176083 
176297 
176523 
176752 
176977 
177199 
177418 
177640 
177851 
178076 
178312 
178543 
178770 
178985 
179204 
179417 
179647 
179881 
180106 
180328 
180560 
180779 
180990 
181225 
181457 
181686 
181911 
182127 
182347 
182571 
182801 
183030 
183256 
183479 
183704 
183921 
184144 
184377 
184614 
184840 
185057 
185276 
185488 
185714 
185951 
186182 
186406 
186636 
186856 
187069 
187297 
187532 
187765 
187995 
188215 
188434 
188661 
188893 
189128 
189355 
189581 
189807 
190027 
190247 
190479 
190717 
190946 
191165 
191387 
191603 
191832 
192072 
192305 
192533 
192766 
192987 
193202 
193432 
193669 
193907 
194135 
194361 
194586 
194818 
195059 
195294 
195530 
195762 
195991 
196214 
196442 
196685 
196928 
197160 
197387 
197613 
197839 
198083 
198325 
198560 
198804 
199033 
199260 
199491 
199738 
199987 
200222 
200457 
200699 
200931 
201180 
201430 
201673 
201918 
202155 
202390 
202630 
202892 
203138 
203377 
203621 
203856 
204097 
204348 
204594 
204842 
205082 
205318 
205550 
205799 
206056 
206301 
206542 
206778 
207015 
207265 
207512 
207758 
208000 
208246 
208480 
208719 
208984 
209234 
209477 
209718 
209956 
210198 
210447 
210699 
210949 
211192 
211429 
211664 
211916 
212172 
212420 
212663 
212900 
213142 
213387 
213638 
213884 
214130 
214375 
214610 
214852 
215113 
215363 
215603 
215843 
216084 
216324 
216575 
216824 
217075 
217319 
217557 
217791 
218041 
218296 
218543 
218784 
219024 
219262 
219506 
219758 
220007 
220257 
220501 
220736 
220975 
221235 
221488 
221730 
221970 
222211 
222450 
222702 
222951 
223208 
223452 
223687 
223923 
224171 
224429 
224674 
224918 
225161 
225396 
225641 
225895 
226142 
226395 
226635 
226870 
227110 
227366 
227616 
227856 
228096 
228337 
228574 
228825 
229077 
229329 
229573 
229805 
230039 
230285 
230543 
230789 
231029 
231278 
231516 
231755 
232012 
232263 
232513 
232753 
232989 
233232 
233486 
233737 
233983 
234226 
234469 
234706 
234956 
235208 
235459 
235698 
235937 
236169 
236414 
236674 
236919 
237166 
237414 
237650 
237893 
238145 
238398 
238645 
238881 
239120 
239360 
239615 
239865 
240109 
240354 
240595 
240832 
241078 
241335 
241586 
241828 
242066 
242301 
242552 
242814 
243062 
243311 
243558 
243797 
244037 
244292 
244548 
244798 
245042 
245282 
245531 
245789 
246042 
246293 
246538 
246782 
247022 
247275 
247536 
247785 
248029 
248271 
248507 
248715 
248976 
249227 
249485 
249730 
249968 
250215 
250472 
250733 
250980 
251222 
251465 
251714 
251971 
252220 
252466 
252711 
252954 
253190 
253449 
253711 
253959 
254203 
254444 
254685 
254943 
255199 
255449 
255699 
255943 
256178 
256432 
256693 
256948 
257198 
257439 
257685 
257940 
258193 
258447 
258695 
258942 
259179 
259427 
259694 
259946 
260195 
260438 
260677 
260929 
261182 
261433 
261685 
261928 
262167 
262408 
262665 
262925 
263173 
263413 
263657 
263897 
264148 
264402 
264646 
264896 
265139 
265370 
265628 
265888 
266137 
266381 
266621 
266860 
267110 
267367 
267618 
267871 
268116 
268354 
268600 
268858 
269116 
269366 
269606 
269855 
270096 
270350 
270607 
270855 
271105 
271345 
271588 
271850 
272104 
272350 
272595 
272847 
273088 
273338 
273598 
273850 
274102 
274342 
274580 
274831 
275088 
275342 
275585 
275830 
276070 
276317 
276577 
276828 
277080 
277324 
277564 
277807 
278069 
278325 
278567 
278811 
279054 
279298 
279556 
279811 
280069 
280316 
280556 
280797 
281053 
281316 
281565 
281811 
282062 
282303 
282558 
282816 
283070 
283320 
283564 
283801 
284057 
284318 
284567 
284811 
285054 
285295 
285543 
285800 
286056 
286302 
286542 
286781 
287024 
287285 
287537 
287782 
288030 
288272 
288512 
288764 
289019 
289272 
289512 
289751 
289991 
290246 
290502 
290751 
290995 
291239 
291479 
291730 
291985 
292242 
292488 
292727 
292964 
293216 
293481 
293731 
293980 
294230 
294470 
294713 
294970 
295225 
295475 
295718 
295958 
296205 
296465 
296717 
296965 
297209 
297455 
297692 
297945 
298206 
298453 
298697 
298940 
299175 
299436 
299691 
299937 
300189 
300430 
300667 
300914 
301169 
301424 
301671 
301913 
302150 
302404 
302660 
302908 
303156 
303397 
303642 
303882 
304136 
304398 
304645 
304889 
305131 
305372 
305633 
305888 
306137 
306386 
306632 
306870 
307126 
307387 
307644 
307892 
308134 
308381 
308640 
308895 
309148 
309398 
309645 
309882 
310135 
310401 
310655 
310902 
311145 
311381 
311636 
311893 
312145 
312394 
312639 
312878 
313122 
313383 
313638 
313889 
314132 
314373 
314621 
314873 
315129 
315378 
315626 
315869 
316109 
316370 
316629 
316880 
317126 
317367 
317612 
317869 
318128 
318380 
318633 
318879 
319117 
319374 
319636 
319889 
320137 
320380 
320626 
320878 
321134 
321387 
321638 
321886 
322124 
322374 
322640 
322893 
323139 
323383 
323626 
323871 
324131 
324383 
324638 
324884 
325119 
325364 
325620 
325878 
326127 
326366 
326612 
326854 
327108 
327362 
327615 
327864 
328103 
328341 
328599 
328855 
329103 
329345 
329590 
329830 
330081 
330340 
330592 
330845 
331087 
331322 
331574 
331833 
332091 
332339 
332585 
332834 
333081 
333340 
333596 
333850 
334100 
334343 
334587 
334852 
335114 
335359 
335609 
335858 
336104 
336361 
336621 
336878 
337123 
337367 
337607 
337866 
338126 
338374 
338621 
338870 
339108 
339362 
339617 
339871 
340119 
340361 
340598 
340856 
341113 
341364 
341613 
341857 
342098 
342352 
342608 
342870 
343120 
343361 
343603 
343855 
344120 
344376 
344626 
344880 
345123 
345369 
345630 
345888 
346143 
346388 
346632 
346883 
347148 
347404 
347657 
347907 
348153 
348399 
348657 
348920 
349174 
349419 
349662 
349909 
350174 
350430 
350679 
350929 
351170 
351410 
351664 
351921 
352176 
352420 
352663 
352905 
353162 
353419 
353671 
353916 
354164 
354403 
354650 
354916 
355171 
355419 
355664 
355903 
356162 
356424 
356675 
356929 
357177 
357417 
357663 
357924 
358183 
358433 
358681 
358925 
359176 
359437 
359693 
359946 
360198 
360445 
360690 
360959 
361224 
361477 
361728 
361971 
362224 
362490 
362746 
363004 
363257 
363502 
363745 
364007 
364267 
364520 
364767 
365010 
365259 
365516 
365771 
366023 
366271 
366516 
366758 
367020 
367282 
367534 
367779 
368023 
368269 
368523 
368785 
369039 
369289 
369535 
369774 
370030 
370294 
370549 
370797 
371042 
371288 
371541 
371800 
372055 
372310 
372558 
372795 
373056 
373319 
373572 
373825 
374068 
374314 
374569 
374830 
375089 
375346 
375591 
375833 
376088 
376352 
376609 
376857 
377100 
377349 
377593 
377849 
378110 
378361 
378607 
378850 
379096 
379360 
379617 
379865 
380112 
380360 
380603 
380863 
381126 
381381 
381631 
381873 
382115 
382376 
382638 
382890 
383138 
383390 
383630 
383888 
384149 
384405 
384659 
384902 
385144 
385405 
385667 
385917 
386168 
386421 
386664 
386922 
387185 
387443 
387694 
387939 
388184 
388440 
388710 
388965 
389216 
389476 
389718 
389974 
390244 
390500 
390756 
390999 
391248 
391483 
391761 
392011 
392282 
392461 
392800 
392949 
393318 
393501 
393849 
394007 
394350 
394521 
394625 
394732 
394829 
394959 
395050 
395153 
395250 
395398 
395497 
395629 
395721 
395878 
396067 
396211 
396314 
396425 
396533 
396627 
396727 
396824 
397173 
397274 
397409 
397716 
397814 
397911 
398001 
398083 
398202 
398299 
398392 
398526 
398623 
398759 
399095 
399198 
399292 
399383 
399493 
399590 
399687 
399784 
399881 
399978 
400075 
400198 
400298 
400391 
400492 
400629 
400726 
400820 
400911 
401009 
401145 
401240 
401341 
401435 
401535 
401631 
401722 
401820 
401923 
402020 
402112 
402208 
402311 
402402 
402505 
402602 
402696 
402796 
402920 
403011 
403115 
403216 
403311 
403382 
403510 
403591 
403704 
403804 
403901 
404578 
404681 
404785 
404884 
404983 
405083 
405180 
405270 
405374 
405505 
405604 
405699 
405799 
405896 
405995 
406092 
406189 
406286 
406383 
406480 
406590 
406690 
406779 
406884 
406992 
407088 
407189 
407286 
407383 
407478 
407580 
407679 
407776 
407889 
407990 
408084 
408185 
408312 
408449 
408547 
408639 
408741 
408838 
408927 
409032 
409162 
409255 
409356 
409491 
409590 
409671 
409881 
409984 
410114 
410258 
410390 
410487 
410581 
410676 
410816 
410947 
411044 
411141 
411271 
411368 
411472 
411571 
411672 
411768 
411862 
411963 
412060 
412157 
412252 
412350 
412449 
412546 
412643 
412740 
412837 
412959 
413052 
413152 
413251 
413348 
413478 
413572 
413672 
413766 
413861 
413972 
414071 
414168 
414265 
414375 
414474 
414565 
414670 
414796 
414898 
414995 
415092 
415189 
415286 
415450 
415547 
415630 
415785 
415908 
416002 
416120 
416209 
416321 
416418 
416515 
416612 
416749 
416847 
416945 
417042 
417137 
417235 
417333 
417430 
417624 
417727 
417824 
417920 
418018 
418097 
418212 
418344 
418447 
418544 
418641 
418738 
418835 
418932 
419029 
419126 
419223 
419320 
419986 
420551 
421187 
421556 
421871 
422167 
422477 
422774 
423065 
423347 
423636 
423942 
424231 
424521 
424801 
425082 
425374 
425676 
425970 
426255 
426529 
426817 
427117 
427401 
427679 
427950 
428211 
428488 
428762 
429030 
429283 
429523 
429773 
430029 
430278 
430524 
430762 
431002 
431229 
431471 
431719 
431953 
432182 
432403 
432620 
432842 
433080 
433308 
433529 
433753 
433975 
434188 
434402 
434629 
434858 
435082 
435301 
435512 
435907 
436192 
436423 
436813 
437105 
437332 
437571 
437828 
438073 
438314 
438550 
438784 
439034 
439280 
439530 
439777 
440031 
440282 
440538 
440804 
441076 
441341 
441594 
441856 
442116 
442393 
442657 
442920 
443179 
443421 
443676 
443955 
444207 
444457 
444698 
444934 
445182 
445429 
445670 
445909 
446143 
446368 
446584 
446818 
447055 
447291 
447515 
447710 
447937 
448095 
448320 
448484 
448629 
448833 
448996 
449131 
449257 
449380 
449500 
449614 
449736 
449862 
449991 
450117 
450241 
450366 
450489 
450610 
450731 
450851 
450974 
451096 
451227 
451357 
451490 
451622 
451750 
451879 
452013 
452143 
452268 
452388 
452508 
452626 
452755 
452888 
453023 
453152 
453284 
453409 
453538 
453668 
453790 
453916 
454039 
454154 
454278 
454408 
454547 
454680 
454806 
454928 
455056 
455182 
455316 
455435 
455557 
455676 
455798 
455925 
456066 
456196 
456325 
456453 
456579 
456700 
456826 
456950 
457078 
457202 
457325 
457448 
457582 
457712 
457841 
457971 
458100 
458227 
458353 
458473 
458597 
458718 
458847 
458969 
459101 
459233 
459370 
459499 
459631 
459750 
459878 
460008 
460140 
460257 
460381 
460512 
460649 
460778 
460904 
461037 
461173 
461304 
461425 
461554 
461684 
461804 
461925 
462064 
