4.07421875 3.181133 1.785574 -1.395559
4.59765625 3.1555280000000003 1.812365 -1.343163
5.13671875 3.306256 1.857986 -1.44827
5.68359375 3.361446 1.90835 -1.453096
6.21484375 3.2815149999999997 1.804138 -1.477377
6.7578125 3.2745509999999998 1.821661 -1.45289
7.30859375 3.3941980000000003 1.898274 -1.495924
7.8671875 3.2516119999999997 1.750604 -1.501008
8.390625 3.182318 1.80481 -1.377508
8.94140625 3.4275469999999997 1.902823 -1.524724
9.46875 3.353239 1.818239 -1.535
10.0078125 3.256673 1.841096 -1.415577
10.5703125 3.262034 1.772117 -1.489917
11.1328125 3.307577 1.874193 -1.433384
11.66796875 3.156562 1.778558 -1.378004
12.2265625 3.3796220000000003 1.847539 -1.532083
12.7578125 3.3292080000000004 1.807889 -1.521319
13.2890625 3.2144760000000003 1.925 -1.289476
13.8203125 3.1146409999999998 1.894734 -1.219907
14.3671875 3.448375 1.984424 -1.463951
14.9296875 3.356449 1.841736 -1.514713
15.47265625 3.2698150000000004 1.941623 -1.328192
16.03125 3.193548 1.838848 -1.3547
16.5625 3.3994590000000002 1.971803 -1.427656
17.1015625 3.287337 1.901384 -1.385953
17.62890625 2.952122 1.817756 -1.134366
18.17578125 3.050165 1.758866 -1.291299
18.73046875 3.1872819999999997 1.911131 -1.276151
19.28125 3.241524 1.97293 -1.268594
19.8203125 3.159138 1.997635 -1.161503
20.37109375 3.2461580000000003 1.940025 -1.306133
20.89453125 3.339049 2.059781 -1.279268
21.4296875 3.167329 1.952403 -1.214926
21.984375 3.3251220000000004 1.967157 -1.357965
22.51953125 3.300968 1.939732 -1.361236
23.0625 3.1829989999999997 1.940272 -1.242727
23.60546875 3.239388 2.030584 -1.208804
24.1640625 3.316742 2.059832 -1.25691
24.71875 3.3901250000000003 2.000125 -1.39
25.26171875 3.349021 2.059602 -1.289419
25.7890625 3.172497 1.979414 -1.193083
26.3359375 3.296679 2.004771 -1.291908
26.89453125 3.279491 1.934787 -1.344704
27.44921875 3.4457459999999998 2.140824 -1.304922
27.984375 3.142481 1.804556 -1.337925
28.5390625 3.3820069999999998 2.023727 -1.35828
29.0625 3.259304 1.857308 -1.401996
29.6015625 3.1510360000000004 1.88691 -1.264126
30.13671875 3.206208 1.832257 -1.373951
30.671875 3.214604 1.852065 -1.362539
31.2109375 3.302172 2.049434 -1.252738
31.7578125 3.162124 1.882279 -1.279845
32.3203125 3.313678 1.948723 -1.364955
32.8515625 3.148156 1.883486 -1.26467
33.39453125 3.083784 1.914674 -1.16911
33.92578125 3.195415 1.980415 -1.215
34.46875 3.189425 1.989425 -1.2
35.015625 3.1700850000000003 1.94193 -1.228155
35.578125 3.1704309999999998 1.98166 -1.188771
36.125 3.312131 1.965 -1.347131
36.67578125 3.377744 2.083889 -1.293855
37.19921875 3.295744 2.078796 -1.216948
37.734375 3.1350560000000005 2.013342 -1.121714
38.28125 3.332219 2.071458 -1.260761
38.828125 3.346757 2.09031 -1.256447
39.37109375 3.232001 2.037279 -1.194722
39.9140625 3.1685299999999996 2.084713 -1.083817
40.46484375 3.331055 2.086055 -1.245
41.0078125 3.3410519999999995 2.116128 -1.224924
41.546875 3.302411 2.057411 -1.245
42.0703125 3.2947040000000003 2.119056 -1.175648
42.60546875 3.248519 2.013282 -1.235237
43.15234375 3.322302 2.048635 -1.273667
43.7109375 3.208974 1.99422 -1.214754
44.24609375 3.2917009999999998 2.119288 -1.172413
44.796875 3.30734 2.088612 -1.218728
45.3359375 3.4126600000000002 2.118774 -1.293886
45.8671875 3.177281 1.984817 -1.192464
46.40625 3.212931 2.035601 -1.17733
46.95703125 3.298396 2.066522 -1.231874
47.484375 3.2624630000000003 2.153125 -1.109338
48.046875 3.140246 1.980246 -1.16
48.609375 3.309083 2.113896 -1.195187
49.15234375 3.2558360000000004 2.077036 -1.1788
49.68359375 3.153715 1.994361 -1.159354
50.22265625 3.058166 1.967772 -1.090394
50.7578125 3.083905 1.99418 -1.089725
51.30859375 3.297117 2.05 -1.247117
51.86328125 3.3243670000000005 2.085097 -1.23927
52.40625 3.2734179999999995 2.114082 -1.159336
52.9453125 3.0952089999999997 2.005251 -1.089958
53.48046875 3.124345 1.894609 -1.229736
54.015625 3.1979319999999998 1.944473 -1.253459
54.54296875 3.215704 2.021128 -1.194576
55.09375 3.297848 1.987848 -1.31
55.62890625 3.198373 1.920087 -1.278286
56.171875 3.134442 1.904442 -1.23
56.71875 3.185459 1.93425 -1.251209
57.265625 3.010683 1.813613 -1.19707
57.80078125 3.29568 2.044173 -1.251507
58.34375 3.2381900000000003 1.92819 -1.31
58.8671875 3.1660779999999997 1.993261 -1.172817
59.41015625 3.1716249999999997 2.083478 -1.088147
59.9765625 3.297898 2.075942 -1.221956
60.53125 3.834047 2.210856 -1.623191
61.0859375 3.2960279999999997 2.124854 -1.171174
61.625 3.2893980000000003 2.145 -1.144398
62.15234375 3.132427 1.983598 -1.148829
62.69921875 3.2335059999999998 2.043506 -1.19
63.1328125 3.2441269999999998 2.152008 -1.092119
63.7578125 3.182661 1.982766 -1.199895
64.31640625 3.2937269999999996 2.227832 -1.065895
64.86328125 3.045518 2.005557 -1.039961
65.4296875 3.304774 2.21924 -1.085534
65.953125 3.243556 1.966942 -1.276614
66.48828125 3.163228 2.038247 -1.124981
67.01953125 3.352323 2.174893 -1.17743
67.578125 3.253892 1.960445 -1.293447
68.12890625 3.194431 1.914401 -1.28003
68.68359375 3.076652 1.836993 -1.239659
69.22265625 3.260017 1.936413 -1.323604
69.765625 3.238982 1.869278 -1.369704
70.29296875 3.149888 1.933527 -1.216361
70.828125 3.056137 1.932719 -1.123418
71.37890625 3.194713 1.95 -1.244713
71.92578125 3.256528 1.991528 -1.265
72.4765625 3.120219 1.958382 -1.161837
73.01953125 3.0575289999999997 2.02997 -1.027559
73.57421875 2.903943 1.919151 -0.984792
74.11328125 3.304065 2.054202 -1.249863
74.66796875 3.177577 1.918953 -1.258624
75.19140625 3.141937 1.927617 -1.21432
75.73046875 3.097746 1.900589 -1.197157
76.28125 3.3489240000000002 2.049205 -1.299719
76.83984375 3.211246 1.863073 -1.348173
77.375 3.358207 2.115 -1.243207
77.91796875 3.295688 1.882858 -1.41283
78.44921875 3.4434440000000004 2.063476 -1.379968
78.984375 3.3302329999999998 2.010233 -1.32
79.52734375 3.090943 1.866413 -1.22453
80.06640625 3.331432 1.96121 -1.370222
80.61328125 3.324621 1.809752 -1.514869
81.15625 3.328048 1.906912 -1.421136
81.71484375 3.269666 1.801079 -1.468587
82.26953125 3.384083 1.9 -1.484083
82.8125 3.319703 1.940229 -1.379474
83.34765625 3.322672 2.028563 -1.294109
83.90625 3.376112 1.943925 -1.432187
84.4609375 3.402749 1.988827 -1.413922
85.02734375 3.290211 2.020451 -1.26976
85.5625 3.179215 1.88387 -1.295345
86.12109375 3.3818799999999998 2.073469 -1.308411
86.65234375 3.489677 2.295877 -1.1938
87.19140625 3.188035 2.098035 -1.09
87.73828125 3.359997 2.069425 -1.290572
88.28125 3.2840659999999997 2.048478 -1.235588
88.82421875 3.2157980000000004 2.15425 -1.061548
89.37890625 2.971579 1.927906 -1.043673
89.9375 3.1720370000000004 2.054565 -1.117472
90.46875 3.254633 2.174633 -1.08
91.01171875 3.0370980000000003 2.027426 -1.009672
91.5546875 3.16807 2.075291 -1.092779
92.08984375 3.191671 2.15542 -1.036251
92.6328125 3.111193 2.066396 -1.044797
93.1953125 3.100019 2.017138 -1.082881
93.7421875 3.1709620000000003 2.021153 -1.149809
94.29296875 3.252112 2.162584 -1.089528
94.8203125 3.6369689999999997 2.263966 -1.373003
95.37109375 3.2887890000000004 2.032919 -1.25587
95.91796875 3.193556 2.07623 -1.117326
96.46484375 3.014453 1.938676 -1.075777
97.01953125 3.184221 2.029918 -1.154303
97.5625 3.178102 2.028202 -1.1499
98.12109375 3.196428 2.171559 -1.024869
98.67578125 3.2667070000000002 2.04222 -1.224487
99.22265625 3.263394 2.022086 -1.241308
99.75390625 3.0595739999999996 2.035875 -1.023699
100.29296875 3.374643 2.198877 -1.175766
100.84375 3.4369899999999998 2.23466 -1.20233
101.40625 3.187253 2.104677 -1.082576
101.9375 3.0793749999999998 1.96102 -1.118355
102.49609375 3.256582 2.042897 -1.213685
103.01953125 3.209822 2.121138 -1.088684
103.5625 3.174611 2.151923 -1.022688
104.1015625 3.042334 1.992767 -1.049567
104.65625 3.435632 2.17192 -1.263712
105.19921875 3.271097 1.956136 -1.314961
105.74609375 3.201779 2.087822 -1.113957
106.30078125 3.100319 1.939865 -1.160454
106.8515625 3.3653639999999996 2.047061 -1.318303
107.390625 3.424752 2.196187 -1.228565
107.93359375 3.2813280000000002 2.213909 -1.067419
108.46875 3.208356 2.113356 -1.095
109.0234375 3.420235 2.286354 -1.133881
109.57421875 3.2726230000000003 2.157096 -1.115527
110.1171875 3.232113 2.251153 -0.98096
110.67578125 3.189493 2.296122 -0.893371
111.2109375 3.322311 2.154024 -1.168287
111.75 3.200536 2.245 -0.955536
112.28125 3.2382739999999997 2.293274 -0.945
112.8359375 3.3336119999999996 2.303886 -1.029726
113.36328125 3.236481 2.231588 -1.004893
113.90625 3.109709 2.235885 -0.873824
114.4609375 3.354599 2.28979 -1.064809
115.0078125 3.2543480000000002 2.144817 -1.109531
115.54296875 3.193453 2.259352 -0.934101
116.0859375 3.319369 2.164545 -1.154824
116.61328125 3.2432410000000003 2.10829 -1.134951
117.16015625 3.124577 2.140775 -0.983802
117.72265625 3.0862619999999996 2.08594 -1.000322
118.28515625 3.0703620000000003 2.091075 -0.979287
118.82421875 3.255173 2.074789 -1.180384
119.359375 3.813872 2.59 -1.223872
119.90234375 3.137718 2.00358 -1.134138
120.44921875 3.7128319999999997 2.53538 -1.177452
121.0 3.3299329999999996 2.11 -1.219933
121.50390625 3.5659540000000005 2.350954 -1.215
122.08984375 3.131783 1.862837 -1.268946
122.66015625 3.717089 2.37291 -1.344179
123.2109375 3.134744 1.813678 -1.321066
123.75 3.528398 2.395 -1.133398
124.296875 3.3942769999999998 1.930747 -1.46353
124.828125 3.35288 2.266151 -1.086729
125.375 3.16606 2.04 -1.12606
125.921875 3.121946 2.033511 -1.088435
126.47265625 3.149132 2.034132 -1.115
127.0234375 3.364558 2.344558 -1.02
127.55859375 3.298022 1.89381 -1.404212
128.11328125 3.4515089999999997 1.930183 -1.521326
128.62890625 3.176704 1.976047 -1.200657
129.18359375 3.131685 2.050435 -1.08125
129.7265625 3.069124 1.899318 -1.169806
130.28515625 3.092425 2.038531 -1.053894
130.8359375 3.456395 1.999119 -1.457276
131.375 3.281531 2.15 -1.131531
131.9140625 2.98816 1.98059 -1.00757
132.453125 3.412912 2.502912 -0.91
132.98828125 3.353809 2.062992 -1.290817
133.53515625 3.3837459999999995 2.348746 -1.035
134.08203125 3.411608 2.158913 -1.252695
134.63671875 3.330007 2.360007 -0.97
135.18359375 3.264478 1.974478 -1.29
135.72265625 3.370985 2.345985 -1.025
136.25390625 3.1540470000000003 1.974364 -1.179683
136.7890625 3.5380789999999998 2.483079 -1.055
137.34375 3.3750970000000002 2.110425 -1.264672
137.8671875 3.7714309999999998 2.582079 -1.189352
138.421875 3.1266439999999998 1.922065 -1.204579
138.9375 3.0335 2.4485 -0.585
139.53515625 3.264589 1.96867 -1.295919
140.06640625 3.79322 2.61 -1.18322
140.60546875 3.1381560000000004 2.074806 -1.06335
141.15234375 3.48944 2.474773 -1.014667
141.6953125 3.2541279999999997 2.102556 -1.151572
142.24609375 3.290168 2.424267 -0.865901
142.80078125 3.2366710000000003 2.009399 -1.227272
143.34375 3.219933 2.066354 -1.153579
143.88671875 3.138997 1.992403 -1.146594
144.4296875 3.095681 1.902319 -1.193362
144.96875 3.226923 1.881923 -1.345
145.51171875 3.125703 1.919057 -1.206646
146.0390625 3.082718 1.913245 -1.169473
146.6015625 3.4910680000000003 1.985 -1.506068
147.1484375 3.2017480000000003 1.943507 -1.258241
147.69921875 3.148298 2.115177 -1.033121
148.23046875 3.0466509999999998 1.81663 -1.230021
148.77734375 3.5142119999999997 2.354212 -1.16
149.30859375 3.126857 1.816926 -1.309931
149.83203125 3.548564 2.3684 -1.180164
150.39453125 3.154984 1.854096 -1.300888
150.91796875 2.9812689999999997 2.3284 -0.652869
151.484375 3.155154 1.92 -1.235154
152.0 3.7379230000000003 2.415 -1.322923
152.5625 3.2298299999999998 1.912384 -1.317446
153.08984375 3.474235 2.445485 -1.02875
153.63671875 3.1775700000000002 1.971448 -1.206122
154.1796875 3.219983 1.950392 -1.269591
154.7265625 3.216287 2.007628 -1.208659
155.26171875 3.174248 2.234677 -0.939571
155.828125 3.397189 2.069738 -1.327451
156.36328125 3.333648 2.252684 -1.080964
156.90234375 3.1476930000000003 1.932979 -1.214714
157.43359375 3.567347 2.442347 -1.125
157.97265625 3.427791 2.021876 -1.405915
158.5234375 3.8327610000000005 2.682847 -1.149914
159.078125 3.199797 2.05 -1.149797
159.5703125 3.4399059999999997 2.517489 -0.922417
160.1640625 3.338359 1.99428 -1.344079
160.6875 3.694775 2.595 -1.099775
161.22265625 3.136789 2.025 -1.111789
161.7734375 3.350292 2.365292 -0.985
162.296875 3.253579 2.038319 -1.21526
162.84375 3.071145 2.193645 -0.8775
163.39453125 3.448241 2.169729 -1.278512
163.95703125 3.2217140000000004 2.071441 -1.150273
164.48046875 3.197654 1.98663 -1.211024
165.0234375 3.318308 2.393308 -0.925
165.5625 3.299896 2.093721 -1.206175
166.1015625 3.555511 2.536485 -1.019026
166.65234375 3.2006630000000005 2.146863 -1.0538
167.18359375 3.138178 2.63433 -0.503848
167.765625 3.284185 2.13928 -1.144905
168.29296875 3.015 2.645 -0.37
168.84375 3.222449 2.153468 -1.068981
169.39453125 3.840437 2.764972 -1.075465
169.93359375 3.3924890000000003 2.289794 -1.102695
170.4765625 3.261013 2.33006 -0.930953
171.02734375 3.168647 2.112808 -1.055839
171.57421875 3.280532 2.139017 -1.141515
172.12890625 3.2983520000000004 2.220765 -1.077587
172.66015625 3.131229 2.126642 -1.004587
173.20703125 3.020874 2.071133 -0.949741
173.7421875 3.218357 2.114058 -1.104299
174.28125 3.288715 2.105789 -1.182926
174.83203125 3.692333 2.568785 -1.123548
175.39453125 3.335473 2.184811 -1.150662
175.88671875 3.780487 2.482603 -1.297884
176.4921875 3.388188 2.005925 -1.382263
177.01953125 3.308032 2.019825 -1.288207
177.55859375 3.382031 1.984375 -1.397656
178.10546875 3.2048550000000002 2.124912 -1.079943
178.640625 3.2884330000000004 1.987305 -1.301128
179.17578125 3.143097 2.118097 -1.025
179.73828125 3.395176 2.029363 -1.365813
180.296875 3.589763 2.445005 -1.144758
180.8359375 3.3730539999999998 1.964208 -1.408846
181.375 3.935723 2.61 -1.325723
181.91015625 3.306597 2.048558 -1.258039
182.45703125 3.8014509999999997 2.604576 -1.196875
183.01171875 3.40214 2.065174 -1.336966
183.56640625 3.438615 2.293393 -1.145222
184.109375 3.382023 2.087372 -1.294651
184.6640625 3.396889 2.118629 -1.27826
185.18359375 3.3894140000000004 2.228673 -1.160741
185.72265625 3.323436 2.158436 -1.165
186.25 3.312874 2.135 -1.177874
186.78515625 3.509601 2.617541 -0.89206
187.328125 3.363002 2.19386 -1.169142
187.875 3.8831680000000004 2.785 -1.098168
188.42578125 3.338603 2.246362 -1.092241
188.97265625 3.6761019999999998 2.658641 -1.017461
189.52734375 3.4071610000000003 2.173268 -1.233893
190.05859375 3.561857 2.6599 -0.901957
190.59375 3.173377 2.148377 -1.025
191.15234375 3.5491989999999998 2.643103 -0.906096
191.72265625 3.4146400000000003 2.329702 -1.084938
192.265625 3.231735 2.297428 -0.934307
192.80859375 3.1360680000000003 2.273512 -0.862556
193.33984375 3.307545 2.538145 -0.7694
193.8984375 3.382137 2.163741 -1.218396
194.44140625 3.297778 2.158766 -1.139012
194.984375 3.2121239999999998 2.227124 -0.985
195.5234375 3.222098 2.124409 -1.097689
196.0859375 3.2617519999999995 2.034934 -1.226818
196.62890625 3.0148650000000004 2.158234 -0.856631
197.18359375 3.306458 1.976678 -1.32978
197.71484375 3.840039 2.4678 -1.372239
198.25390625 3.265867 1.930675 -1.335192
198.7578125 3.002407 2.36 -0.642407
199.34375 3.2740299999999998 1.847852 -1.426178
199.90234375 3.574066 2.337543 -1.236523
200.4453125 3.1395489999999997 1.756668 -1.382881
201.00390625 3.426958 2.160583 -1.266375
201.54296875 3.213815 1.63157 -1.582245
202.078125 3.451065 2.158572 -1.292493
202.6171875 3.099796 1.567141 -1.532655
203.16796875 3.3789420000000003 1.842629 -1.536313
203.70703125 1.809226 0.536179 -1.273047
204.265625 2.447581 1.129915 -1.317666
204.82421875 1.9340769999999998 0.785 -1.149077
205.3828125 3.585611 2.217402 -1.368209
205.921875 2.485 1.355 -1.13
206.47265625 2.505406 1.500406 -1.005
207.015625 2.0665899999999997 1.096647 -0.969943
207.55859375 2.229777 1.353844 -0.875933
208.12109375 2.338907 1.564993 -0.773914
208.671875 2.401065 1.707131 -0.693934
209.2265625 2.241912 1.606912 -0.635
209.75390625 2.9791100000000004 2.25328 -0.72583
210.28515625 2.062946 1.588932 -0.474014
210.80078125 3.281161 2.756161 -0.525
211.38671875 2.477277 1.967584 -0.509693
211.91796875 2.342533 1.998208 -0.344325
212.46484375 1.56476 1.277652 -0.287108
213.01953125 1.911924 1.47461 -0.437314
213.56640625 2.648343 2.099256 -0.549087
214.09765625 3.0676310000000004 2.382833 -0.684798
214.6484375 3.284 2.399515 -0.884485
215.17578125 3.263942 2.569553 -0.694389
215.7265625 3.2703160000000002 2.492579 -0.777737
216.26171875 3.041898 2.738411 -0.303487
216.84375 3.2560710000000004 2.201071 -1.055
217.38671875 3.651963 2.701682 -0.950281
217.93359375 3.3159660000000004 2.214954 -1.101012
218.48046875 3.503509 2.594878 -0.908631
219.015625 3.174189 2.049273 -1.124916
219.5625 3.131875 2.366875 -0.765
220.10546875 3.372029 2.049741 -1.322288
220.65625 3.245585 2.035585 -1.21
221.19921875 3.105057 1.892158 -1.212899
221.75 3.256875 2.275 -0.981875
222.28515625 3.439634 2.015848 -1.423786
222.828125 3.4262370000000004 2.257725 -1.168512
223.359375 3.268216 1.842445 -1.425771
223.90234375 3.3532539999999997 2.158254 -1.195
224.44921875 3.1289730000000002 1.828973 -1.3
225.01171875 3.774114 2.459114 -1.315
225.52734375 1.819702 0.169146 -1.650556
226.09375 3.335195 2.130195 -1.205
226.62109375 3.180523 2.010862 -1.169661
227.16796875 3.2514890000000003 2.218328 -1.033161
227.7265625 3.1158859999999997 1.972596 -1.14329
228.2734375 3.670004 2.625973 -1.044031
228.83984375 3.3568540000000002 2.045198 -1.311656
229.3828125 3.628735 2.60448 -1.024255
229.94140625 3.3116130000000004 2.118097 -1.193516
230.48828125 3.761875 2.70945 -1.052425
231.03125 3.275506 2.14632 -1.129186
231.5546875 3.553394 2.713233 -0.840161
232.109375 3.388497 2.372726 -1.015771
232.66015625 3.149861 2.331548 -0.818313
233.21484375 3.229382 2.335303 -0.894079
233.7578125 3.179034 2.653327 -0.525707
234.30859375 3.271141 2.397098 -0.874043
234.83203125 3.662235 2.953795 -0.70844
235.37109375 3.239095 2.400265 -0.83883
235.92578125 3.5835980000000003 2.882454 -0.701144
236.453125 3.232288 2.48284 -0.749448
237.01171875 3.606531 2.893312 -0.713219
237.56640625 3.353673 2.384116 -0.969557
238.1171875 3.276902 2.367922 -0.90898
238.6484375 3.1300660000000002 2.170449 -0.959617
239.203125 3.376103 2.221868 -1.154235
239.73828125 3.191886 2.006912 -1.184974
240.28515625 3.327602 2.057154 -1.270448
240.8515625 3.268231 1.827371 -1.44086
241.41015625 3.293027 2.005506 -1.287521
241.94921875 3.3446249999999997 1.834724 -1.509901
242.4765625 3.119941 2.139941 -0.98
242.89453125 3.3724550000000004 1.854923 -1.517532
243.5390625 3.23319 1.977729 -1.255461
244.12109375 3.460647 1.808913 -1.651734
244.66015625 3.458514 1.826347 -1.632167
245.20703125 3.4263890000000004 1.861204 -1.565185
245.7421875 3.3306180000000003 1.878594 -1.452024
246.30078125 3.4472009999999997 1.901514 -1.545687
246.83203125 3.353441 1.78732 -1.566121
247.36328125 3.4221880000000002 1.967306 -1.454882
247.88671875 3.1087929999999995 2.049752 -1.059041
248.4375 3.2436160000000003 1.867378 -1.376238
248.9921875 3.793022 2.478022 -1.315
249.55078125 3.196379 1.947774 -1.248605
250.05859375 3.189766 2.559766 -0.63
250.64453125 3.487605 2.144726 -1.342879
251.17578125 3.227825 2.110011 -1.117814
251.72265625 3.227894 2.132497 -1.095397
252.28125 3.3209419999999996 2.166298 -1.154644
252.80859375 3.289168 2.275479 -1.013689
253.36328125 3.164202 2.229202 -0.935
253.91796875 3.41509 2.36876 -1.04633
254.484375 3.3749390000000004 2.325117 -1.049822
255.01953125 3.232097 2.249702 -0.982395
255.5625 3.652934 2.815375 -0.837559
256.11328125 3.480346 2.430469 -1.049877
256.66015625 3.608694 2.598694 -1.01
257.1953125 3.2248200000000002 2.184529 -1.040291
257.74609375 3.812232 2.778853 -1.033379
258.28515625 3.0814579999999996 2.335161 -0.746297
258.80859375 2.819638 2.709638 -0.11
259.390625 3.598866 2.251602 -1.347264
259.91796875 3.1230450000000003 2.095 -1.028045
260.46875 3.092945 2.147945 -0.945
261.01171875 3.021907 2.035 -0.986907
261.57421875 3.180823 1.965962 -1.214861
262.1171875 3.149702 1.916629 -1.233073
262.66796875 3.159454 1.935626 -1.223828
263.203125 3.136565 1.946732 -1.189833
263.7578125 3.2371090000000002 1.883758 -1.353351
264.29296875 3.252193 1.916494 -1.335699
264.8359375 3.355757 1.905 -1.450757
265.37890625 3.248752 1.889169 -1.359583
265.9296875 3.1434439999999997 1.887502 -1.255942
266.46875 3.7837319999999997 2.542 -1.241732
267.01953125 3.56108 2.119977 -1.441103
267.53515625 3.820374 2.39043 -1.429944
268.078125 3.28657 1.986707 -1.299863
268.578125 3.561693 2.6 -0.961693
269.16796875 3.547765 2.240667 -1.307098
269.703125 3.3035259999999997 2.180399 -1.123127
270.23828125 3.2084859999999997 2.113498 -1.094988
270.80859375 3.413083 2.298713 -1.11437
271.3359375 3.362132 2.304169 -1.057963
271.875 3.6476930000000003 2.46 -1.187693
272.41015625 3.318817 2.354095 -0.964722
272.95703125 3.358385 2.418476 -0.939909
273.5078125 3.247715 2.36799 -0.879725
274.0625 3.1761429999999997 2.303514 -0.872629
274.60546875 3.3194939999999997 2.284757 -1.034737
275.1640625 3.312016 2.198744 -1.113272
275.6953125 3.253206 2.227608 -1.025598
276.23828125 3.6761429999999997 2.811768 -0.864375
276.79296875 3.3711400000000005 2.341718 -1.029422
277.29296875 3.744286 2.697561 -1.046725
277.87890625 3.315352 2.471206 -0.844146
278.43359375 3.245014 2.457575 -0.787439
278.98828125 3.129267 2.231497 -0.89777
279.546875 3.388175 2.308474 -1.079701
280.09375 3.199326 2.144326 -1.055
280.62109375 3.119417 2.301487 -0.81793
281.1640625 2.9325259999999997 2.173863 -0.758663
281.71875 3.176246 2.061246 -1.115
282.26953125 3.156492 1.931866 -1.224626
282.80859375 3.542516 2.459479 -1.083037
283.359375 3.206631 2.004833 -1.201798
283.8515625 3.7592039999999995 2.36 -1.399204
284.4375 3.3089199999999996 2.011618 -1.297302
284.98828125 3.22442 2.008886 -1.215534
285.53125 2.970319 1.768214 -1.202105
286.08984375 3.110446 1.805446 -1.305
286.63671875 3.007483 1.820076 -1.187407
287.19921875 3.082303 1.912368 -1.169935
287.7421875 3.0075719999999997 1.819817 -1.187755
288.30078125 3.170128 1.896968 -1.27316
288.82421875 3.051276 1.892144 -1.159132
289.3671875 3.037604 1.961666 -1.075938
289.92578125 3.1050180000000003 1.977449 -1.127569
290.5078125 3.293818 2.073955 -1.219863
291.04296875 3.095662 2.043393 -1.052269
291.59375 2.9394780000000003 2.036109 -0.903369
292.12890625 2.906537 1.873948 -1.032589
292.6796875 3.0956770000000002 1.996125 -1.099552
293.21484375 3.04456 2.168737 -0.875823
293.75 3.633366 2.765 -0.868366
294.3046875 2.9094860000000002 2.020083 -0.889403
294.8125 3.731205 2.741944 -0.989261
295.41796875 2.9183820000000003 2.136924 -0.781458
295.91015625 3.6799999999999997 2.715 -0.965
296.50390625 3.235082 2.317309 -0.917773
297.0546875 3.0794170000000003 2.399735 -0.679682
297.59375 3.312497 2.382497 -0.93
298.13671875 3.011632 2.259752 -0.75188
298.703125 3.211565 2.21385 -0.997715
299.25 3.238546 2.19 -1.048546
299.8046875 3.1939130000000002 2.082892 -1.111021
300.328125 3.174272 2.374917 -0.799355
300.8828125 3.354464 2.055 -1.299464
301.421875 3.8440019999999997 2.469629 -1.374373
301.96484375 3.154095 1.997012 -1.157083
302.51953125 3.026051 2.405234 -0.620817
303.0625 3.23414 1.895169 -1.338971
303.6171875 3.278226 2.019183 -1.259043
304.1640625 3.307973 2.064099 -1.243874
304.7109375 3.336533 1.954619 -1.381914
305.234375 3.312814 2.055595 -1.257219
305.765625 3.1193340000000003 1.914624 -1.20471
306.328125 3.2982769999999997 2.009918 -1.288359
306.890625 3.2843669999999996 2.005 -1.279367
307.42578125 3.253667 2.153092 -1.100575
307.98046875 3.365214 2.164814 -1.2004
308.50390625 3.2443350000000004 2.030063 -1.214272
309.046875 3.270729 2.231102 -1.039627
309.5859375 3.149673 2.162687 -0.986986
310.0859375 3.704888 2.670845 -1.034043
310.68359375 3.437735 2.243365 -1.19437
311.19140625 3.754633 2.699656 -1.054977
311.80859375 3.2317110000000002 2.244606 -0.987105
312.359375 3.152108 2.227108 -0.925
312.90625 3.1988339999999997 2.1437 -1.055134
313.45703125 3.22213 2.154972 -1.067158
313.9921875 3.091484 2.275959 -0.815525
314.5390625 3.139453 2.424448 -0.715005
315.1015625 3.1982160000000004 2.261467 -0.936749
315.640625 3.2382210000000002 2.200804 -1.037417
316.1875 3.0708390000000003 2.236952 -0.833887
316.71875 3.277371 2.252371 -1.025
317.25390625 3.1436699999999997 2.213313 -0.930357
317.78125 3.038157 2.207324 -0.830833
318.32421875 3.13449 2.259592 -0.874898
318.87890625 3.706651 2.75 -0.956651
319.42578125 3.300821 2.175519 -1.125302
319.9453125 2.973434 2.550056 -0.423378
320.53125 3.450976 2.301272 -1.149704
321.08203125 3.129944 2.5434 -0.586544
321.6171875 3.2363660000000003 1.941384 -1.294982
322.1484375 3.171616 2.044857 -1.126759
322.70703125 3.4013590000000002 2.192825 -1.208534
323.26953125 3.271071 1.989389 -1.281682
323.8203125 3.1246840000000002 1.953677 -1.171007
324.375 3.4725 2.2 -1.2725
324.91015625 3.4131430000000003 2.058244 -1.354899
325.4453125 3.8625629999999997 2.556943 -1.30562
325.9765625 3.16553 1.899086 -1.266444
326.5 3.684037 2.59 -1.094037
327.0703125 3.350812 2.000812 -1.35
327.625 3.8149360000000003 2.64 -1.174936
328.19140625 3.509472 2.225874 -1.283598
328.734375 3.4783160000000004 2.238316 -1.24
329.265625 3.264729 2.149729 -1.115
329.8046875 3.411378 2.201378 -1.21
330.34375 3.357817 2.192724 -1.165093
330.890625 3.218516 2.188516 -1.03
331.4453125 3.311394 2.413874 -0.89752
331.98828125 3.168721 2.203987 -0.964734
332.546875 3.396236 2.267153 -1.129083
333.078125 3.377896 2.309541 -1.068355
333.6171875 3.2702649999999998 2.405277 -0.864988
334.15234375 3.253982 2.43154 -0.822442
334.71875 3.367156 2.302156 -1.065
335.23046875 3.379593 2.864964 -0.514629
335.82421875 3.327182 2.18222 -1.144962
336.37890625 3.3358909999999997 2.281312 -1.054579
336.94140625 3.443643 2.288126 -1.155517
337.48046875 3.523588 2.324858 -1.19873
338.01953125 3.287199 2.219795 -1.067404
338.56640625 3.3703909999999997 2.161726 -1.208665
339.1171875 3.410707 2.103776 -1.306931
339.671875 3.353287 2.109939 -1.243348
340.2265625 3.19314 1.999695 -1.193445
340.78515625 3.368453 2.10867 -1.259783
341.3125 3.327476 2.016974 -1.310502
341.8515625 3.266297 2.15819 -1.108107
342.265625 3.458154 2.441875 -1.016279
342.93359375 3.451269 2.142235 -1.309034
343.46875 3.351458 2.081458 -1.27
344.02734375 3.245378 2.105426 -1.139952
344.59375 3.4892469999999998 2.149247 -1.34
345.140625 3.3529869999999997 2.073366 -1.279621
345.6796875 3.217409 2.000162 -1.217247
346.22265625 3.29814 2.072581 -1.225559
346.76171875 3.309699 2.087907 -1.221792
347.21484375 3.278377 2.328377 -0.95
347.87890625 3.4625389999999996 2.307644 -1.154895
348.44140625 3.388417 2.176272 -1.212145
348.98828125 3.328731 2.338999 -0.989732
349.52734375 3.063692 2.170296 -0.893396
350.0703125 3.176819 2.099456 -1.077363
350.62109375 3.413457 2.274464 -1.138993
351.16796875 3.5023429999999998 2.437709 -1.064634
351.70703125 3.271142 2.394768 -0.876374
352.26953125 3.4872699999999996 2.444965 -1.042305
352.83203125 3.3450879999999996 2.295626 -1.049462
353.37109375 3.284313 2.332005 -0.952308
353.90234375 3.236645 2.292109 -0.944536
354.453125 3.425953 2.373283 -1.05267
354.984375 3.284392 2.400935 -0.883457
355.53125 3.159679 2.370617 -0.789062
356.1015625 3.323803 2.337765 -0.986038
356.65625 3.387517 2.285125 -1.102392
357.203125 3.270085 2.340521 -0.929564
357.734375 3.193217 2.249366 -0.943851
358.28125 3.213197 2.226533 -0.986664
358.8359375 3.29914 2.12451 -1.17463
359.3828125 3.312004 2.152713 -1.159291
359.77734375 3.0751869999999997 2.149116 -0.926071
360.453125 3.288894 2.212301 -1.076593
361.03125 3.4095060000000004 2.194506 -1.215
361.57421875 3.274333 2.040486 -1.233847
362.11328125 3.052019 2.007025 -1.044994
362.66015625 3.259817 2.120562 -1.139255
363.19140625 3.218259 2.042533 -1.175726
363.74609375 3.0631180000000002 2.00875 -1.054368
364.31640625 3.2700259999999997 2.069794 -1.200232
364.859375 3.392864 2.169438 -1.223426
365.40234375 3.277149 2.072775 -1.204374
365.9296875 3.2056999999999998 2.080125 -1.125575
366.4765625 3.290992 2.057556 -1.233436
367.0078125 3.228083 2.173472 -1.054611
367.55859375 3.32057 2.227542 -1.093028
368.10546875 3.2559709999999997 2.149799 -1.106172
368.65234375 3.281378 2.197618 -1.08376
369.2109375 3.0783709999999997 2.099337 -0.979034
369.76171875 3.2330170000000003 2.222907 -1.01011
370.296875 3.178969 2.241799 -0.93717
370.83984375 3.178392 2.348392 -0.83
371.3828125 3.259617 2.234816 -1.024801
371.94921875 3.2388909999999997 2.13904 -1.099851
372.50390625 2.949928 2.056584 -0.893344
373.046875 2.940146 2.011803 -0.928343
373.48046875 3.078969 2.369955 -0.709014
374.1328125 3.215303 2.135532 -1.079771
374.6875 3.126994 2.064413 -1.062581
375.23046875 3.1663870000000003 2.074948 -1.091439
375.78515625 3.1324940000000003 1.943739 -1.188755
376.3203125 3.160875 1.997444 -1.163431
376.734375 3.070665 2.312284 -0.758381
377.41015625 3.221823 2.037293 -1.18453
377.95703125 3.186547 1.896802 -1.289745
378.5 3.123438 2.015 -1.108438
379.0390625 3.036811 1.987322 -1.049489
379.578125 3.12397 1.974736 -1.149234
380.14453125 3.231451 1.88841 -1.343041
380.6953125 3.119231 1.924745 -1.194486
381.23828125 3.041709 1.909752 -1.131957
381.7890625 3.097112 1.863256 -1.233856
382.32421875 3.250034 1.808228 -1.441806
382.86328125 3.1801019999999998 1.835137 -1.344965
383.3984375 3.029025 1.750778 -1.278247
383.95703125 3.3399789999999996 2.015224 -1.324755
384.49609375 3.308303 1.953303 -1.355
385.046875 3.205 1.98 -1.225
385.61328125 3.315824 1.923183 -1.392641
386.15625 3.2490069999999998 1.809674 -1.439333
386.6953125 3.140213 1.996007 -1.144206
387.23046875 3.3132280000000005 2.249868 -1.06336
387.7734375 3.233612 2.129498 -1.104114
388.34765625 3.447444 2.247445 -1.199999
388.8984375 3.261971 2.108415 -1.153556
389.4375 3.220027 2.186804 -1.033223
390.0 3.388853 2.27 -1.118853
390.53125 3.26333 2.115212 -1.148118
391.0703125 3.1220820000000002 2.126707 -0.995375
391.61328125 3.314509 2.244529 -1.06998
392.171875 3.298241 2.168311 -1.12993
392.70703125 3.089599 2.139937 -0.949662
393.26171875 3.224049 2.152626 -1.071423
393.8203125 3.248277 2.113357 -1.13492
394.359375 3.105998 2.080171 -1.025827
394.91015625 3.0629679999999997 2.078264 -0.984704
395.46484375 3.251935 2.173553 -1.078382
396.0 3.183527 2.115 -1.068527
396.5546875 2.959581 2.074778 -0.884803
397.0078125 3.0073290000000004 2.206125 -0.801204
397.671875 3.277787 2.107756 -1.170031
398.23046875 3.010012 1.950584 -1.059428
398.76953125 3.3375589999999997 2.154925 -1.182634
399.3125 3.2365909999999998 1.925 -1.311591
399.85546875 3.234403 1.978618 -1.255785
400.40625 3.182559 1.920286 -1.262273
400.953125 3.355696 1.973966 -1.38173
401.49609375 3.2245749999999997 1.817038 -1.407537
402.046875 3.1360799999999998 1.862586 -1.273494
402.6015625 3.368618 2.012646 -1.355972
403.1484375 3.322187 1.887187 -1.435
403.671875 3.265001 1.915824 -1.349177
404.2109375 3.182497 1.934179 -1.248318
404.76171875 3.120629 1.865054 -1.255575
405.34375 3.315911 1.950911 -1.365
405.87890625 3.3078089999999998 1.990384 -1.317425
406.4296875 3.183589 2.037319 -1.14627
406.953125 3.250379 2.110145 -1.140234
407.52734375 3.398183 2.170706 -1.227477
408.06640625 3.2282569999999997 2.134673 -1.093584
408.61328125 3.348926 2.325 -1.023926
409.1640625 3.334194 2.174194 -1.16
409.72265625 3.488532 2.289082 -1.19945
410.26953125 3.08214 2.123596 -0.958544
410.8125 3.189545 2.366526 -0.823019
411.35546875 3.06059 2.17059 -0.89
411.91015625 3.383712 2.228757 -1.154955
412.44140625 3.242858 2.23886 -1.003998
412.98828125 3.17 2.265 -0.905
413.55859375 3.210605 2.266051 -0.944554
414.1015625 3.2975390000000004 2.232727 -1.064812
414.66796875 3.371983 2.190326 -1.181657
415.1875 3.4103580000000004 2.212559 -1.197799
415.71875 3.182276 2.243761 -0.938515
416.265625 3.3078139999999996 2.234851 -1.072963
416.81640625 3.370231 2.123306 -1.246925
417.34765625 3.251674 2.098601 -1.153073
417.89453125 3.297418 2.124942 -1.172476
418.45703125 3.339634 1.983294 -1.35634
418.99609375 3.369065 2.120765 -1.2483
419.54296875 3.198109 1.991481 -1.206628
420.08984375 3.451666 2.196666 -1.255
420.63671875 3.4351580000000004 2.07363 -1.361528
421.1875 3.3125290000000005 2.022384 -1.290145
421.75 3.3963 2.185 -1.2113
422.3046875 3.4527789999999996 2.148297 -1.304482
422.85546875 3.4064389999999998 2.05 -1.356439
423.3828125 3.353615 2.151678 -1.201937
423.93359375 3.2563750000000002 2.132453 -1.123922
424.48046875 3.416241 2.254958 -1.161283
425.01953125 3.49294 2.214746 -1.278194
425.5546875 3.214119 2.157593 -1.056526
426.109375 3.433675 2.329418 -1.104257
426.6640625 3.3193659999999996 2.239349 -1.080017
427.203125 3.131007 2.151356 -0.979651
427.7421875 3.0408340000000003 2.093271 -0.947563
428.296875 3.2998540000000003 2.271304 -1.02855
428.828125 3.193269 2.204979 -0.98829
429.375 3.2278740000000004 2.345 -0.882874
429.94140625 3.2331130000000003 2.208482 -1.024631
430.5 3.3348440000000004 2.22 -1.114844
431.04296875 3.191902 2.322374 -0.869528
431.58203125 3.083272 2.131301 -0.951971
432.13671875 3.440777 2.395506 -1.045271
432.66796875 3.219291 2.136374 -1.082917
433.21484375 3.577959 2.329671 -1.248288
433.76171875 3.1679820000000003 2.204946 -0.963036
434.32421875 3.3822270000000003 2.252311 -1.129916
434.87890625 3.273663 2.174288 -1.099375
435.42578125 3.061071 2.107678 -0.953393
435.97265625 3.1103899999999998 2.036812 -1.073578
436.51953125 3.334888 1.984983 -1.349905
437.0390625 3.219431 1.958845 -1.260586
437.58203125 3.097652 1.897232 -1.20042
438.14453125 3.2319250000000004 1.989381 -1.242544
438.703125 3.391196 2.044739 -1.346457
439.23828125 3.2639139999999998 1.953624 -1.31029
439.69140625 3.130382 2.023076 -1.107306
440.30859375 3.371219 2.163365 -1.207854
440.86328125 3.35939 2.029489 -1.329901
441.41015625 3.240303 2.000665 -1.239638
441.93359375 3.16423 2.088035 -1.076195
442.484375 3.165781 2.069453 -1.096328
443.0390625 3.087412 2.02928 -1.058132
443.54296875 3.7818629999999995 2.503668 -1.278195
444.140625 3.432054 2.074015 -1.358039
444.68359375 3.238847 1.954293 -1.284554
445.2265625 3.505375 2.263398 -1.241977
445.7734375 3.22516 1.990463 -1.234697
446.328125 3.118745 2.077811 -1.040934
446.8828125 3.3183879999999997 2.109355 -1.209033
447.4296875 3.265916 2.117803 -1.148113
447.96875 3.2496919999999996 2.257147 -0.992545
448.49609375 3.052451 2.054315 -0.998136
449.03515625 3.2404070000000003 2.19 -1.050407
449.58203125 3.2295119999999997 2.235741 -0.993771
450.10546875 3.22418 2.534805 -0.689375
450.66796875 3.0959779999999997 2.106991 -0.988987
451.21484375 3.5823549999999997 2.722355 -0.86
451.765625 3.277184 2.258508 -1.018676
452.296875 3.660867 2.768889 -0.891978
452.84765625 3.231043 2.202871 -1.028172
453.39453125 3.604165 2.654546 -0.949619
453.9296875 3.149972 2.070046 -1.079926
454.484375 3.628304 2.73 -0.898304
455.05078125 3.494605 2.28324 -1.211365
455.6015625 3.742667 2.602942 -1.139725
456.14453125 3.36657 2.079964 -1.286606
456.6796875 3.768344 2.669095 -1.099249
457.2421875 3.3224419999999997 1.959622 -1.36282
457.79296875 4.011179 2.656179 -1.355
458.32421875 3.2405530000000002 1.936582 -1.303971
458.86328125 3.379473 2.607892 -0.771581
459.4375 3.42664 2.150049 -1.276591
459.96875 3.810781 2.653864 -1.156917
460.54296875 3.5506330000000004 2.343646 -1.206987
461.0859375 3.723681 2.684645 -1.039036
461.609375 3.330864 2.370112 -0.960752
462.15625 3.6966669999999997 2.916667 -0.78
462.73828125 3.5303269999999998 2.420371 -1.109956
463.28515625 3.917797 3.045361 -0.872436
463.8359375 3.2338180000000003 2.344012 -0.889806
464.359375 3.295643 2.928154 -0.367489
464.921875 3.250439 2.3405 -0.909939
465.41015625 3.7881650000000002 2.884339 -0.903826
466.01171875 3.367554 2.352864 -1.01469
466.5546875 3.110506 2.769344 -0.341162
467.11328125 3.2518450000000003 2.416952 -0.834893
467.6640625 3.571161 2.919924 -0.651237
468.23046875 3.2534020000000003 2.359773 -0.893629
468.7734375 3.3523240000000003 2.632324 -0.72
469.3046875 3.149215 2.449958 -0.699257
469.83984375 3.24304 2.658287 -0.584753
470.3828125 2.9580159999999998 2.315473 -0.642543
470.96484375 3.102351 2.261388 -0.840963
471.52734375 3.190074 2.195833 -0.994241
472.0703125 3.586778 2.707391 -0.879387
472.609375 3.256831 2.233784 -1.023047
473.15625 3.651674 2.63979 -1.011884
473.6875 3.1820779999999997 2.153016 -1.029062
474.203125 2.759648 2.629654 -0.129994
474.7890625 3.25907 2.208859 -1.050211
475.31640625 2.9345100000000004 2.43 -0.50451
475.89453125 3.2584159999999995 2.144792 -1.113624
476.41796875 3.5643029999999998 2.454684 -1.109619
477.00390625 3.261267 2.104899 -1.156368
477.54296875 3.4301130000000004 2.255113 -1.175
478.06640625 3.168108 2.0655 -1.102608
478.62890625 3.344693 2.461375 -0.883318
479.20703125 3.282418 2.01591 -1.266508
479.76171875 3.3086450000000003 2.263904 -1.044741
480.3125 3.177416 2.008788 -1.168628
480.85546875 3.77515 2.534928 -1.240222
481.40234375 3.2325369999999998 2.043635 -1.188902
481.91015625 2.925139 2.465155 -0.459984
482.5 3.4259630000000003 2.145 -1.280963
483.04296875 3.676705 2.518148 -1.158557
483.59765625 3.2560379999999998 2.177869 -1.078169
484.1328125 3.1027180000000003 2.62 -0.482718
484.71484375 3.4408380000000003 2.223618 -1.21722
485.25 3.228022 2.27 -0.958022
485.78515625 3.283934 2.323079 -0.960855
486.33203125 3.357435 2.382692 -0.974743
486.8984375 3.332687 2.348507 -0.98418
487.453125 3.352156 2.772849 -0.579307
488.0078125 3.405818 2.500818 -0.905
488.5625 3.278308 2.627357 -0.650951
489.09375 3.277806 2.382806 -0.895
489.64453125 3.8509089999999997 2.955838 -0.895071
490.1796875 3.367439 2.547595 -0.819844
490.69921875 3.672863 2.882913 -0.78995
491.2890625 3.42415 2.478786 -0.945364
491.796875 3.751084 2.804663 -0.946421
492.4140625 3.4074590000000002 2.368453 -1.039006
492.91796875 3.6588420000000004 2.668512 -0.99033
493.51953125 3.393524 2.139786 -1.253738
494.0546875 3.6778310000000003 2.467372 -1.210459
494.58984375 3.3378820000000005 2.058746 -1.279136
495.14453125 3.033456 2.155587 -0.877869
495.71875 3.3876809999999997 2.027681 -1.36
496.265625 3.404281 2.031616 -1.372665
496.8046875 3.242178 1.882473 -1.359705
497.33203125 3.288788 2.183788 -1.105
497.875 3.218906 1.78 -1.438906
498.421875 3.6034479999999998 2.279606 -1.323842
498.95703125 3.253524 1.796187 -1.457337
499.49609375 3.87848 2.388647 -1.489833
500.05078125 3.301286 1.876479 -1.424807
500.58984375 3.145101 2.330101 -0.815
501.15234375 3.451346 1.995453 -1.455893
501.69921875 3.876665 2.545965 -1.3307
502.24609375 3.611734 2.1175 -1.494234
502.7890625 3.386714 1.924616 -1.462098
503.34375 3.284756 2.047379 -1.237377
503.91015625 3.3008230000000003 2.07087 -1.229953
504.44921875 3.3640730000000003 2.129467 -1.234606
505.01953125 3.5528589999999998 2.139879 -1.41298
505.546875 3.4732089999999998 2.204417 -1.268792
506.078125 4.012989 2.731052 -1.281937
506.62890625 3.425303 2.182464 -1.242839
507.13671875 4.098802 2.7318 -1.367002
507.734375 3.406434 2.257867 -1.148567
508.28515625 3.20535 2.215999 -0.989351
508.83984375 3.406615 2.216615 -1.19
509.37109375 3.310134 2.232394 -1.07774
509.9140625 3.250192 2.324828 -0.925364
510.4453125 3.259526 2.257818 -1.001708
510.9921875 3.402409 2.256017 -1.146392
511.53515625 3.240067 2.241015 -0.999052
512.09765625 3.099868 2.241705 -0.858163
512.6015625 3.225014 2.233384 -0.99163
513.1953125 3.2577860000000003 2.243939 -1.013847
513.66015625 3.757355 2.607355 -1.15
514.2734375 3.4269249999999998 2.120413 -1.306512
514.8203125 3.13356 1.990694 -1.142866
515.359375 3.178427 2.035784 -1.142643
515.90625 3.447415 2.516037 -0.931378
516.4609375 3.3214360000000003 2.032106 -1.28933
517.03125 3.3749919999999998 2.309992 -1.065
517.5703125 3.261068 2.056917 -1.204151
518.109375 3.6156 2.487686 -1.127914
518.65625 3.4523900000000003 1.973182 -1.479208
519.19140625 3.2670969999999997 2.003097 -1.264
519.74609375 3.171004 1.961004 -1.21
520.3203125 3.422875 2.092586 -1.330289
520.8515625 3.20866 1.903685 -1.304975
521.3984375 3.287964 2.199377 -1.088587
521.92578125 3.352417 1.978281 -1.374136
522.47265625 3.671323 2.344306 -1.327017
523.00390625 3.302244 1.905867 -1.396377
523.54296875 3.751678 2.499684 -1.251994
524.09765625 3.3819679999999996 2.010338 -1.37163
524.6484375 3.4933889999999996 2.416641 -1.076748
525.19921875 3.1958900000000003 2.016026 -1.179864
525.73828125 3.3563520000000002 2.356059 -1.000293
526.27734375 3.202782 2.02911 -1.173672
526.8359375 3.8676399999999997 2.59 -1.27764
527.3671875 3.263187 2.203969 -1.059218
527.9140625 3.470291 2.592096 -0.878195
528.4921875 3.207984 2.319154 -0.88883
529.046875 3.539048 2.607089 -0.931959
529.62109375 3.427868 2.226483 -1.201385
530.14453125 3.200189 2.413908 -0.786281
530.6875 3.0648419999999996 2.139842 -0.925
531.23046875 3.1599019999999998 2.464902 -0.695
531.78515625 3.2206909999999995 2.110848 -1.109843
532.3203125 3.1957310000000003 2.346512 -0.849219
532.85546875 2.995504 2.169879 -0.825625
533.4140625 3.344643 2.555 -0.789643
533.96484375 3.31586 2.12586 -1.19
534.50390625 3.2545900000000003 2.298121 -0.956469
535.03515625 3.0207089999999996 2.085809 -0.9349
535.57421875 3.4763969999999995 2.473381 -1.003016
536.13671875 3.082877 1.87906 -1.203817
536.6953125 3.2587460000000004 2.25328 -1.005466
537.23046875 3.093158 1.954798 -1.13836
537.77734375 3.306463 2.394398 -0.912065
538.31640625 3.329852 2.038519 -1.291333
538.859375 3.247706 2.167706 -1.08
539.3984375 3.217728 1.841714 -1.376014
539.95703125 3.471264 2.156264 -1.315
540.4921875 3.113776 1.764817 -1.348959
541.05078125 3.742699 2.34342 -1.399279
541.6171875 3.33993 1.912823 -1.427107
542.16796875 3.934479 2.474793 -1.459686
542.71484375 3.237621 1.906708 -1.330913
543.2578125 3.605581 2.51448 -1.091101
543.8125 3.43175 2.06 -1.37175
544.3671875 3.2590510000000004 2.06191 -1.197141
544.91796875 3.223039 2.154943 -1.068096
545.4609375 3.130757 2.151648 -0.979109
546.01953125 3.2139860000000002 2.024724 -1.189262
546.55859375 3.343146 2.173146 -1.17
547.09765625 3.237121 2.198598 -1.038523
547.6328125 3.5013889999999996 2.629599 -0.87179
548.1953125 3.310858 2.172209 -1.138649
548.7265625 3.755026 2.802799 -0.952227
549.27734375 3.15048 2.235985 -0.914495
549.8046875 3.14 2.725 -0.415
550.3984375 3.277399 2.20004 -1.077359
550.9453125 3.212009 2.542065 -0.669944
551.484375 3.3175909999999997 2.311717 -1.005874
552.03125 3.210522 2.208906 -1.001616
552.58203125 3.1166859999999996 2.245929 -0.870757
553.15234375 3.07305 2.33641 -0.73664
553.6171875 3.277444 2.378265 -0.899179
554.25390625 3.208415 2.155456 -1.052959
554.7890625 3.157789 2.13974 -1.018049
555.33203125 3.186248 2.166504 -1.019744
555.8828125 3.197992 2.008193 -1.189799
556.421875 3.4117319999999998 2.396732 -1.015
556.95703125 3.028372 2.104891 -0.923481
557.46875 3.8231379999999997 2.608738 -1.2144
558.07421875 3.241741 1.946013 -1.295728
558.6171875 3.2529909999999997 2.035495 -1.217496
559.15234375 3.073668 1.973911 -1.099757
559.69921875 3.365485 2.150652 -1.214833
560.24609375 3.193055 1.846483 -1.346572
560.78515625 3.174664 1.917128 -1.257536
561.34765625 3.1314539999999997 1.96394 -1.167514
561.89453125 3.312712 2.054878 -1.257834
562.453125 3.244854 1.901165 -1.343689
562.98828125 3.171875 2.043778 -1.128097
563.52734375 3.228482 2.12894 -1.099542
564.08203125 3.311332 2.057551 -1.253781
564.64453125 3.24936 1.954905 -1.294455
565.18359375 3.193435 2.069556 -1.123879
565.73828125 3.134919 2.065 -1.069919
566.265625 3.176669 2.608301 -0.568368
566.84375 3.314238 2.189238 -1.125
567.33203125 3.792384 2.621649 -1.170735
567.9375 3.1555869999999997 2.00691 -1.148677
568.4921875 3.342966 2.173401 -1.169565
569.046875 3.278654 2.164193 -1.114461
569.60546875 3.1592119999999997 2.309957 -0.849255
570.140625 3.127739 2.219256 -0.908483
570.70703125 3.372108 2.323872 -1.048236
571.234375 3.1692290000000005 2.125351 -1.043878
571.7734375 3.021992 2.208387 -0.813605
572.28515625 3.023739 2.632329 -0.39141
572.87109375 3.355975 2.124201 -1.231774
573.40625 3.1484569999999996 2.123957 -1.0245
573.95703125 3.0330199999999996 2.142962 -0.890058
574.4921875 2.8947529999999997 2.509753 -0.385
575.078125 3.3818409999999997 2.132411 -1.24943
575.6171875 3.2969619999999997 2.238603 -1.058359
576.15625 3.130724 1.972048 -1.158676
576.7109375 3.252624 2.184552 -1.068072
577.26171875 3.1604419999999998 1.844344 -1.316098
577.8203125 3.147872 2.18243 -0.965442
578.37109375 3.208508 1.916156 -1.292352
578.9375 3.594231 2.349231 -1.245
579.4609375 3.165042 1.844732 -1.32031
580.00390625 3.488749 2.40678 -1.081969
580.546875 3.3108269999999997 2.057321 -1.253506
581.09375 3.570312 2.317812 -1.2525
581.63671875 3.275209 2.018048 -1.257161
582.18359375 3.488312 2.493834 -0.994478
582.74609375 3.4330819999999997 2.148395 -1.284687
583.2890625 3.3538040000000002 2.048804 -1.305
583.828125 3.366656 2.167322 -1.199334
584.36328125 3.087014 2.092041 -0.994973
584.91015625 3.469727 2.255776 -1.213951
585.46484375 3.410985 2.250985 -1.16
586.02734375 3.338812 2.249873 -1.088939
586.57421875 3.234121 2.439233 -0.794888
587.14453125 3.508641 2.369319 -1.139322
587.671875 3.7623670000000002 2.774039 -0.988328
588.21875 3.3231200000000003 2.301304 -1.021816
588.76171875 3.7717829999999997 2.869464 -0.902319
589.31640625 3.454359 2.331723 -1.122636
589.87109375 3.6545639999999997 2.635032 -1.019532
590.3515625 3.3003940000000003 2.277569 -1.022825
590.9765625 3.2796089999999998 2.471751 -0.807858
591.52734375 3.4410119999999997 2.336241 -1.104771
592.0859375 3.3657079999999997 2.219063 -1.146645
592.61328125 3.304423 2.241748 -1.062675
593.1484375 3.242468 2.387995 -0.854473
593.7109375 3.293457 2.248827 -1.04463
594.28125 3.6045030000000002 2.595573 -1.00893
594.80859375 3.262976 2.111843 -1.151133
595.35546875 3.7037310000000003 2.649935 -1.053796
595.890625 3.195561 2.147606 -1.047955
596.44921875 3.7943930000000003 2.663529 -1.130864
596.9921875 3.244562 2.051883 -1.192679
597.52734375 3.366995 2.397421 -0.969574
598.08203125 3.3319859999999997 2.25 -1.081986
598.65234375 3.743899 2.689865 -1.054034
599.21484375 3.380879 2.155879 -1.225
599.75 3.408328 2.405 -1.003328
600.3046875 3.226815 2.22221 -1.004605
600.85546875 3.5848940000000002 2.629894 -0.955
601.40625 3.315962 2.029293 -1.286669
601.95703125 3.330037 2.355037 -0.975
602.51171875 3.196198 2.237626 -0.958572
603.06640625 3.802561 2.785 -1.017561
603.6328125 3.493657 2.329198 -1.164459
604.16796875 3.257194 2.123714 -1.13348
604.6953125 3.148597 2.206452 -0.942145
605.2421875 3.227746 2.417954 -0.809792
605.78125 3.221365 2.257772 -0.963593
606.34765625 3.394896 2.356415 -1.038481
606.8984375 3.268901 2.334846 -0.934055
607.4609375 3.164012 2.329012 -0.835
607.99609375 3.7338820000000004 2.280917 -1.452965
608.56640625 3.417737 2.399546 -1.018191
609.09375 3.2074279999999997 2.318291 -0.889137
609.640625 3.66253 2.855 -0.80753
610.21484375 3.4181600000000003 2.407411 -1.010749
610.76953125 3.731662 2.74 -0.991662
611.30859375 3.169839 2.444478 -0.725361
611.82421875 3.8389819999999997 2.808982 -1.03
612.41796875 3.203439 2.175626 -1.027813
612.95703125 3.046026 2.225243 -0.820783
613.5234375 3.2972159999999997 2.293154 -1.004062
614.05078125 3.129919 2.134914 -0.995005
614.609375 3.189851 2.167083 -1.022768
615.16796875 3.226134 2.102263 -1.123871
615.71875 3.1835009999999997 2.060956 -1.122545
616.25 3.176437 2.2 -0.976437
616.80078125 3.283582 2.074722 -1.20886
617.33203125 3.119118 1.983874 -1.135244
617.87890625 3.0217349999999996 2.0239 -0.997835
618.41015625 2.994627 2.472593 -0.522034
618.99609375 3.357656 2.161156 -1.1965
619.5390625 3.201964 2.1666 -1.035364
620.0859375 3.218933 2.239354 -0.979579
620.63671875 3.273021 2.199637 -1.073384
621.1640625 3.252933 2.145592 -1.107341
621.71875 3.1827690000000004 2.118193 -1.064576
622.25390625 3.238138 2.206926 -1.031212
622.828125 3.1870190000000003 2.06035 -1.126669
623.37109375 3.1511310000000003 2.052131 -1.099
623.9296875 3.750456 2.665485 -1.084971
624.47265625 3.171012 2.213274 -0.957738
624.984375 3.832157 2.699922 -1.132235
625.578125 3.348082 2.263082 -1.085
626.07421875 3.737197 2.662209 -1.074988
626.6875 3.2486 2.370937 -0.877663
627.20703125 3.694089 2.763668 -0.930421
627.8203125 3.323135 2.199415 -1.12372
628.35546875 3.193218 2.244741 -0.948477
628.88671875 3.073091 2.213596 -0.859495
629.4296875 3.2247459999999997 2.28 -0.944746
630.0 3.312801 2.155 -1.157801
630.51953125 3.2543550000000003 2.234779 -1.019576
631.0703125 3.193909 2.232139 -0.96177
631.625 3.1878520000000004 2.14 -1.047852
632.19921875 3.3278670000000004 2.122952 -1.204915
632.7265625 3.4333359999999997 2.430703 -1.002633
633.26953125 3.1279770000000005 2.099689 -1.028288
633.765625 3.584518 2.61 -0.974518
634.37109375 3.378074 2.247035 -1.131039
634.9453125 2.925996 2.398132 -0.527864
635.5 3.2679150000000003 2.16 -1.107915
636.0546875 3.123752 2.359459 -0.764293
636.48828125 3.1722230000000002 2.221928 -0.950295
637.14453125 3.191558 2.009821 -1.181737
637.68359375 3.0009639999999997 1.963824 -1.03714
638.25 3.278049 2.055 -1.223049
638.79296875 3.297565 1.977983 -1.319582
639.34765625 3.1484680000000003 1.918468 -1.23
639.90234375 3.1566710000000002 1.981412 -1.175259
640.46484375 3.2116290000000003 1.94604 -1.265589
641.00390625 3.2621079999999996 2.064113 -1.197995
641.515625 3.599589 2.370328 -1.229261
642.0859375 3.3089589999999998 2.108749 -1.20021
642.6015625 3.8043299999999998 2.615121 -1.189209
643.21484375 3.290757 2.063373 -1.227384
643.76953125 3.149844 2.124844 -1.025
644.19140625 3.335986 2.379105 -0.956881
644.84375 3.322048 2.197048 -1.125
645.39453125 3.2063879999999996 2.171388 -1.035
645.93359375 3.213777 2.314491 -0.899286
646.5078125 3.418792 2.334621 -1.084171
647.05078125 3.237891 2.265392 -0.972499
647.6015625 3.150102 2.318718 -0.831384
648.1640625 3.3441859999999997 2.359609 -0.984577
648.73046875 3.4399450000000003 2.390585 -1.04936
649.19140625 3.218972 2.384797 -0.834175
649.8046875 3.387844 2.333131 -1.054713
650.359375 3.3938499999999996 2.289277 -1.104573
650.91796875 3.3120339999999997 2.248518 -1.063516
651.484375 3.096435 2.225194 -0.871241
652.03515625 3.178069 2.099974 -1.078095
652.58984375 3.434805 2.239805 -1.195
653.12109375 3.331099 2.246229 -1.08487
653.66796875 3.1320490000000003 2.184626 -0.947423
654.2109375 3.234597 2.154238 -1.080359
654.7734375 3.404224 2.084648 -1.319576
655.30859375 3.257573 2.08947 -1.168103
655.859375 3.138092 2.10316 -1.034932
656.43359375 3.2285510000000004 2.086809 -1.141742
656.98828125 3.360952 2.021218 -1.339734
657.53125 3.254017 2.074234 -1.179783
658.07421875 3.144604 2.109705 -1.034899
658.6328125 3.42375 2.112618 -1.311132
659.19140625 3.299732 1.864732 -1.435
659.74609375 3.191863 2.040737 -1.151126
660.30078125 3.239415 2.111022 -1.128393
660.85546875 3.169744 2.129744 -1.04
661.3984375 3.2082930000000003 2.24 -0.968293
661.96484375 3.4139 2.299306 -1.114594
662.515625 3.401873 2.252853 -1.14902
663.0625 3.304714 2.39622 -0.908494
663.609375 3.186273 2.246314 -0.939959
664.18359375 3.414307 2.261928 -1.152379
664.75 3.283957 2.22 -1.063957
665.29296875 3.200976 2.340815 -0.860161
665.83984375 3.3254979999999996 2.276375 -1.049123
666.38671875 3.408682 2.259806 -1.148876
666.9296875 3.483136 2.453826 -1.02931
667.48046875 3.3159799999999997 2.40473 -0.91125
668.0546875 3.212066 2.314017 -0.898049
668.60546875 3.4341109999999997 2.389989 -1.044122
669.15234375 3.335705 2.392236 -0.943469
669.68359375 3.297777 2.464088 -0.833689
670.23046875 3.188409 2.36978 -0.818629
670.796875 3.321212 2.336298 -0.984914
671.34375 3.2562499999999996 2.203975 -1.052275
671.89453125 3.201842 2.293879 -0.907963
672.44921875 3.12934 2.324422 -0.804918
673.0234375 3.421502 2.407621 -1.013881
673.5703125 3.321946 2.254651 -1.067295
674.1171875 3.292244 2.238026 -1.054218
674.65625 3.220962 2.40359 -0.817372
675.21875 3.381418 2.311418 -1.07
675.77734375 3.319063 2.234433 -1.08463
676.33984375 3.09723 2.16 -0.93723
676.8828125 3.400212 2.369875 -1.030337
677.44921875 3.428197 2.293202 -1.134995
677.9765625 3.145428 2.150789 -0.994639
678.515625 3.2139640000000003 2.230259 -0.983705
679.08203125 3.3276630000000003 2.123826 -1.203837
679.625 3.14059 2.045 -1.09559
680.17578125 3.0744179999999997 2.134689 -0.939729
680.73046875 3.318597 2.199671 -1.118926
681.3046875 3.312292 2.113927 -1.198365
681.84375 3.266368 2.137221 -1.129147
682.390625 3.267752 2.293794 -0.973958
682.93359375 3.341445 2.215875 -1.12557
683.484375 3.4021 2.189863 -1.212237
684.046875 3.189612 2.10504 -1.084572
684.6171875 3.280355 2.166992 -1.113363
685.17578125 3.309709 2.186988 -1.122721
685.72265625 3.315206 2.29411 -1.021096
686.25390625 3.415432 2.305936 -1.109496
686.8125 3.30291 2.216199 -1.086711
687.3671875 3.211535 2.26249 -0.949045
687.90234375 3.183026 2.255623 -0.927403
688.47265625 3.336398 2.246398 -1.09
689.01953125 3.237301 2.20994 -1.027361
689.58203125 3.026528 2.301555 -0.724973
690.1171875 3.21136 2.199818 -1.011542
690.67578125 3.270775 2.167382 -1.103393
691.20703125 3.136748 2.208106 -0.928642
691.75390625 3.048091 2.129412 -0.918679
692.328125 3.3822400000000004 2.16224 -1.22
692.890625 3.282813 2.096689 -1.186124
693.4375 3.1891249999999998 2.127339 -1.061786
693.9921875 3.2254359999999997 2.086343 -1.139093
694.53515625 3.33368 2.088806 -1.244874
695.07421875 3.141831 2.026479 -1.115352
695.625 3.0904 2.08 -1.0104
696.171875 2.951791 1.97885 -0.972941
696.75390625 3.304916 1.996947 -1.307969
697.3046875 3.100681 1.978025 -1.122656
697.859375 3.036038 1.986187 -1.049851
698.41015625 3.236585 1.997329 -1.239256
698.97265625 3.320207 2.004682 -1.315525
699.50390625 3.115414 1.960936 -1.154478
700.0546875 3.1863960000000002 2.114806 -1.07159
700.6328125 3.2620329999999997 2.01349 -1.248543
701.1953125 3.2864310000000003 1.99177 -1.294661
701.7421875 3.1642779999999995 2.112233 -1.052045
702.2734375 3.1537110000000004 2.086167 -1.067544
702.82421875 3.2755400000000003 2.035572 -1.239968
703.36328125 3.20537 2.085565 -1.119805
703.91796875 3.192632 2.20351 -0.989122
704.4609375 3.326974 2.209717 -1.117257
705.015625 3.290136 2.253199 -1.036937
705.5625 3.2179260000000003 2.212984 -1.004942
706.1171875 3.334505 2.216153 -1.118352
706.671875 3.321508 2.149137 -1.172371
707.2109375 3.231267 2.119594 -1.111673
707.75390625 3.237767 2.094843 -1.142924
708.328125 3.509234 2.267736 -1.241498
708.8984375 3.311322 2.091492 -1.21983
709.44921875 3.203118 2.099457 -1.103661
710.00390625 3.401326 2.127663 -1.273663
710.546875 3.390498 2.181303 -1.209195
711.09765625 3.347035 2.177035 -1.17
711.63671875 3.404744 2.284819 -1.119925
712.19140625 3.344646 2.226341 -1.118305
712.734375 3.310719 2.332129 -0.97859
713.2890625 3.2964059999999997 2.399173 -0.897233
713.859375 3.343433 2.398468 -0.944965
714.3984375 3.400296 2.561195 -0.839101
714.9453125 3.1749669999999997 2.412403 -0.762564
715.4921875 3.3291370000000002 2.446673 -0.882464
716.0390625 3.414167 2.464377 -0.94979
716.58984375 3.134631 2.331423 -0.803208
717.15234375 3.146284 2.299617 -0.846667
717.71484375 3.3302199999999997 2.247368 -1.082852
718.265625 3.381423 2.38741 -0.994013
718.80078125 3.293304 2.215417 -1.077887
719.36328125 3.422088 2.301908 -1.12018
719.90234375 3.189935 2.284196 -0.905739
720.4609375 3.143729 2.317722 -0.826007
721.01953125 3.1766069999999997 2.329767 -0.84684
721.57421875 3.021967 2.081973 -0.939994
722.15234375 3.260947 2.172311 -1.088636
722.70703125 3.238766 2.196764 -1.042002
723.2578125 3.15054 2.18347 -0.96707
723.8046875 3.3164249999999997 2.201495 -1.11493
724.34765625 3.2011689999999997 2.233951 -0.967218
724.90625 3.101496 2.119234 -0.982262
725.484375 3.376086 2.364453 -1.011633
726.015625 3.224222 2.349402 -0.87482
726.56640625 3.402976 2.378596 -1.02438
727.109375 3.2708579999999996 2.195909 -1.074949
727.6484375 3.1162080000000003 2.341997 -0.774211
728.203125 3.045984 2.225199 -0.820785
728.74609375 3.417052 2.269509 -1.147543
729.27734375 3.094857 2.1551 -0.939757
729.859375 3.1573640000000003 2.287465 -0.869899
730.44140625 3.293909 2.121928 -1.171981
730.98828125 3.3442109999999996 2.19927 -1.144941
731.53515625 3.236568 2.302445 -0.934123
732.08984375 3.340932 2.2418 -1.099132
732.640625 3.2194450000000003 2.206602 -1.012843
733.203125 3.10094 2.119919 -0.981021
733.77734375 3.4123550000000002 2.214154 -1.198201
734.3203125 3.2433959999999997 2.088453 -1.154943
734.875 3.2738620000000003 2.18 -1.093862
735.41796875 3.34398 2.107035 -1.236945
735.95703125 3.2125209999999997 1.956284 -1.256237
736.5234375 3.343287 2.158387 -1.1849
737.0625 3.2725530000000003 2.138571 -1.133982
737.63671875 3.260051 2.094529 -1.165522
738.17578125 3.2508470000000003 2.222382 -1.028465
738.7421875 3.380042 2.225091 -1.154951
739.28125 3.416156 2.343994 -1.072162
739.82421875 3.343673 2.468697 -0.874976
740.36328125 3.160996 2.395183 -0.765813
740.9140625 3.164695 2.283936 -0.880759
741.5 3.362471 2.31 -1.052471
742.0546875 3.292464 2.342737 -0.949727
742.6015625 3.173707 2.360607 -0.8131
743.16015625 3.290254 2.255355 -1.034899
743.7265625 3.327611 2.227801 -1.09981
744.2734375 3.222637 2.219015 -1.003622
744.83203125 3.376389 2.295243 -1.081146
745.3828125 3.350393 2.100495 -1.249898
745.9375 3.217492 2.133621 -1.083871
746.49609375 3.181412 2.120581 -1.060831
747.06640625 3.3882570000000003 2.091717 -1.29654
747.60546875 3.3134680000000003 2.044814 -1.268654
748.1484375 3.207154 2.056366 -1.150788
748.69140625 3.4818700000000002 2.087867 -1.394003
749.25 3.348862 1.995 -1.353862
749.8125 3.2179979999999997 2.018589 -1.199409
750.3671875 3.432146 2.057025 -1.375121
750.9296875 3.2896799999999997 1.980314 -1.309366
751.46484375 3.269667 2.003754 -1.265913
752.01171875 3.3120769999999995 2.00512 -1.306957
752.5625 3.334542 1.941526 -1.393016
753.10546875 3.362254 2.113542 -1.248712
753.65234375 3.2777 2.066807 -1.210893
754.22265625 3.3907920000000003 2.024556 -1.366236
754.79296875 3.3262609999999997 1.916718 -1.409543
755.3359375 3.3734129999999998 2.113822 -1.259591
755.890625 3.399648 2.047172 -1.352476
756.44140625 3.543841 2.137435 -1.406406
756.98046875 3.7136579999999997 2.579904 -1.133754
757.55078125 3.4690260000000004 2.133351 -1.335675
758.125 3.442509 2.155 -1.287509
758.67578125 3.268687 2.078877 -1.18981
759.23828125 3.412344 2.137396 -1.274948
759.77734375 3.3877230000000003 2.075644 -1.312079
760.32421875 3.422683 2.317722 -1.104961
760.86328125 3.380666 2.365371 -1.015295
761.421875 3.4653850000000004 2.262411 -1.202974
761.97265625 3.4058029999999997 2.198235 -1.207568
762.515625 3.255478 2.26741 -0.988068
763.08203125 3.234944 2.2006 -1.034344
763.63671875 3.63902 2.739741 -0.899279
764.1875 3.4322429999999997 2.420343 -1.0119
764.72265625 3.524083 2.749206 -0.774877
765.2734375 3.2609200000000005 2.271555 -0.989365
765.84765625 3.776255 2.839859 -0.936396
766.4140625 3.281725 2.415124 -0.866601
766.9609375 3.762504 2.790551 -0.971953
767.52734375 3.324097 2.358204 -0.965893
768.06640625 3.451672 2.682857 -0.768815
768.62109375 3.338641 2.359215 -0.979426
769.19140625 3.311983 2.524651 -0.787332
769.7265625 3.252339 2.275 -0.977339
770.28515625 3.2073270000000003 2.527327 -0.68
770.859375 3.3626120000000004 2.22271 -1.139902
771.41796875 3.306153 2.458202 -0.847951
771.9609375 3.070291 2.024979 -1.045312
772.49609375 2.969877 2.425 -0.544877
773.0546875 3.257396 2.042529 -1.214867
773.60546875 3.690765 2.594976 -1.095789
774.16796875 3.3468210000000003 2.03125 -1.315571
774.73046875 3.817216 2.569966 -1.24725
775.2734375 3.293768 2.149573 -1.144195
775.8046875 3.147144 2.522144 -0.625
776.3828125 3.413653 2.038727 -1.374926
776.921875 3.905316 2.614905 -1.290411
777.48046875 3.1597030000000004 2.089703 -1.07
778.03515625 3.7935879999999997 2.642699 -1.150889
778.59375 3.365676 2.135676 -1.23
779.14453125 3.749137 2.669995 -1.079142
779.71875 3.2044499999999996 2.14945 -1.055
780.28515625 3.634328 2.680242 -0.954086
780.83203125 3.311896 2.24049 -1.071406
781.3671875 3.61633 2.709079 -0.907251
781.91796875 3.253608 2.213483 -1.040125
782.49609375 3.88057 2.830785 -1.049785
783.0625 3.294037 2.366071 -0.927966
783.59765625 3.750966 2.864536 -0.88643
784.1484375 3.160103 2.296316 -0.863787
784.66015625 3.18777 2.758474 -0.429296
785.2421875 3.3024440000000004 2.361289 -0.941155
785.79296875 3.554535 2.703735 -0.8508
786.328125 3.264603 2.322017 -0.942586
786.90234375 3.8336180000000004 2.844844 -0.988774
787.44921875 3.3372840000000004 2.527381 -0.809903
788.0078125 3.261101 2.61475 -0.646351
788.54296875 3.138287 2.242051 -0.896236
789.10546875 3.2435089999999995 2.194695 -1.048814
789.640625 3.1950860000000003 2.218783 -0.976303
790.19140625 3.17347 2.253766 -0.919704
790.7578125 3.027804 2.172804 -0.855
791.328125 3.281537 2.151498 -1.130039
791.8828125 3.230648 2.091805 -1.138843
792.43359375 3.58814 2.558633 -1.029507
792.97265625 3.006694 2.138179 -0.868515
793.49609375 3.019516 2.48 -0.539516
794.09765625 3.264132 2.101099 -1.163033
794.6328125 3.6371960000000003 2.449151 -1.188045
795.19140625 3.0995280000000003 2.122164 -0.977364
795.70703125 3.053247 2.534906 -0.518341
796.3203125 3.343113 2.103259 -1.239854
796.85546875 3.783138 2.549952 -1.233186
797.40234375 3.279814 2.245107 -1.034707
797.9453125 3.770781 2.657921 -1.11286
798.5078125 3.331519 2.04842 -1.283099
799.06640625 3.145442 2.115 -1.030442
799.60546875 3.164513 2.21881 -0.945703
800.171875 3.308815 2.181342 -1.127473
800.7109375 3.3330599999999997 2.244302 -1.088758
801.25390625 3.210132 2.160353 -1.049779
801.79296875 3.187764 2.22894 -0.958824
802.3515625 3.307232 2.228572 -1.07866
802.87890625 3.185253 2.381068 -0.804185
803.4375 3.792128 2.923661 -0.868467
804.00390625 3.165763 2.301021 -0.864742
804.5234375 3.805244 2.87 -0.935244
805.1171875 3.274531 2.40816 -0.866371
805.6640625 3.296906 2.499343 -0.797563
806.21484375 3.2724840000000004 2.330827 -0.941657
806.76171875 3.10201 2.40874 -0.69327
807.3203125 3.049911 2.414997 -0.634914
807.875 3.151894 2.335 -0.816894
808.44921875 3.316923 2.33194 -0.984983
808.9765625 3.484432 2.768687 -0.715745
809.515625 3.093007 2.314849 -0.778158
810.01953125 3.129704 2.754994 -0.37471
810.6015625 3.2870369999999998 2.371089 -0.915948
811.14453125 3.228768 2.389917 -0.838851
811.69921875 3.197405 2.282523 -0.914882
812.26953125 3.725415 2.769994 -0.955421
812.80859375 3.3236790000000003 2.37075 -0.952929
813.35546875 3.55606 2.78499 -0.77107
813.90234375 3.4142010000000003 2.295623 -1.118578
814.4453125 3.4426319999999997 2.536812 -0.90582
814.99609375 3.265872 2.291497 -0.974375
815.56640625 3.099254 2.395 -0.704254
816.12890625 3.404643 2.225265 -1.179378
816.6875 3.1541560000000004 2.182192 -0.971964
817.2109375 3.280916 2.193921 -1.086995
817.7578125 3.4984409999999997 2.533632 -0.964809
818.3125 3.448035 2.113621 -1.334414
818.85546875 3.9225779999999997 2.624907 -1.297671
819.39453125 3.153974 2.11497 -1.039004
819.9140625 3.713634 2.57 -1.143634
820.51171875 3.162147 2.142446 -1.019701
821.01953125 3.770542 2.694964 -1.075578
821.6328125 3.464902 2.305475 -1.159427
822.16015625 3.8506279999999995 2.72753 -1.123098
822.7109375 3.404008 2.359417 -1.044591
823.2890625 3.392883 2.569655 -0.823228
823.84375 3.3342140000000002 2.404214 -0.93
824.3828125 3.121683 2.346445 -0.775238
824.93359375 3.068467 2.359905 -0.708562
825.48046875 3.348388 2.299724 -1.048664
826.04296875 3.409004 2.448091 -0.960913
826.58203125 3.451863 2.748856 -0.703007
827.125 3.145439 2.455 -0.690439
827.69140625 3.630238 2.919949 -0.710289
828.265625 3.33393 2.407273 -0.926657
828.8046875 3.063184 2.800106 -0.263078
829.375 3.243482 2.42 -0.823482
829.92578125 3.668032 2.844447 -0.823585
830.47265625 3.225505 2.322382 -0.903123
831.04296875 3.37947 2.57447 -0.805
831.59765625 3.333811 2.330636 -1.003175
832.16015625 3.1270569999999998 2.313472 -0.813585
832.70703125 3.1658939999999998 2.261815 -0.904079
833.27734375 3.343947 2.418947 -0.925
833.8046875 3.2383800000000003 2.126271 -1.112109
834.33984375 3.721633 2.627895 -1.093738
834.91015625 3.391713 2.239207 -1.152506
835.4609375 3.7852040000000002 2.494905 -1.290299
836.01171875 3.192318 2.072318 -1.12
836.5703125 3.66884 2.708577 -0.960263
837.1484375 3.379422 2.186773 -1.192649
837.7109375 3.2769760000000003 2.173849 -1.103127
838.24609375 3.363868 2.127092 -1.236776
838.78515625 3.3357740000000002 2.276168 -1.059606
839.35546875 3.426004 2.154109 -1.271895
839.94140625 3.533438 2.199239 -1.334199
840.49609375 3.356172 2.173138 -1.183034
841.04296875 3.324184 2.218482 -1.105702
841.58984375 3.467818 2.219619 -1.248199
842.15234375 3.617757 2.344821 -1.272936
842.69140625 3.332568 2.22325 -1.109318
843.24609375 3.704689 2.684721 -1.019968
843.796875 3.415579 2.136109 -1.27947
844.37109375 3.4706140000000003 2.217769 -1.252845
844.92578125 3.44312 2.359267 -1.083853
845.46875 3.942544 2.9526 -0.989944
846.02734375 3.615921 2.461157 -1.154764
846.58203125 3.602379 2.51948 -1.082899
847.12890625 3.304768 2.396807 -0.907961
847.68359375 3.239074 2.493627 -0.745447
848.265625 3.378471 2.420432 -0.958039
848.6875 3.3932330000000004 2.704804 -0.688429
849.359375 3.358766 2.607303 -0.751463
849.8671875 3.6290299999999998 2.88278 -0.74625
850.4609375 3.5096060000000002 2.584827 -0.924779
851.0234375 3.409312 2.395 -1.014312
851.56640625 3.363809 2.442425 -0.921384
852.12890625 3.224496 2.28 -0.944496
852.6875 3.3145759999999997 2.327187 -0.987389
853.2734375 3.386414 2.154349 -1.232065
853.81640625 3.3260310000000004 2.152515 -1.173516
854.3671875 3.249643 2.193995 -1.055648
854.91796875 3.344376 2.19 -1.154376
855.47265625 3.225623 2.169585 -1.056038
856.03125 3.289833 2.108174 -1.181659
856.59765625 3.5235339999999997 2.484276 -1.039258
857.16015625 3.4442130000000004 2.188171 -1.256042
857.671875 4.0256170000000004 2.539663 -1.485954
858.25 3.3565709999999997 2.085 -1.271571
858.76953125 3.024585 2.564937 -0.459648
859.37109375 3.456633 2.119339 -1.337294
859.91015625 3.28607 2.074929 -1.211141
860.484375 3.39469 2.108156 -1.286534
861.02734375 3.243258 2.251036 -0.992222
861.6015625 3.376195 2.241918 -1.134277
862.15625 3.4580759999999997 2.242205 -1.215871
862.703125 3.246325 2.196511 -1.049814
863.23828125 3.2487009999999996 2.343752 -0.904949
863.796875 3.133218 2.326608 -0.80661
864.38671875 3.7589069999999998 2.874122 -0.884785
864.95703125 3.37065 2.359717 -1.010933
865.4765625 2.897717 2.713935 -0.183782
866.06640625 3.33743 2.417566 -0.919864
866.625 3.764867 2.83 -0.934867
867.1640625 3.247356 2.408718 -0.838638
867.71875 3.121977 2.371977 -0.75
868.2734375 3.397369 2.382767 -1.014602
868.83203125 3.134915 2.270228 -0.864687
869.3828125 3.085461 2.38436 -0.701101
869.94140625 3.291376 2.357446 -0.93393
870.48828125 3.214739 2.210452 -1.004287
871.03125 3.197124 2.353961 -0.843163
871.56640625 3.061411 2.28443 -0.776981
872.1328125 3.340921 2.25209 -1.088831
872.70703125 3.55433 2.19268 -1.36165
873.265625 3.488065 2.392332 -1.095733
873.81640625 3.139751 2.294674 -0.845077
874.34375 3.164082 2.449082 -0.715
874.8984375 3.09222 2.289654 -0.802566
875.390625 3.725357 2.660357 -1.065
876.0078125 3.2488249999999996 2.253846 -0.994979
876.5703125 3.169938 2.141515 -1.028423
877.14453125 3.323579 1.91974 -1.403839
877.703125 3.143048 2.018934 -1.124114
878.2578125 2.903483 1.918594 -0.984889
878.8203125 3.5289409999999997 2.409344 -1.119597
879.37109375 3.335399 1.851156 -1.484243
879.91015625 3.0148960000000002 1.833392 -1.181504
880.46875 2.975535 1.90202 -1.073515
881.04296875 2.924947 1.954678 -0.970269
881.5859375 2.995684 1.999039 -0.996645
882.140625 2.940545 2.00732 -0.933225
882.6796875 2.9456100000000003 1.965044 -0.980566
883.23828125 2.883306 1.923369 -0.959937
883.80078125 3.1385490000000003 1.891968 -1.246581
884.1953125 3.217034 1.304934 -1.9121
884.453125 2.189835 -0.074914 -2.264749
885.41796875 3.0896689999999998 2.050372 -1.039297
886.01171875 3.25514 2.050645 -1.204495
886.55078125 3.160689 2.249574 -0.911115
887.109375 3.104062 2.251113 -0.852949
887.6484375 3.1283139999999996 2.563951 -0.564363
888.2109375 3.249295 2.264085 -0.98521
888.76171875 3.373412 2.630808 -0.742604
889.34375 3.3271490000000004 2.147149 -1.18
889.8828125 3.204523 2.249186 -0.955337
890.43359375 3.042107 2.229331 -0.812776
890.96484375 2.9159580000000003 2.005958 -0.91
891.52734375 3.1177099999999998 1.972853 -1.144857
892.07421875 3.067564 1.897673 -1.169891
892.61328125 2.843827 2.004208 -0.839619
893.171875 3.2592 1.989286 -1.269914
893.70703125 3.128878 1.932894 -1.195984
894.26171875 3.767416 2.458644 -1.308772
894.8125 3.116169 2.1215 -0.994669
895.32421875 3.6316499999999996 2.440374 -1.191276
896.4453125 3.393563 2.419478 -0.974085
897.0234375 3.3765549999999998 1.868015 -1.50854
897.58984375 3.216452 1.876223 -1.340229
898.12890625 3.14772 1.948657 -1.199063
898.68359375 3.081667 1.923938 -1.157729
899.234375 3.226522 1.913088 -1.313434
899.78125 3.2365909999999998 1.944212 -1.292379
900.33203125 3.034352 1.928597 -1.105755
900.88671875 3.319643 2.324653 -0.99499
901.44140625 3.097462 1.802748 -1.294714
901.94921875 3.7608740000000003 2.429002 -1.331872
902.55859375 3.181735 2.030876 -1.150859
903.1171875 3.311487 2.150418 -1.161069
903.66015625 3.5482639999999996 2.580313 -0.967951
904.19921875 3.1546849999999997 2.134712 -1.019973
904.76171875 3.4504509999999997 2.178841 -1.27161
905.31640625 3.2324029999999997 2.062537 -1.169866
905.875 3.220302 2.15 -1.070302
906.4140625 3.2544839999999997 2.119484 -1.135
906.98828125 3.386254 2.165771 -1.220483
907.51953125 3.2643310000000003 2.244758 -1.019573
908.04296875 3.514875 1.988328 -1.526547
908.59375 2.963094 2.518309 -0.444785
909.17578125 3.2799579999999997 2.128692 -1.151266
909.73828125 3.5433 2.71 -0.8333
910.28515625 3.034596 2.164596 -0.87
910.875 3.111767 2.125 -0.986767
911.4140625 3.171822 2.174935 -0.996887
911.97265625 3.1682639999999997 2.292442 -0.875822
912.52734375 3.28305 2.029737 -1.253313
913.07421875 3.142191 2.007606 -1.134585
913.64453125 2.98073 2.06085 -0.91988
914.22265625 3.143872 1.94267 -1.201202
914.77734375 2.993797 1.804582 -1.189215
915.32421875 3.420082 2.314533 -1.105549
915.87890625 3.177849 1.928452 -1.249397
916.4375 3.6837809999999998 2.508625 -1.175156
916.9921875 3.164031 1.921276 -1.242755
917.53515625 3.088426 2.178426 -0.91
918.10546875 3.227134 1.86482 -1.362314
918.66015625 3.046408 1.79281 -1.253598
919.23046875 3.222297 1.884787 -1.33751
919.7734375 3.230207 1.921935 -1.308272
920.32421875 3.086424 1.909942 -1.176482
920.875 3.342242 2.015 -1.327242
921.4375 3.205518 1.920649 -1.284869
921.890625 3.073669 2.125633 -0.948036
922.55859375 3.351334 2.10183 -1.249504
923.08203125 3.563739 2.538469 -1.02527
923.6796875 3.227382 2.160326 -1.067056
924.23828125 3.1781509999999997 2.153546 -1.024605
924.6328125 3.1843619999999997 2.361375 -0.822987
925.3046875 3.1475730000000004 2.24318 -0.904393
925.87890625 3.221833 2.222465 -0.999368
926.453125 3.2678520000000004 2.231361 -1.036491
927.015625 3.15149 2.327698 -0.823792
927.5625 3.086881 2.261939 -0.824942
928.1328125 3.324593 2.361057 -0.963536
928.66796875 3.173861 2.36199 -0.811871
929.21484375 3.0976179999999998 2.259432 -0.838186
929.78515625 3.196204 2.297237 -0.898967
930.3515625 3.082382 2.359607 -0.722775
930.91015625 3.1112290000000002 2.220457 -0.890772
931.47265625 3.201717 2.263563 -0.938154
931.99609375 3.073692 2.239827 -0.833865
932.5546875 2.838621 2.214803 -0.623818
933.12109375 3.1765499999999998 2.113241 -1.063309
933.671875 3.144805 2.019973 -1.124832
934.22265625 3.1139270000000003 2.112305 -1.001622
934.78125 2.975019 1.977031 -0.997988
935.375 3.18413 1.935 -1.24913
935.91796875 3.252529 1.968905 -1.283624
936.4765625 3.073648 1.929768 -1.14388
937.01953125 3.041476 1.844971 -1.196505
937.58984375 3.096038 1.822903 -1.273135
938.15625 3.22831 1.930977 -1.297333
938.72265625 3.2187650000000003 1.830484 -1.388281
939.2734375 3.216197 1.776717 -1.43948
939.81640625 3.178275 1.955606 -1.222669
940.37109375 3.1850240000000003 2.021644 -1.16338
940.92578125 3.26715 1.881979 -1.385171
941.4921875 3.2843289999999996 1.935849 -1.34848
942.01953125 3.097588 1.924995 -1.172593
942.5859375 3.305738 2.068556 -1.237182
943.1640625 3.1997210000000003 1.947162 -1.252559
943.7109375 3.176411 2.018791 -1.15762
944.15234375 3.0262249999999997 2.211648 -0.814577
944.8125 3.268155 2.047195 -1.22096
945.37109375 3.176633 2.041633 -1.135
945.921875 3.111154 2.185028 -0.926126
946.49609375 3.1849869999999996 2.142038 -1.042949
947.0703125 3.206231 2.090975 -1.115256
947.62890625 3.158865 2.291725 -0.86714
948.17578125 3.0298 2.186562 -0.843238
948.74609375 3.193255 2.247516 -0.945739
949.2890625 3.0256740000000004 2.293172 -0.732502
949.8515625 3.21796 2.259806 -0.958154
950.41015625 3.250628 2.220848 -1.02978
950.9609375 3.089213 2.219616 -0.869597
951.53125 3.098611 2.103611 -0.995
952.09765625 3.163371 2.064175 -1.099196
952.64453125 3.094069 2.069919 -1.02415
953.18359375 3.002624 2.132849 -0.869775
953.734375 3.2649869999999996 2.060012 -1.204975
954.296875 3.099015 1.967811 -1.131204
954.87109375 3.2122840000000004 2.103241 -1.109043
955.41796875 3.1850829999999997 1.952664 -1.232419
955.98046875 3.346581 1.934957 -1.411624
956.5078125 3.260573 1.930618 -1.329955
957.0546875 3.031257 1.77599 -1.255267
957.62109375 3.293879 1.811985 -1.481894
958.1640625 3.232976 1.713601 -1.519375
958.71875 3.181836 1.766836 -1.415
959.2890625 3.342148 1.727733 -1.614415
959.86328125 3.329157 1.772092 -1.557065
960.40625 3.1650679999999998 1.720068 -1.445
960.96875 3.3844250000000002 1.794425 -1.59
961.51953125 3.338566 1.744727 -1.593839
962.06640625 3.252117 1.897576 -1.354541
962.6328125 3.198746 1.989694 -1.209052
963.2109375 3.3109729999999997 1.899795 -1.411178
963.76171875 3.318032 2.011422 -1.30661
964.31640625 3.321532 2.233516 -1.088016
964.85546875 3.317419 2.11989 -1.197529
965.40234375 3.295413 2.246413 -1.049
965.9609375 3.371276 2.474362 -0.896914
966.5 3.322422 2.465 -0.857422
967.0703125 3.5382730000000002 2.502119 -1.036154
967.63671875 3.2570959999999998 2.296318 -0.960778
968.1875 3.378335 2.382818 -0.995517
968.72265625 3.252015 2.539874 -0.712141
969.26953125 3.029938 2.684989 -0.344949
969.80859375 3.272076 2.647225 -0.624851
970.3515625 2.8699660000000002 2.491467 -0.378499
970.93359375 2.9847460000000003 2.584423 -0.400323
971.515625 3.306053 2.499803 -0.80625
972.06640625 3.109572 2.46485 -0.644722
972.609375 3.104786 2.412652 -0.692134
973.16015625 3.129584 2.410665 -0.718919
973.70703125 3.018255 2.338839 -0.679416
974.26953125 2.8311859999999998 2.234915 -0.596271
974.828125 3.312786 2.06886 -1.243926
975.390625 3.241745 1.928704 -1.313041
975.9453125 3.097239 1.872363 -1.224876
976.50390625 2.943754 1.942269 -1.001485
977.046875 3.278669 1.759307 -1.519362
977.58984375 3.308741 1.730542 -1.578199
978.12109375 3.048198 1.653555 -1.394643
978.66015625 2.901719 1.669832 -1.231887
979.234375 3.2931049999999997 1.71817 -1.574935
979.78515625 3.359101 1.669936 -1.689165
980.33203125 3.251039 1.911448 -1.339591
980.87109375 3.002891 1.836454 -1.166437
981.42578125 3.4378599999999997 1.908232 -1.529628
981.95703125 3.257501 1.87423 -1.383271
982.5078125 3.2832619999999997 1.976109 -1.307153
983.046875 3.3557699999999997 1.976942 -1.378828
983.6171875 3.25087 1.959247 -1.291623
984.18359375 3.210034 2.005086 -1.204948
984.7265625 3.296392 2.127814 -1.168578
985.28515625 3.314896 2.035455 -1.279441
985.83203125 3.409319 2.260171 -1.149148
986.3671875 3.1900449999999996 2.170654 -1.019391
986.92578125 3.259771 2.452636 -0.807135
987.4921875 3.209033 2.459618 -0.749415
988.0390625 3.262195 2.579854 -0.682341
988.59375 3.127142 2.607142 -0.52
989.12890625 2.950177 2.62 -0.330177
989.66796875 3.066783 2.732515 -0.334268
990.20703125 2.948249 2.458501 -0.489748
990.7578125 2.850698 2.449583 -0.401115
991.30078125 2.8047590000000002 2.39814 -0.406619
991.859375 2.847164 2.387339 -0.459825
992.4296875 2.852596 2.129034 -0.723562
992.98046875 3.0511179999999998 1.949162 -1.101956
993.5390625 3.043786 1.833786 -1.21
994.06640625 3.0809189999999997 1.913209 -1.16771
994.609375 2.828887 1.867871 -0.961016
995.1796875 3.322045 1.628727 -1.693318
995.76171875 3.146843 1.26091 -1.885933
996.30078125 3.2247519999999996 1.659331 -1.565421
996.8671875 3.686967 1.893418 -1.793549
997.3984375 3.744968 2.040957 -1.704011
997.94140625 3.501756 2.239743 -1.262013
998.4765625 3.045828 2.146017 -0.899811
999.01171875 2.785541 1.957361 -0.82818
999.5625 3.19251 1.706855 -1.485655
1000.1171875 3.111821 1.642109 -1.469712
1000.67578125 3.296063 1.384557 -1.911506
1001.09375 3.4599650000000004 1.56729 -1.892675
1001.7421875 3.741205 1.689023 -2.052182
1002.27734375 3.322486 1.617534 -1.704952
1002.8125 3.083298 1.928298 -1.155
1003.35546875 3.137067 2.094867 -1.0422
1003.92578125 3.545133 1.823657 -1.721476
1004.48046875 3.633441 1.804964 -1.828477
1005.02734375 3.350176 2.041225 -1.308951
1005.5546875 3.3752129999999996 2.36569 -1.009523
1006.08984375 2.965578 2.286019 -0.679559
1006.6328125 3.4712039999999997 2.197443 -1.273761
1007.1953125 3.343147 1.998923 -1.344224
1007.73046875 3.181101 2.369947 -0.811154
1008.28125 2.835399 2.281024 -0.554375
1008.8515625 3.254782 2.08915 -1.165632
1009.4140625 3.364428 2.174366 -1.190062
1009.9609375 3.002726 2.229607 -0.773119
1010.5 2.7649999999999997 2.19 -0.575
1011.0546875 3.276576 2.011761 -1.264815
1011.62109375 3.394224 2.03632 -1.357904
1012.1953125 3.0904109999999996 2.026683 -1.063728
1012.7421875 2.895829 2.065 -0.830829
1013.30859375 3.3249500000000003 2.001331 -1.323619
1013.84765625 3.30236 1.861445 -1.440915
1014.390625 3.177326 1.8775 -1.299826
1014.94140625 3.042498 1.837778 -1.20472
1015.50390625 3.3749979999999997 1.856681 -1.518317
1016.0546875 3.224273 1.699767 -1.524506
1016.62109375 3.1901479999999998 1.866789 -1.323359
1017.19140625 3.373167 1.969614 -1.403553
1017.7578125 3.446072 1.796566 -1.649506
1018.30859375 3.4158150000000003 1.903812 -1.512003
1018.85546875 3.311938 1.8664 -1.445538
1019.421875 3.432623 1.820416 -1.612207
1020.0078125 3.5144599999999997 1.724624 -1.789836
1020.578125 3.4991120000000002 2.012061 -1.487051
1021.12890625 3.175326 1.892573 -1.282753
1021.703125 3.510572 1.959833 -1.550739
1022.25 3.516679 2.015 -1.501679
1022.796875 3.306613 2.100539 -1.206074
1023.36328125 3.3185409999999997 2.08359 -1.234951
1023.9296875 3.606895 2.387325 -1.21957
1024.5 3.4503630000000003 2.45 -1.000363
1025.046875 3.207341 2.423717 -0.783624
1025.62109375 3.33427 2.476347 -0.857923
1026.17578125 3.385714 2.430735 -0.954979
1026.7265625 3.246602 2.523191 -0.723411
1027.26953125 3.12416 2.599949 -0.524211
1027.83203125 3.427621 2.554143 -0.873478
1028.421875 3.511252 2.329533 -1.181719
1028.98046875 3.2666890000000004 2.234868 -1.031821
1029.5390625 2.9426500000000004 2.263177 -0.679473
1030.09765625 3.410319 2.180319 -1.23
1030.6484375 3.172227 1.973056 -1.199171
1031.20703125 3.11362 2.260451 -0.853169
1031.77734375 3.115675 2.16161 -0.954065
1032.33984375 3.2966100000000003 2.103767 -1.192843
1032.90234375 3.1778379999999995 2.072767 -1.105071
1033.4765625 3.0377549999999998 2.051354 -0.986401
1034.046875 3.4176400000000005 2.034219 -1.383421
1034.60546875 3.328667 1.959955 -1.368712
1035.14453125 3.0731520000000003 1.901385 -1.171767
1035.70703125 3.3170580000000003 1.943476 -1.373582
1036.29296875 3.4279580000000003 1.919315 -1.508643
1036.86328125 3.2374609999999997 1.832598 -1.404863
1037.4140625 3.112617 1.73865 -1.373967
1037.9921875 3.3413950000000003 1.79662 -1.544775
1038.53125 3.386494 1.823994 -1.5625
1039.08203125 3.072503 1.829213 -1.24329
1039.64453125 3.327719 1.914885 -1.412834
1040.20703125 3.4104029999999996 1.906237 -1.504166
1040.765625 3.255336 1.955214 -1.300122
1041.328125 3.073256 2.032188 -1.041068
1041.91015625 3.2355739999999997 2.173653 -1.061921
1042.45703125 3.2682520000000004 1.960393 -1.307859
1043.015625 3.901936 2.690192 -1.211744
1043.56640625 3.3560659999999998 2.327911 -1.028155
1044.1484375 3.622247 2.756044 -0.866203
1044.7265625 2.3298389999999998 1.320557 -1.009282
1045.23828125 3.8812800000000003 2.95 -0.93128
1045.85546875 3.306832 2.619995 -0.686837
1046.36328125 3.887226 2.954723 -0.932503
1046.97265625 3.32248 2.53248 -0.79
1047.46875 3.622004 2.985833 -0.636171
1048.08984375 3.1170899999999997 2.678136 -0.438954
1048.59765625 3.365777 2.806317 -0.55946
1049.21484375 3.22325 2.305809 -0.917441
1049.7734375 3.557017 2.842709 -0.714308
1050.32421875 3.037862 2.419681 -0.618181
1050.87890625 3.460123 2.653158 -0.806965
1051.43359375 3.3463960000000004 2.117261 -1.229135
1051.96484375 3.68096 2.55858 -1.12238
1052.53515625 3.045701 2.151752 -0.893949
1053.109375 3.185502 2.453811 -0.731691
1053.55859375 1.64189 -0.228001 -1.869891
1054.09375 1.920792 0.006281 -1.914511
1054.609375 1.640223 -0.214375 -1.854598
1055.28125 3.8041919999999996 2.327012 -1.47718
1055.90625 3.460454 2.008088 -1.452366
1056.4140625 3.7502120000000003 2.35482 -1.395392
1057.015625 3.374582 1.973713 -1.400869
1057.59375 3.270048 1.845195 -1.424853
1058.1484375 3.275196 1.813253 -1.461943
1058.6875 3.833956 2.522167 -1.311789
1059.25 3.339803 2.085 -1.254803
1059.765625 3.3142579999999997 2.414258 -0.9
1060.3671875 3.4439130000000002 1.988075 -1.455838
1060.91796875 3.652087 2.397511 -1.254576
1061.48046875 3.3052159999999997 2.1748 -1.130416
1061.98046875 3.9880780000000002 2.674952 -1.313126
1062.45703125 3.48559 2.383875 -1.101715
1063.1015625 3.599864 2.706559 -0.893305
1063.6484375 3.198656 2.266833 -0.931823
1064.23046875 3.604832 2.665 -0.939832
1064.76171875 3.475949 2.404722 -1.071227
1065.3203125 3.5490899999999996 2.878303 -0.670787
1065.88671875 3.289365 2.629961 -0.659404
1066.42578125 3.055161 2.806165 -0.248996
1067.0234375 3.4884649999999997 2.354561 -1.133904
1067.578125 3.8651530000000003 2.89 -0.975153
1068.1171875 3.229408 2.454408 -0.775
1068.65625 3.2414899999999998 2.735 -0.50649
1069.2578125 3.210658 2.362562 -0.848096
1069.8203125 3.4512039999999997 2.84 -0.611204
1070.38671875 3.4910829999999997 2.235816 -1.255267
1070.9296875 3.5398490000000002 2.629878 -0.909971
1071.47265625 3.049083 2.292418 -0.756665
1072.03125 3.084132 2.464641 -0.619491
1072.59375 3.318075 2.011557 -1.306518
1073.12109375 3.659131 2.521023 -1.138108
1073.6875 3.396699 2.222114 -1.174585
1074.23828125 3.1142529999999997 2.295 -0.819253
1074.80859375 3.229896 1.874954 -1.354942
1075.359375 3.8001329999999998 2.382282 -1.417851
1075.90625 3.3739730000000003 1.883086 -1.490887
1076.46875 3.898456 2.3625 -1.535956
1077.0234375 3.270098 1.839994 -1.430104
1077.59765625 3.929806 2.414338 -1.515468
1078.16015625 3.439406 1.786367 -1.653039
1078.70703125 3.519924 2.23 -1.289924
1079.25390625 3.299181 1.975062 -1.324119
1079.8203125 4.0994600000000005 2.658856 -1.440604
1080.2109375 3.54738 1.929466 -1.617914
1080.5390625 2.8933079999999998 0.364324 -2.528984
1081.4609375 3.5355060000000003 2.379519 -1.155987
1082.04296875 3.387688 2.269519 -1.118169
1082.609375 3.398031 2.729295 -0.668736
1083.16796875 3.539865 2.302587 -1.237278
1083.71875 3.822718 2.981437 -0.841281
1084.26953125 3.591792 2.604984 -0.986808
1084.828125 3.470013 2.486566 -0.983447
1085.375 3.24466 2.56 -0.68466
1085.9453125 3.066339 2.615148 -0.451191
1086.50390625 3.471343 2.511816 -0.959527
1087.0703125 3.3821280000000002 2.404459 -0.977669
1087.59375 3.222538 2.457538 -0.765
1088.14453125 3.043793 2.612086 -0.431707
1088.72265625 3.522106 2.533343 -0.988763
1089.26953125 3.309484 2.368324 -0.94116
1089.82421875 3.1599519999999997 2.37003 -0.789922
1090.38671875 3.283896 2.590185 -0.693711
1090.96875 3.380893 2.230893 -1.15
1091.47265625 3.108733 2.648757 -0.459976
1092.0625 3.41631 2.237004 -1.179306
1092.62890625 3.543143 2.150148 -1.392995
1093.18359375 3.479247 2.107505 -1.371742
1093.75390625 3.2380199999999997 2.06643 -1.17159
1094.328125 3.5974890000000004 2.071114 -1.526375
1094.88671875 3.5218730000000003 1.990747 -1.531126
1095.4296875 3.508579 2.084135 -1.424444
1095.98828125 3.5454499999999998 1.935559 -1.609891
1096.54296875 3.4646929999999996 1.83238 -1.632313
1097.08984375 3.418786 1.947648 -1.471138
1097.63671875 3.5605529999999996 2.10864 -1.451913
1098.2109375 3.892928 2.564289 -1.328639
1098.765625 3.450882 2.087903 -1.362979
1099.328125 3.302669 2.139495 -1.163174
1099.88671875 3.65168 2.276409 -1.375271
1100.4140625 3.37461 2.644857 -0.729753
1100.984375 3.236485 2.163508 -1.072977
1101.5 3.7589059999999996 2.755 -1.003906
1102.140625 3.539218 2.316061 -1.223157
1102.6953125 3.9882750000000002 3.095448 -0.892827
1103.265625 3.286794 2.5025 -0.784294
1103.8125 3.9289389999999997 3.060948 -0.867991
1104.3671875 3.284157 2.396276 -0.887881
1104.9140625 3.0730000000000004 2.814471 -0.258529
1105.48046875 3.4979240000000003 2.604877 -0.893047
1106.04296875 3.326542 2.616542 -0.71
1106.58984375 3.0674170000000003 2.635559 -0.431858
1107.1640625 3.376253 2.569424 -0.806829
1107.71484375 3.257942 2.542942 -0.715
1108.26953125 3.224568 2.689995 -0.534573
1108.8046875 3.099709 2.654867 -0.444842
1109.359375 3.068384 2.613384 -0.455
1109.93359375 3.438938 2.464165 -0.974773
1110.4921875 3.79248 2.869011 -0.923469
1111.03515625 2.939596 2.454596 -0.485
1111.60546875 3.328313 2.253568 -1.074745
1112.15625 3.324005 2.165991 -1.158014
1112.703125 3.138922 2.119106 -1.019816
1113.2578125 3.044829 2.179933 -0.864896
1113.8125 3.402686 2.038545 -1.364141
1114.37109375 3.309329 1.949329 -1.36
1114.93359375 3.1718070000000003 2.102526 -1.069281
1115.515625 3.587251 2.019272 -1.567979
1116.0703125 3.471101 1.827105 -1.643996
1116.625 3.2536940000000003 1.99 -1.263694
1117.17578125 3.983737 2.582285 -1.401452
1117.74609375 3.421707 1.937309 -1.484398
1118.2578125 3.711564 2.559275 -1.152289
1118.875 3.536481 2.11 -1.426481
1119.41015625 3.294818 2.610035 -0.684783
1119.98828125 3.4930149999999998 2.388042 -1.104973
1120.53515625 3.5391570000000003 2.672648 -0.866509
1121.08984375 3.573887 2.460854 -1.113033
1121.6484375 3.238874 2.364422 -0.874452
1122.19140625 3.28363 2.513776 -0.769854
1122.76171875 3.503464 2.538692 -0.964772
1123.33203125 3.404095 2.415013 -0.989082
1123.890625 3.2178660000000003 2.563159 -0.654707
1124.4453125 3.347423 2.519689 -0.827734
1125.00390625 3.386617 2.6133 -0.773317
1125.54296875 3.128937 2.695326 -0.433611
1126.06640625 3.180704 3.066402 -0.114302
1126.68359375 3.226183 2.663255 -0.562928
1127.2421875 3.135279 2.725722 -0.409557
1127.80078125 3.3324230000000004 2.780994 -0.551429
1128.36328125 3.67989 2.961681 -0.718209
1128.9140625 3.132343 2.499012 -0.633331
1129.4609375 3.584771 3.004771 -0.58
1130.0234375 2.9045870000000003 2.510025 -0.394562
1130.58984375 3.5405889999999998 2.727589 -0.813
1131.16015625 3.2552520000000005 2.185538 -1.069714
1131.71875 3.088188 2.358188 -0.73
1132.2734375 3.049511 2.154511 -0.895
1132.84765625 3.17501 2.100568 -1.074442
1133.37890625 3.108742 2.108794 -0.999948
1133.93359375 3.449536 2.424553 -1.024983
1134.5 3.317764 1.885 -1.432764
1135.0703125 3.3649649999999998 2.258882 -1.106083
1135.61328125 3.217457 1.830616 -1.386841
1136.1953125 3.158132 2.233132 -0.925
1136.7265625 3.19345 1.853665 -1.339785
1137.28125 3.473073 2.233488 -1.239585
1137.8515625 3.3566190000000002 1.794642 -1.561977
1138.390625 3.202503 1.787946 -1.414557
1138.9609375 3.2076200000000004 1.909437 -1.298183
1139.5234375 3.147749 1.983962 -1.163787
1140.10546875 3.509536 2.068735 -1.440801
1140.6640625 3.287542 1.95974 -1.327802
1141.21484375 3.197161 2.158992 -1.038169
1141.76171875 3.144843 2.259843 -0.885
1142.33203125 3.4528929999999995 2.268388 -1.184505
1142.91015625 3.326912 2.194334 -1.132578
1143.46875 3.157656 2.277656 -0.88
1144.03125 3.5199999999999996 2.76 -0.76
1144.58984375 3.268808 2.447836 -0.820972
1145.0859375 3.787897 2.749948 -1.037949
1145.6953125 3.26407 2.478776 -0.785294
1146.265625 3.033206 2.517108 -0.516098
1146.8125 3.363081 2.389921 -0.97316
1147.3828125 3.289092 2.254465 -1.034627
1147.9375 3.045016 2.412353 -0.632663
1148.50390625 3.196388 2.371358 -0.82503
1149.0703125 3.3090460000000004 2.210246 -1.0988
1149.61328125 3.058945 2.244046 -0.814899
1150.15234375 2.927008 2.321633 -0.605375
1150.7265625 3.279523 2.205394 -1.074129
1151.31640625 3.221792 2.124401 -1.097391
1151.859375 3.510937 2.530361 -0.980576
1152.42578125 3.106325 2.221429 -0.884896
1152.9921875 3.4524929999999996 2.152617 -1.299876
1153.55078125 3.387379 2.047379 -1.34
1154.09375 3.203214 2.163214 -1.04
1154.6484375 3.31274 2.222178 -1.090562
1155.23046875 3.39872 2.069962 -1.328758
1155.78515625 3.2228250000000003 2.092873 -1.129952
1156.37109375 3.417868 2.03592 -1.381948
1156.91796875 3.3648759999999998 1.990103 -1.374773
1157.46875 3.314592 2.034592 -1.28
1158.015625 3.420582 1.93252 -1.488062
1158.578125 3.5789910000000003 2.169829 -1.409162
1159.1484375 3.3235580000000002 1.9878 -1.335758
1159.67578125 3.8799289999999997 2.562233 -1.317696
1160.28125 3.55189 2.172121 -1.379769
1160.84375 3.4968310000000002 2.276831 -1.22
1161.375 3.387391 2.41 -0.977391
1161.9296875 3.4173549999999997 2.564389 -0.852966
1162.5 3.427773 2.275 -1.152773
1162.91796875 3.4673819999999997 2.463772 -1.00361
1163.60546875 3.374168 2.374718 -0.99945
1164.1875 3.733341 2.863333 -0.870008
1164.75 3.347432 2.495 -0.852432
1165.296875 3.1710059999999998 2.886138 -0.284868
1165.8515625 3.368399 2.456634 -0.911765
1166.40234375 3.664581 2.953191 -0.71139
1166.9609375 3.2976090000000005 2.599394 -0.698215
1167.53515625 3.321458 2.956458 -0.365
1168.1015625 3.503028 2.55967 -0.943358
1168.6640625 3.3994340000000003 2.674434 -0.725
1169.1953125 3.3209169999999997 2.7712 -0.549717
1169.75390625 3.3793680000000004 2.497822 -0.881546
1170.3046875 3.308076 2.508619 -0.799457
1170.8515625 3.22125 2.78 -0.44125
1171.40234375 3.41587 2.43587 -0.98
1171.97265625 3.763611 2.783143 -0.980468
1172.54296875 3.1843019999999997 2.291404 -0.892898
1173.0859375 3.178254 2.557883 -0.620371
1173.65625 3.396452 2.138261 -1.258191
1174.1953125 3.3031310000000005 2.098682 -1.204449
1174.73828125 3.2093300000000005 2.154453 -1.054877
1175.3125 3.359117 2.080094 -1.279023
1175.89453125 3.4528230000000004 2.034956 -1.417867
1176.4453125 3.362074 2.039635 -1.322439
1177.01171875 3.44739 2.047049 -1.400341
1177.5625 3.529564 2.356796 -1.172768
1178.109375 3.3375829999999995 2.038877 -1.298706
1178.62890625 3.25166 2.515393 -0.736267
1179.234375 3.3481300000000003 2.042354 -1.305776
1179.796875 3.0354240000000003 2.171349 -0.864075
1180.359375 3.101353 1.989659 -1.111694
1180.9375 3.1892 2.130294 -1.058906
1181.46875 3.2573869999999996 2.352387 -0.905
1182.03515625 3.277772 2.513096 -0.764676
1182.5390625 3.355207 2.33725 -1.017957
1183.12890625 3.7638070000000003 2.949854 -0.813953
1183.703125 3.1502980000000003 2.501758 -0.64854
1184.24609375 3.2040450000000003 2.862566 -0.341479
1184.84375 3.388523 2.368523 -1.02
1185.3828125 3.189652 2.554818 -0.634834
1185.92578125 3.169495 2.554688 -0.614807
1186.48046875 3.315788 2.419885 -0.895903
1187.06640625 3.451637 2.369906 -1.081731
1187.59765625 3.2486509999999997 2.529941 -0.71871
1188.1640625 2.978577 2.523697 -0.45488
1188.74609375 3.3899939999999997 2.401725 -0.988269
1189.31640625 3.3835490000000004 2.418829 -0.96472
1189.8671875 3.2931459999999997 2.703664 -0.589482
1190.4140625 3.2583409999999997 2.4339 -0.824441
1190.93359375 3.0897959999999998 2.619796 -0.47
1191.55078125 3.261162 2.176162 -1.085
1192.12109375 2.9314739999999997 2.281615 -0.649859
1192.6875 3.3166279999999997 2.157365 -1.159263
1193.25390625 3.313919 2.083919 -1.23
1193.78515625 3.175543 2.160951 -1.014592
1194.3359375 3.027686 2.103342 -0.924344
1194.8984375 3.319937 1.866634 -1.453303
1195.45703125 3.370565 1.80127 -1.569295
1196.015625 3.1870399999999997 1.819921 -1.367119
1196.578125 3.209219 1.887933 -1.321286
1197.15625 3.4573540000000005 2.002689 -1.454665
1197.69921875 4.03074 2.542404 -1.488336
1198.26171875 3.2255320000000003 2.014853 -1.210679
1198.8125 3.273562 2.004 -1.269562
1199.390625 3.4508140000000003 2.052423 -1.398391
1199.95703125 3.247495 2.028911 -1.218584
1200.53515625 3.210902 2.066626 -1.144276
1201.10546875 3.408647 2.089983 -1.318664
1201.6796875 3.4843710000000003 2.174497 -1.309874
1202.21875 3.393261 2.223261 -1.17
1202.76171875 3.34793 2.384411 -0.963519
1203.34765625 3.507772 2.342772 -1.165
1203.88671875 3.298643 2.380761 -0.917882
1204.44921875 2.9588919999999996 2.364486 -0.594406
1205.015625 3.207354 2.352354 -0.855
1205.59765625 3.343886 2.422223 -0.921663
1206.140625 3.0523759999999998 2.440553 -0.611823
1206.6875 3.106972 2.503548 -0.603424
1207.2421875 3.4272159999999996 2.477216 -0.95
1207.8125 3.239295 2.384512 -0.854783
1208.3828125 3.167241 2.508401 -0.65884
1208.953125 3.3157140000000003 2.465714 -0.85
1209.52734375 3.490654 2.440826 -1.049828
1210.0703125 3.2831289999999997 2.375984 -0.907145
1210.62109375 3.092708 2.357996 -0.734712
1211.18359375 3.614808 2.347688 -1.26712
1211.7421875 3.409668 2.199673 -1.209995
1212.296875 3.233651 2.224213 -1.009438
1212.8671875 3.279205 2.142889 -1.136316
1213.46484375 3.54164 2.10164 -1.44
1214.0078125 3.484406 2.12326 -1.361146
1214.5546875 3.282904 2.083131 -1.199773
1215.12109375 3.572528 2.054155 -1.518373
1215.6875 3.616257 2.062898 -1.553359
1216.25390625 3.288551 1.977079 -1.311472
1216.83203125 3.4629849999999998 2.129456 -1.333529
1217.39453125 3.567824 2.209699 -1.358125
1217.953125 3.438897 2.204886 -1.234011
1218.484375 3.2970560000000004 2.203739 -1.093317
1219.04296875 3.5717229999999995 2.316562 -1.255161
1219.61328125 3.4850649999999996 2.390592 -1.094473
1220.15625 3.445877 2.443615 -1.002262
1220.73046875 3.5973189999999997 2.574648 -1.022671
1221.296875 3.5913209999999998 2.648347 -0.942974
1221.85546875 3.2860940000000003 2.669668 -0.616426
1222.40625 3.406466 2.843571 -0.562895
1222.96875 3.491333 2.757964 -0.733369
1223.53515625 3.461579 2.651989 -0.80959
1224.09765625 3.541625 2.925319 -0.616306
1224.67578125 3.1971499999999997 2.780458 -0.416692
1225.25 3.492126 2.9 -0.592126
1225.8359375 3.492064 2.777708 -0.714356
1226.37109375 3.2115530000000003 2.912335 -0.299218
1226.9375 3.107214 2.704535 -0.402679
1227.50390625 3.494656 2.680304 -0.814352
1228.07421875 3.389373 2.631447 -0.757926
1228.6171875 3.317526 2.857867 -0.459659
1229.18359375 3.418705 2.588209 -0.830496
1229.76953125 3.405254 2.536116 -0.869138
1230.31640625 3.243334 2.568954 -0.67438
1230.8671875 3.243204 2.635974 -0.60723
1231.42578125 3.4059209999999998 2.502182 -0.903739
1231.99609375 3.3957189999999997 2.361853 -1.033866
1232.55859375 3.2800130000000003 2.468799 -0.811214
1233.12890625 3.1646270000000003 2.585564 -0.579063
1233.69921875 3.3551200000000003 2.301663 -1.053457
1234.26953125 3.296506 2.231635 -1.064871
1234.8125 3.2485489999999997 2.243686 -1.004863
1235.37109375 3.244653 2.328064 -0.916589
1235.9453125 3.557863 2.247909 -1.309954
1236.51171875 3.3702989999999997 2.006915 -1.363384
1237.078125 3.346601 2.184737 -1.161864
1237.65234375 3.4813110000000003 2.182618 -1.298693
1238.234375 3.4434129999999996 2.093425 -1.349988
1238.78125 3.337877 2.142142 -1.195735
1239.3515625 3.228777 2.08251 -1.146267
1239.91015625 3.41993 2.079097 -1.340833
1240.48046875 3.443362 2.074885 -1.368477
1241.0390625 3.369534 2.247675 -1.121859
1241.609375 3.268083 2.333854 -0.934229
1242.18359375 3.4779489999999997 2.303879 -1.17407
1242.7421875 3.572966 2.407109 -1.165857
1243.27734375 3.273727 2.453775 -0.819952
1243.82421875 3.340662 2.646199 -0.694463
1244.4140625 3.611692 2.549294 -1.062398
1244.96875 3.236355 2.406298 -0.830057
1245.52734375 3.183926 2.623063 -0.560863
1246.1015625 3.249685 2.580206 -0.669479
1246.68359375 3.4995969999999996 2.570168 -0.929429
1247.2421875 3.339673 2.554483 -0.78519
1247.78515625 3.1625229999999998 2.576666 -0.585857
1248.34765625 3.231826 2.76089 -0.470936
1248.93359375 3.371658 2.440873 -0.930785
1249.53125 3.389372 2.300205 -1.089167
1250.078125 3.230204 2.324354 -0.90585
1250.640625 3.2409980000000003 2.487042 -0.753956
1251.1953125 3.3850110000000004 2.309203 -1.075808
1251.765625 3.37918 2.108158 -1.271022
1252.3203125 3.247426 2.077601 -1.169825
1252.87109375 3.187906 2.057906 -1.13
1253.4453125 3.4180900000000003 1.965122 -1.452968
1254.02734375 3.397957 1.889103 -1.508854
1254.5859375 3.239926 1.914169 -1.325757
1255.1328125 3.2827219999999997 2.016936 -1.265786
1255.7109375 3.277514 1.932735 -1.344779
1256.27734375 3.572686 1.959051 -1.613635
1256.8359375 3.380792 1.674525 -1.706267
1257.3984375 3.112623 1.903021 -1.209602
1257.9765625 3.3649620000000002 2.009424 -1.355538
1258.55078125 3.4341470000000003 1.899696 -1.534451
1259.109375 3.195812 1.925625 -1.270187
1259.6640625 3.394227 2.029648 -1.364579
1260.24609375 3.548246 2.030304 -1.517942
1260.8125 3.2993959999999998 2.003686 -1.29571
1261.35546875 3.2592879999999997 2.248334 -1.010954
1261.93359375 3.222039 2.149681 -1.072358
1262.52734375 3.5858930000000004 2.285 -1.300893
1263.1015625 3.3492949999999997 2.140141 -1.209154
1263.65625 3.206198 2.291653 -0.914545
1264.19921875 3.171469 2.3816 -0.789869
1264.76953125 3.4483930000000003 2.29087 -1.157523
1265.35546875 3.5827 2.486382 -1.096318
1265.9296875 3.252772 2.428388 -0.824384
1266.4765625 3.209476 2.556931 -0.652545
1267.046875 3.325806 2.545655 -0.780151
1267.61328125 3.5099970000000003 2.485097 -1.0249
1268.171875 3.321257 2.561011 -0.760246
1268.73046875 3.000572 2.579796 -0.420776
1269.2890625 3.298813 2.513813 -0.785
1269.87890625 3.393536 2.436287 -0.957249
1270.44140625 3.259162 2.494612 -0.76455
1271.01171875 3.066998 2.427275 -0.639723
1271.55859375 3.2566360000000003 2.572973 -0.683663
1272.14453125 3.325233 2.269697 -1.055536
1272.7109375 3.115887 2.254079 -0.861808
1273.26953125 2.9207470000000004 2.359875 -0.560872
1273.86328125 3.354159 2.154194 -1.199965
1274.43359375 3.215996 2.0455 -1.170496
1274.9921875 3.147324 2.133288 -1.014036
1275.54296875 3.0289909999999995 2.061034 -0.967957
1276.09375 3.167832 2.127832 -1.04
1276.671875 3.4749969999999997 2.1028 -1.372197
1277.2421875 3.3771120000000003 2.061631 -1.315481
1277.7890625 3.2122979999999997 2.094957 -1.117341
1278.34765625 3.04473 2.08873 -0.956
1278.9375 3.496569 2.158604 -1.337965
1279.5078125 3.2978300000000003 1.977153 -1.320677
1280.06640625 3.167358 2.115 -1.052358
1280.61328125 3.201892 2.096918 -1.104974
1281.19140625 3.477823 2.110874 -1.366949
1281.76953125 3.279805 2.134805 -1.145
1282.33984375 3.106213 2.24924 -0.856973
1282.8984375 3.201791 2.181846 -1.019945
1283.48828125 3.5587409999999995 2.253738 -1.305003
1284.046875 3.3191999999999995 2.241147 -1.078053
1284.6015625 3.1189009999999997 2.369801 -0.7491
1285.16796875 3.31181 2.393799 -0.918011
1285.7421875 3.353492 2.20608 -1.147412
1286.3125 3.1270849999999997 2.336667 -0.790418
1286.87890625 2.985561 2.501547 -0.484014
1287.46484375 3.369072 2.310951 -1.058121
1288.02734375 3.226296 2.306398 -0.919898
1288.58203125 3.053869 2.408243 -0.645626
1289.12890625 3.063417 2.501546 -0.561871
1289.71875 3.4452160000000003 2.375216 -1.07
1290.3046875 3.296749 2.447467 -0.849282
1290.84765625 3.000949 2.415949 -0.585
1291.421875 3.284737 2.424737 -0.86
1291.984375 3.3593390000000003 2.250293 -1.109046
1292.55078125 3.205091 2.34213 -0.862961
1293.09765625 2.9896920000000002 2.330328 -0.659364
1293.6640625 3.227594 2.183251 -1.044343
1294.24609375 3.394342 2.078806 -1.315536
1294.80859375 3.104752 2.038334 -1.066418
1295.3828125 3.011779 2.111883 -0.899896
1295.9375 3.265902 2.303484 -0.962418
1296.53125 3.4119279999999996 2.139595 -1.272333
1297.0859375 3.343891 2.06977 -1.274121
1297.640625 3.071772 2.0375 -1.034272
1298.20703125 3.169126 2.260315 -0.908811
1298.8046875 3.348165 2.097088 -1.251077
1299.3828125 3.2797520000000002 2.03742 -1.242332
1299.93359375 3.514234 2.154557 -1.359677
1300.49609375 3.355307 1.965737 -1.38957
1301.0390625 3.269774 2.112684 -1.15709
1301.61328125 3.480936 2.110947 -1.369989
1302.17578125 3.4881640000000003 2.079635 -1.408529
1302.73046875 3.2618159999999996 2.119912 -1.141904
1303.3046875 3.263995 2.289039 -0.974956
1303.875 3.456632 2.105 -1.351632
1304.44921875 3.385993 2.171141 -1.214852
1304.9921875 3.202257 2.264753 -0.937504
1305.54296875 3.2045899999999996 2.521692 -0.682898
1306.12109375 3.3515129999999997 2.316103 -1.03541
1306.7265625 3.5405 2.422384 -1.118116
1307.28125 3.28102 2.544353 -0.736667
1307.83984375 3.1398360000000003 2.5386 -0.601236
1308.39453125 3.207129 2.499785 -0.707344
1308.984375 3.47124 2.479198 -0.992042
1309.5546875 3.256704 2.486884 -0.76982
1310.09375 3.049572 2.524572 -0.525
1310.66796875 3.206063 2.396725 -0.809338
1311.26171875 3.317373 2.367554 -0.949819
1311.83203125 3.260489 2.473777 -0.786712
1312.3828125 2.93285 2.527936 -0.404914
1312.95703125 3.3549430000000005 2.199943 -1.155
1313.515625 3.323525 2.232682 -1.090843
1314.07421875 3.113699 2.129056 -0.984643
1314.6328125 3.019127 2.239559 -0.779568
1315.2109375 3.3139659999999997 2.184271 -1.129695
1315.79296875 3.332548 2.10448 -1.228068
1316.33984375 3.1888949999999996 2.035776 -1.153119
1316.87109375 3.034586 2.150445 -0.884141
1317.4609375 3.488169 2.144882 -1.343287
1318.03125 3.4001970000000004 2.036067 -1.36413
1318.5859375 3.290806 2.199016 -1.09179
1319.16015625 3.381584 2.141883 -1.239701
1319.75390625 3.49393 2.104232 -1.389698
1320.31640625 3.3617739999999996 1.999356 -1.362418
1320.87109375 3.1693439999999997 2.032428 -1.136916
1321.4140625 3.183668 2.074227 -1.109441
1321.99609375 3.560062 2.239699 -1.320363
1322.58203125 3.4981530000000003 2.155351 -1.342802
1323.16015625 3.2699119999999997 2.222991 -1.046921
1323.71875 3.219234 2.354234 -0.865
1324.3046875 3.547528 2.297528 -1.25
1324.859375 3.516088 2.331249 -1.184839
1325.40625 3.282002 2.532002 -0.75
1325.96875 3.2350250000000003 2.483741 -0.751284
1326.51953125 3.9408260000000004 2.960278 -0.980548
1327.11328125 3.6161849999999998 2.49627 -1.119915
1327.6875 3.816198 2.966667 -0.849531
1328.24609375 3.227876 2.757622 -0.470254
1328.80859375 3.382927 2.804671 -0.578256
1329.37890625 3.5393929999999996 2.439151 -1.100242
1329.9296875 3.844153 3.02 -0.824153
1330.4921875 3.199542 2.754006 -0.445536
1331.08203125 3.289228 2.566802 -0.722426
1331.66015625 3.452564 2.412777 -1.039787
1332.23046875 3.558041 2.816035 -0.742006
1332.7734375 3.1307929999999997 2.624942 -0.505851
1333.34375 3.48925 2.72425 -0.765
1333.9140625 3.409637 2.283897 -1.12574
1334.46484375 3.732443 2.752624 -0.979819
1335.0390625 2.966393 2.466755 -0.499638
1335.5625 3.558667 2.613438 -0.945229
1336.203125 3.398385 2.108002 -1.290383
1336.75 3.0011 2.305 -0.6961
1337.32421875 3.424863 2.16 -1.264863
1337.87890625 3.6451919999999998 2.272951 -1.372241
1338.4140625 3.190555 1.91169 -1.278865
1338.98828125 3.620514 2.51187 -1.108644
1339.57421875 3.4966869999999997 2.10722 -1.389467
1340.15234375 3.941629 2.476317 -1.465312
1340.703125 3.3906229999999997 1.970763 -1.41986
1341.23828125 3.877299 2.539636 -1.337663
1341.79296875 3.201745 2.203506 -0.998239
1342.3359375 3.6535729999999997 2.635551 -1.018022
1342.94140625 3.522049 2.062345 -1.459704
1343.50390625 3.860011 2.557999 -1.302012
1344.0703125 3.4741090000000003 2.394165 -1.079944
1344.640625 3.439066 2.685 -0.754066
1345.234375 3.390949 2.166827 -1.224122
1345.78125 4.026223 2.969219 -1.057004
1346.328125 3.166314 2.369316 -0.796998
1346.91015625 4.08108 2.89527 -1.18581
1347.49609375 3.429492 2.384383 -1.045109
1348.04296875 3.7787319999999998 2.99004 -0.788692
1348.60546875 3.2264670000000004 2.624798 -0.601669
1349.1640625 3.941051 2.914922 -1.026129
1349.734375 3.358974 2.457656 -0.901318
1350.26953125 3.7857790000000002 3.119886 -0.665893
1350.81640625 3.134278 2.701088 -0.43319
1351.34375 3.083249 2.928214 -0.155035
1351.97265625 3.366726 2.441713 -0.925013
1352.5390625 3.747864 3.024977 -0.722887
1353.08984375 3.217936 2.565133 -0.652803
1353.671875 3.15959 2.73959 -0.42
1354.21484375 3.322617 2.453475 -0.869142
1354.76171875 3.445182 2.821881 -0.623301
1355.33203125 2.99698 2.550774 -0.446206
1355.9296875 3.331913 2.606865 -0.725048
1356.4921875 3.238424 2.2187 -1.019724
1357.05078125 3.204211 2.604211 -0.6
1357.59765625 3.4076839999999997 2.297802 -1.109882
1358.16796875 3.790895 2.517158 -1.273737
1358.71875 3.2070600000000002 1.932146 -1.274914
1359.26953125 3.611078 2.585 -1.026078
1359.85546875 3.32179 2.050863 -1.270927
1360.40234375 3.045 2.255 -0.79
1360.9609375 3.188727 1.983921 -1.204806
1361.53125 3.563517 2.584474 -0.979043
1362.109375 3.477449 2.198371 -1.279078
1362.65234375 3.349929 2.029978 -1.319951
1363.21484375 3.218584 2.086223 -1.132361
1363.78515625 3.197624 2.178152 -1.019472
1364.3671875 3.5038099999999996 2.189818 -1.313992
1364.91796875 3.1930690000000004 2.193874 -0.999195
1365.46484375 3.240056 2.378558 -0.861498
1366.0390625 3.48174 2.65398 -0.82776
1366.6015625 3.309488 2.28863 -1.020858
1367.13671875 3.689413 2.634023 -1.05539
1367.7109375 3.0913969999999997 2.464091 -0.627306
1368.3046875 3.5203040000000003 2.554034 -0.96627
1368.890625 3.289942 2.430114 -0.859828
1369.43359375 3.103036 2.565876 -0.53716
1370.0 3.304571 2.42 -0.884571
1370.5625 3.24355 2.650398 -0.593152
1371.11328125 3.1191489999999997 2.598251 -0.520898
1371.6796875 2.8507569999999998 2.550989 -0.299768
1372.265625 3.351637 2.226014 -1.125623
1372.8359375 3.24876 2.204828 -1.043932
1373.38671875 2.9671399999999997 2.25214 -0.715
1373.92578125 2.964947 2.365333 -0.599614
1374.48046875 3.155048 2.264866 -0.890182
1375.0625 3.305 2.121477 -1.183523
1375.6015625 3.139601 2.159857 -0.979744
1376.1640625 3.234538 2.614538 -0.62
1376.734375 3.169211 2.245341 -0.92387
1377.2578125 3.589411 2.573916 -1.015495
1377.86328125 3.2685120000000003 2.120871 -1.147641
1378.421875 3.1551080000000002 2.223983 -0.931125
1378.96875 3.3091670000000004 2.089167 -1.22
1379.55078125 3.7756369999999997 2.528672 -1.246965
1380.125 3.151179 2.015 -1.136179
1380.66796875 3.518303 2.395 -1.123303
1381.265625 3.3069430000000004 2.004897 -1.302046
1381.8359375 3.8121979999999995 2.445 -1.367198
1382.375 3.1929739999999995 2.09 -1.102974
1382.9296875 3.109172 2.263259 -0.845913
1383.5078125 3.274647 2.02 -1.254647
1384.0625 3.1766829999999997 1.997958 -1.178725
1384.62890625 3.135978 2.196714 -0.939264
1385.20703125 3.3117989999999997 1.984575 -1.327224
1385.7734375 3.3394000000000004 1.953545 -1.385855
1386.3125 3.107342 2.156477 -0.950865
1386.85546875 3.324161 2.229746 -1.094415
1387.4296875 3.2425059999999997 1.973012 -1.269494
1387.9921875 3.1051219999999997 2.196236 -0.908886
1388.57421875 3.347741 2.696161 -0.65158
1389.13671875 3.384132 2.198806 -1.185326
1389.671875 3.149807 2.574807 -0.575
1390.25390625 3.120406 2.247372 -0.873034
1390.76171875 3.6782179999999998 2.753583 -0.924635
1391.3828125 3.319794 2.344816 -0.974978
1391.953125 3.686162 2.666035 -1.020127
1392.53125 3.3186430000000002 2.343643 -0.975
1393.08984375 2.968077 2.403077 -0.565
1393.65625 2.984961 2.344068 -0.640893
1394.2265625 3.3173839999999997 2.174806 -1.142578
1394.7890625 3.2294549999999997 2.134979 -1.094476
1395.3359375 2.985136 2.13815 -0.846986
1395.890625 2.918508 2.220595 -0.697913
1396.4921875 3.3133340000000002 2.063205 -1.250129
1397.0625 3.3244290000000003 2.030142 -1.294287
1397.61328125 3.170451 2.282717 -0.887734
1398.15234375 3.055049 2.25661 -0.798439
1398.71875 3.450194 2.447852 -1.002342
1399.28515625 3.5223940000000002 1.967601 -1.554793
1399.80859375 3.6658299999999997 2.154629 -1.511201
1400.890625 4.000093 2.452864 -1.547229
1401.5546875 3.557588 1.974494 -1.583094
1402.11328125 3.354817 1.999913 -1.354904
1403.234375 3.617962 2.514662 -1.1033
1403.796875 3.446815 2.147667 -1.299148
1404.3671875 3.339912 2.394912 -0.945
1404.9453125 3.3082770000000004 2.208918 -1.099359
1405.51953125 3.810696 2.764886 -1.04581
1406.078125 3.3555509999999997 2.306081 -1.04947
1406.62109375 3.230634 2.387844 -0.84279
1407.1875 3.476075 2.306711 -1.169364
1407.73828125 3.2586120000000003 2.708229 -0.550383
1408.30078125 3.2277250000000004 2.507423 -0.720302
1408.87890625 3.201556 2.738522 -0.463034
1409.44921875 3.353273 2.412573 -0.9407
1410.03125 3.3537779999999997 2.380975 -0.972803
1410.56640625 3.1969410000000003 2.446343 -0.750598
1411.125 3.169717 2.55 -0.619717
1411.68359375 3.0227950000000003 2.383427 -0.639368
1412.265625 3.3077300000000003 2.238468 -1.069262
1412.84375 3.205852 2.175852 -1.03
1413.39453125 3.569198 2.734965 -0.834233
1413.96484375 3.257169 2.248935 -1.008234
1414.45703125 3.8750800000000005 2.497444 -1.377636
1415.078125 3.274527 2.17963 -1.094897
1415.63671875 3.047838 2.407841 -0.639997
1416.2109375 3.2556000000000003 2.115 -1.1406
1416.79296875 3.3975280000000003 1.970666 -1.426862
1417.3359375 3.1187139999999998 1.989084 -1.12963
1417.90625 2.9839339999999996 2.14192 -0.842014
1418.47265625 3.2305390000000003 2.080587 -1.149952
1419.05859375 3.687995 2.338943 -1.349052
1419.58984375 3.3333 1.978003 -1.355297
1420.140625 3.610747 2.405776 -1.204971
1420.72265625 3.36243 1.943601 -1.418829
1421.3125 3.151901 2.201667 -0.950234
1421.8515625 3.18892 1.966299 -1.222621
1422.4140625 3.308999 2.372162 -0.936837
1422.95703125 2.387125 1.290476 -1.096649
1423.53125 3.429725 2.031983 -1.397742
1424.10546875 3.614855 2.089724 -1.525131
1424.640625 1.572209 0.427643 -1.144566
1425.20703125 3.211786 2.345549 -0.866237
1425.78515625 3.3773429999999998 2.268277 -1.109066
1426.36328125 3.532342 2.312446 -1.219896
1426.91015625 3.444109 2.726536 -0.717573
1427.57421875 1.501502 0.080018 -1.421484
1427.9921875 3.2844759999999997 2.688916 -0.59556
1428.6171875 3.392845 2.29078 -1.102065
1429.18359375 3.8041359999999997 2.999749 -0.804387
1429.75 3.45 2.47 -0.98
1430.3359375 3.51136 2.849151 -0.662209
1430.8671875 3.258906 2.597181 -0.661725
1431.4296875 2.883934 2.591912 -0.292022
1431.9921875 3.421635 2.434533 -0.987102
1432.55859375 3.177129 2.379344 -0.797785
1433.1171875 2.9877000000000002 2.461659 -0.526041
1433.6796875 3.097044 2.273398 -0.823646
1434.265625 3.259376 2.145114 -1.114262
1434.8046875 3.314797 2.549826 -0.764971
1435.375 2.949073 2.28 -0.669073
1435.92578125 3.333374 2.156954 -1.17642
1436.48046875 3.237715 2.18 -1.057715
1437.04296875 3.0394059999999996 2.426646 -0.61276
1437.63671875 3.335686 1.996694 -1.338992
1438.20703125 3.6619529999999996 2.34 -1.321953
1438.75 3.261543 1.965 -1.296543
1439.30078125 3.628321 2.369047 -1.259274
1439.69921875 3.386752 1.952744 -1.434008
1440.39453125 3.29894 1.841355 -1.457585
1440.953125 3.191946 1.864918 -1.327028
1441.546875 3.462816 1.988228 -1.474588
1442.13671875 3.361615 1.826424 -1.535191
1442.69140625 3.247826 1.8945 -1.353326
1443.2421875 3.1752339999999997 2.039405 -1.135829
1443.8046875 3.551849 2.156005 -1.395844
1444.36328125 3.19135 1.955281 -1.236069
1444.92578125 3.314649 2.479422 -0.835227
1445.5078125 3.243278 2.132912 -1.110366
1446.0234375 3.923572 2.543144 -1.380428
1446.640625 3.3047319999999996 2.230463 -1.074269
1447.18359375 3.233707 2.513899 -0.719808
1447.74609375 3.2412970000000003 2.269794 -0.971503
1448.31640625 3.456577 2.318246 -1.138331
1448.8671875 3.222463 2.456883 -0.76558
1449.42578125 3.033608 2.553694 -0.479914
1450.00390625 3.365786 2.431285 -0.934501
1450.578125 3.2654959999999997 2.486979 -0.778517
1451.12109375 3.056206 2.625537 -0.430669
1451.6953125 3.1128199999999997 2.493854 -0.618966
1452.26953125 3.339073 2.299805 -1.039268
1452.828125 3.074014 2.396068 -0.677946
1453.39453125 3.079439 2.399963 -0.679476
1453.98828125 3.633562 2.733583 -0.899979
1454.54296875 3.203791 2.312049 -0.891742
1455.109375 3.011389 2.382675 -0.628714
1455.6640625 3.192221 2.354391 -0.83783
1456.23828125 3.3899679999999996 2.341865 -1.048103
1456.80078125 3.083983 2.02814 -1.055843
1457.34765625 2.960247 2.345317 -0.61493
1457.92578125 3.102743 2.01312 -1.089623
1458.3359375 3.226242 2.062484 -1.163758
1459.03515625 3.284624 1.943223 -1.341401
1459.6015625 3.691814 2.49 -1.201814
1460.17578125 3.53005 2.129677 -1.400373
1460.73828125 3.872421 2.447421 -1.425
1461.2890625 3.3072980000000003 1.984957 -1.322341
1461.8828125 3.243614 2.033942 -1.209672
1462.4609375 3.4337299999999997 1.893732 -1.539998
1463.015625 3.315576 2.013222 -1.302354
1463.56640625 3.415762 2.196182 -1.21958
1464.14453125 3.4816320000000003 1.959929 -1.521703
1464.71875 3.499003 1.984003 -1.515
1465.26171875 3.296671 2.046693 -1.249978
1465.828125 3.2374169999999998 2.169639 -1.067778
1466.41015625 3.492446 2.127493 -1.364953
1467.0 3.6839839999999997 2.36 -1.323984
1467.55078125 3.531908 2.537435 -0.994473
1468.12109375 3.708501 2.607201 -1.1013
1468.69140625 3.603351 2.46974 -1.133611
1469.23828125 3.472175 2.65218 -0.819995
1469.80859375 3.9953830000000004 3.284612 -0.710771
1470.38671875 3.51302 2.765747 -0.747273
1470.96484375 3.722723 2.880985 -0.841738
1471.52734375 3.460989 2.67755 -0.783439
1472.0625 3.2957170000000002 2.820044 -0.475673
1472.609375 3.364581 2.951101 -0.41348
1473.17578125 3.2767660000000003 2.926788 -0.349978
1473.7578125 3.553106 2.913374 -0.639732
1474.34375 3.435402 2.698018 -0.737384
1474.8984375 3.233408 2.695697 -0.537711
1475.46875 3.132344 2.767344 -0.365
1476.04296875 3.286463 2.639143 -0.64732
1476.62109375 3.409298 2.515477 -0.893821
1477.16796875 3.218055 2.341448 -0.876607
1477.734375 3.529114 2.789938 -0.739176
1478.33203125 3.149383 2.415304 -0.734079
1478.9140625 3.3935839999999997 2.273792 -1.119792
1479.48046875 3.314854 1.979948 -1.334906
1480.01953125 3.8367940000000003 2.469688 -1.367106
1480.59375 3.441131 2.061131 -1.38
1481.171875 3.4411050000000003 1.887288 -1.553817
1481.71875 3.25999 1.765802 -1.494188
1482.2734375 3.116067 1.971721 -1.144346
1482.8515625 3.432087 2.022988 -1.409099
1483.4453125 3.4470549999999998 1.947165 -1.49989
1483.98046875 3.2611670000000004 2.019816 -1.241351
1484.54296875 3.211557 2.133164 -1.078393
1485.10546875 3.583501 2.229837 -1.353664
1485.6875 3.571841 2.11872 -1.453121
1486.25390625 3.287191 2.164177 -1.123014
1486.81640625 3.4866780000000004 2.738411 -0.748267
1487.390625 3.419253 2.396728 -1.022525
1487.8984375 4.093976 2.879598 -1.214378
1488.53515625 3.3883080000000003 2.535 -0.853308
1488.9140625 3.2742259999999996 2.175 -1.099226
1489.24609375 2.3437 0.847535 -1.496165
1490.19140625 3.583995 2.564288 -1.019707
1490.7890625 3.324905 2.469541 -0.855364
1491.3515625 3.18117 2.653578 -0.527592
1491.91796875 3.369972 2.579972 -0.79
1492.49609375 3.508387 2.624122 -0.884265
1493.0390625 3.230343 2.539328 -0.691015
1493.578125 2.903278 2.579919 -0.323359
1494.15625 3.35987 2.420013 -0.939857
1494.7421875 3.284874 2.334797 -0.950077
1495.296875 3.2392090000000002 2.479731 -0.759478
1495.85546875 3.097479 2.469858 -0.627621
1496.40625 3.261187 2.370601 -0.890586
1496.96875 3.3391140000000004 2.179114 -1.16
1497.52734375 3.11318 2.149278 -0.963902
1498.08203125 2.8862200000000002 2.222367 -0.663853
1498.66015625 3.3814159999999998 2.207693 -1.173723
1499.234375 3.349606 2.060553 -1.289053
1499.8125 3.1547669999999997 1.920294 -1.234473
1500.37109375 3.277128 2.016285 -1.260843
1500.9453125 3.4325539999999997 1.947644 -1.48491
1501.4921875 3.2321869999999997 1.9242 -1.307987
1502.0703125 3.2725530000000003 1.94873 -1.323823
1502.671875 3.450337 1.890303 -1.560034
1503.23046875 3.369721 1.934942 -1.434779
1503.79296875 3.240607 1.842345 -1.398262
1504.3671875 3.467154 1.836404 -1.63075
1504.921875 3.3466050000000003 1.892118 -1.454487
1505.46875 3.302735 2.087735 -1.215
1506.046875 3.5304029999999997 1.988764 -1.541639
1506.59765625 3.498213 2.123574 -1.374639
1507.1640625 3.268996 2.123237 -1.145759
1507.7421875 3.178608 2.223725 -0.954883
1508.30078125 3.4792940000000003 2.082673 -1.396621
1508.875 3.5510710000000003 2.24 -1.311071
1509.41015625 3.252198 2.371455 -0.880743
1509.9765625 3.224765 2.372949 -0.851816
1510.55859375 3.279458 2.393818 -0.88564
1511.13671875 3.174606 2.407806 -0.7668
1511.71484375 3.4352679999999998 2.419784 -1.015484
1512.28125 3.338011 2.313377 -1.024634
1512.8359375 3.2938169999999998 2.404505 -0.889312
1513.40625 3.372534 2.327875 -1.044659
1513.984375 3.294977 2.268 -1.026977
1514.52734375 3.095256 2.306662 -0.788594
1515.10546875 3.1403749999999997 2.239829 -0.900546
1515.69140625 3.359884 2.173049 -1.186835
1516.26171875 3.187743 2.095761 -1.091982
1516.82421875 2.995538 2.09055 -0.904988
1517.3828125 3.25469 2.029933 -1.224757
1517.9453125 3.264749 1.901631 -1.363118
1518.50390625 3.225677 2.003432 -1.222245
1519.09375 3.188018 1.888018 -1.3
1519.66796875 3.463717 1.947929 -1.515788
1520.2265625 3.23463 1.798721 -1.435909
1520.7734375 3.107268 1.887646 -1.219622
1521.34375 3.499286 2.059286 -1.44
1521.92578125 3.510379 2.006531 -1.503848
1522.46484375 3.2640079999999996 2.00439 -1.259618
1523.0390625 3.1800829999999998 2.064958 -1.115125
1523.6328125 3.41695 2.157193 -1.259757
1524.22265625 3.3212339999999996 2.041381 -1.279853
1524.7734375 3.078522 2.125846 -0.952676
1525.34375 3.3665570000000002 2.226557 -1.14
1525.921875 3.4127210000000003 2.209255 -1.203466
1526.484375 3.363933 2.349274 -1.014659
1527.05859375 3.129189 2.364903 -0.764286
1527.64453125 3.407704 2.4147 -0.993004
1528.2265625 3.408219 2.328037 -1.080182
1528.78125 3.1566810000000003 2.329257 -0.827424
1529.32421875 3.143428 2.42856 -0.714868
1529.87109375 3.10998 2.548051 -0.561929
1530.45703125 3.518325 2.589774 -0.928551
1531.03125 3.199479 2.39675 -0.802729
1531.5859375 3.127853 2.489375 -0.638478
1532.15625 2.8982940000000004 2.581024 -0.31727
1532.73046875 3.3736010000000003 2.554876 -0.818725
1533.3125 3.3914660000000003 2.483222 -0.908244
1533.85546875 3.1131640000000003 2.30085 -0.812314
1534.40625 3.0417569999999996 2.353061 -0.688696
1534.9765625 2.865694 2.354012 -0.511682
1535.5859375 3.3249199999999997 2.25059 -1.07433
1536.16015625 3.3965579999999997 2.159645 -1.236913
1536.71875 3.213095 2.118095 -1.095
1537.26171875 3.0739089999999996 2.055449 -1.01846
1537.82421875 2.901921 2.189992 -0.711929
1538.42578125 3.26567 2.107574 -1.158096
1538.98828125 3.326722 2.009677 -1.317045
1539.5546875 3.2124810000000004 1.967578 -1.244903
1540.12109375 3.102208 1.900353 -1.201855
1540.70703125 3.273909 1.960452 -1.313457
1541.28125 3.4693579999999997 2.033271 -1.436087
1541.83203125 3.232616 1.917806 -1.31481
1542.37890625 3.181966 2.142451 -1.039515
1542.96484375 3.332707 2.177707 -1.155
1543.55859375 3.416228 2.203318 -1.21291
1544.10546875 3.214173 2.183358 -1.030815
1544.67578125 3.137076 2.272449 -0.864627
1545.23046875 3.3985380000000003 2.389851 -1.008687
1545.8125 3.5531180000000004 2.433431 -1.119687
1546.36328125 3.1657480000000002 2.400831 -0.764917
1546.9296875 3.483505 2.528956 -0.954549
1547.5078125 3.2369999999999997 2.435208 -0.801792
1548.07421875 3.1925749999999997 2.61697 -0.575605
1548.66796875 3.312405 2.493875 -0.81853
1549.23828125 3.47059 2.418841 -1.051749
1549.80078125 3.175649 2.518007 -0.657642
1550.34375 3.014459 2.639094 -0.375365
1550.91796875 3.2269449999999997 2.608005 -0.61894
1551.51953125 3.34328 2.484977 -0.858303
1552.08984375 3.229117 2.430913 -0.798204
1552.66015625 3.068069 2.504164 -0.563905
1553.21484375 3.0368209999999998 2.475018 -0.561803
1553.78515625 3.4788740000000002 2.324943 -1.153931
1554.34375 3.405723 2.225484 -1.180239
1554.90234375 3.209975 2.21583 -0.994145
1555.45703125 3.054054 2.490868 -0.563186
1556.0390625 3.38861 2.223949 -1.164661
1556.62890625 3.499935 2.109469 -1.390466
1557.1796875 3.2547800000000002 2.030122 -1.224658
1557.73828125 3.2169 2.141952 -1.074948
1558.29296875 3.1518050000000004 2.190418 -0.961387
1558.87890625 3.466076 2.226905 -1.239171
1559.46484375 3.188446 1.833446 -1.355
1560.046875 3.177865 2.119276 -1.058589
1560.62109375 3.5323130000000003 2.262446 -1.269867
1561.19921875 3.3869119999999997 2.0 -1.386912
1561.7421875 3.242257 2.027389 -1.214868
1562.296875 3.2484349999999997 2.209362 -1.039073
1562.86328125 3.19811 2.274165 -0.923945
1563.44140625 3.488994 2.3305 -1.158494
1564.01953125 3.426663 2.299855 -1.126808
1564.40625 2.751662 1.461776 -1.289886
1564.78515625 2.186163 1.606907 -0.579256
1565.4375 3.4460439999999997 2.473333 -0.972711
1566.109375 3.494965 2.353502 -1.141463
1566.65234375 3.271544 2.509236 -0.762308
1567.22265625 3.165561 2.596326 -0.569235
1567.81640625 3.4262129999999997 2.543427 -0.882786
1568.40234375 3.48882 2.454587 -1.034233
1568.96484375 3.380871 2.401998 -0.978873
