462200 
62 
226 
387 
556 
726 
897 
1063 
1236 
1401 
1561 
1715 
1873 
2031 
2197 
2365 
2531 
2693 
2855 
3016 
3168 
3318 
3472 
3629 
3792 
3957 
4120 
4283 
4436 
4591 
4745 
4902 
5055 
5214 
5375 
5545 
5719 
5879 
6036 
6196 
6361 
6522 
6684 
6851 
7025 
7198 
7371 
7535 
7695 
7858 
8028 
8194 
8362 
8537 
8713 
8887 
9060 
9225 
9390 
9556 
9735 
9888 
10088 
10266 
10445 
10620 
10793 
10960 
11125 
11301 
11489 
11671 
11848 
12025 
12197 
12372 
12543 
12714 
12891 
13082 
13265 
13443 
13618 
13789 
13963 
14140 
14312 
14489 
14679 
14865 
15044 
15218 
15392 
15563 
15740 
15916 
16097 
16282 
16472 
16651 
16820 
16991 
17161 
17339 
17521 
17705 
17887 
18078 
18257 
18427 
18598 
18772 
18953 
19140 
19324 
19505 
19653 
19869 
20040 
20215 
20391 
20576 
20768 
20953 
21133 
21318 
21497 
21672 
21845 
22025 
22211 
22404 
22589 
22769 
22948 
23130 
23307 
23479 
23626 
23847 
24036 
24222 
24399 
24572 
24756 
24932 
25107 
25291 
25477 
25667 
25852 
26029 
26204 
26386 
26566 
26748 
26934 
27122 
27311 
27497 
27671 
27843 
28023 
28206 
28393 
28577 
28764 
28945 
29126 
29300 
29473 
29650 
29840 
30026 
30207 
30391 
30569 
30748 
30925 
31101 
31278 
31472 
31659 
31841 
32021 
32198 
32373 
32540 
32726 
32900 
33088 
33276 
33459 
33630 
33802 
33971 
34147 
34323 
34504 
34687 
34879 
35060 
35231 
35402 
35573 
35751 
35935 
36114 
36293 
36482 
36662 
36834 
37002 
37176 
37352 
37536 
37719 
37898 
38082 
38264 
38435 
38601 
38773 
38945 
39127 
39312 
39492 
39666 
39845 
40015 
40184 
40354 
40531 
40717 
40906 
41087 
41261 
41439 
41617 
41792 
41965 
42148 
42337 
42527 
42708 
42883 
43062 
43242 
43419 
43597 
43784 
43970 
44160 
44340 
44513 
44687 
44868 
45046 
45222 
45406 
45586 
45769 
45946 
46116 
46282 
46458 
46637 
46818 
46995 
47179 
47361 
47540 
47711 
47880 
48059 
48246 
48433 
48614 
48797 
48974 
49152 
49324 
49497 
49675 
49865 
50050 
50231 
50412 
50586 
50760 
50939 
51113 
51289 
51478 
51666 
51849 
52026 
52202 
52375 
52554 
52732 
52912 
53099 
53294 
53477 
53648 
53822 
53994 
54173 
54356 
54543 
54727 
54919 
55101 
55275 
55449 
55625 
55809 
55997 
56182 
56364 
56551 
56732 
56908 
57078 
57256 
57437 
57628 
57812 
57993 
58176 
58357 
58532 
58703 
58882 
59064 
59256 
59442 
59623 
59800 
59985 
60158 
60507 
60688 
60878 
61064 
61240 
61409 
61585 
61754 
61923 
62093 
62270 
62446 
62620 
62788 
62952 
63112 
63285 
63452 
63620 
63791 
63968 
64146 
64323 
64486 
64648 
64817 
64995 
65172 
65347 
65527 
65705 
65885 
66060 
66230 
66404 
66592 
66778 
66961 
67150 
67333 
67517 
67697 
67876 
68054 
68251 
68444 
68632 
68821 
69004 
69188 
69370 
69551 
69736 
69935 
70129 
70312 
70494 
70672 
70855 
71036 
71219 
71406 
71606 
71792 
71971 
72148 
72321 
72501 
72684 
72866 
73049 
73243 
73428 
73605 
73781 
73958 
74138 
74323 
74518 
74703 
74894 
75080 
75257 
75430 
75609 
75790 
75979 
76168 
76354 
76538 
76726 
76904 
77077 
77258 
77445 
77638 
77828 
78015 
78197 
78383 
78560 
78734 
78917 
79102 
79297 
79486 
79669 
79846 
80033 
80211 
80391 
80579 
80768 
80965 
81154 
81333 
81507 
81693 
81875 
82055 
82245 
82434 
82625 
82813 
82991 
83164 
83353 
83538 
83723 
83912 
84098 
84296 
84460 
84644 
84801 
84996 
85177 
85360 
85524 
85698 
85871 
86052 
86213 
86375 
86538 
86719 
86889 
87057 
87209 
87372 
87547 
87715 
87858 
88018 
88185 
88364 
88534 
88698 
88865 
89029 
89194 
89360 
89523 
89690 
89864 
90045 
90216 
90379 
90544 
90707 
90874 
91045 
91215 
91387 
91568 
91750 
91925 
92089 
92256 
92422 
92597 
92775 
92954 
93132 
93319 
93497 
93668 
93836 
94008 
94187 
94376 
94557 
94737 
94926 
95110 
95285 
95456 
95634 
95815 
96005 
96193 
96376 
96560 
96746 
96921 
97094 
97273 
97457 
97649 
97838 
98023 
98198 
98380 
98556 
98728 
98907 
99093 
99284 
99475 
99656 
99828 
100006 
100185 
100364 
100543 
100731 
100919 
101105 
101279 
101451 
101626 
101807 
101986 
102166 
102351 
102531 
102714 
102890 
103061 
103232 
103417 
103599 
103783 
103968 
104151 
104332 
104514 
104689 
104861 
105049 
105241 
105429 
105609 
105792 
105971 
106150 
106323 
106497 
106686 
106880 
107067 
107245 
107424 
107600 
107778 
107954 
108132 
108322 
108515 
108700 
108838 
109051 
109223 
109405 
109582 
109726 
109951 
110144 
110328 
110500 
110673 
110842 
111018 
111200 
111381 
111558 
111746 
111922 
112091 
112260 
112433 
112610 
112797 
112983 
113164 
113351 
113533 
113706 
113876 
114054 
114236 
114427 
114610 
114794 
114980 
115160 
115336 
115508 
115688 
115871 
116063 
116250 
116430 
116611 
116794 
116971 
117146 
117329 
117516 
117709 
117896 
118075 
118253 
118437 
118614 
118789 
118974 
119162 
119354 
119541 
119720 
119896 
120082 
120263 
120445 
120636 
120824 
121016 
121201 
121381 
121556 
121741 
121925 
122111 
122298 
122485 
122672 
122856 
123030 
123202 
123387 
123574 
123761 
123942 
124126 
124303 
124480 
124650 
124821 
125003 
125182 
125379 
125556 
125738 
125911 
126087 
126264 
126440 
126619 
126811 
126996 
127174 
127346 
127518 
127692 
127869 
128044 
128221 
128408 
128599 
128782 
128952 
129127 
129303 
129485 
129667 
129852 
130046 
130240 
130423 
130565 
130777 
130957 
131152 
131341 
131529 
131724 
131915 
132094 
132269 
132450 
132632 
132826 
133016 
133202 
133391 
133576 
133754 
133929 
134112 
134301 
134498 
134686 
134869 
135054 
135235 
135382 
135586 
135770 
135966 
136160 
136345 
136523 
136707 
136886 
137062 
137240 
137426 
137617 
137809 
137988 
138160 
138340 
138518 
138695 
138875 
139065 
139253 
139442 
139621 
139794 
139970 
140154 
140337 
140516 
140706 
140891 
141078 
141256 
141430 
141611 
141800 
141989 
142177 
142369 
142558 
142745 
142922 
143100 
143284 
143476 
143667 
143855 
144045 
144228 
144414 
144594 
144773 
144962 
145161 
145354 
145543 
145731 
145911 
146097 
146280 
146462 
146655 
146857 
147050 
147233 
147418 
147598 
147782 
147965 
148152 
148345 
148543 
148731 
148907 
149086 
149262 
149445 
149628 
149816 
150005 
150198 
150381 
150554 
150730 
150906 
151093 
151283 
151469 
151656 
151848 
152027 
152200 
152379 
152558 
152751 
152943 
153131 
153318 
153510 
153688 
153863 
154005 
154228 
154422 
154616 
154802 
154986 
155173 
155352 
155527 
155711 
155901 
156096 
156467 
156647 
156835 
157014 
157193 
157380 
157570 
157764 
157949 
158125 
158304 
158489 
158669 
158850 
159040 
159229 
159422 
159603 
159778 
159959 
160145 
160331 
160517 
160710 
160900 
161089 
161267 
161441 
161624 
161812 
162001 
162188 
162380 
162569 
162754 
162930 
163106 
163292 
163485 
163678 
163863 
164051 
164236 
164421 
164596 
164771 
164962 
165156 
165345 
165530 
165713 
165891 
166073 
166247 
166423 
166613 
166808 
166968 
167175 
167355 
167534 
167714 
167896 
168080 
168272 
168470 
168660 
168838 
169018 
169196 
169381 
169567 
169757 
169948 
170145 
170331 
170506 
170683 
170862 
171051 
171241 
171431 
171622 
171815 
171995 
172170 
172351 
172531 
172725 
172917 
173106 
173295 
173484 
173664 
173839 
174023 
174209 
174407 
174563 
174788 
174971 
175163 
175345 
175521 
175709 
175900 
176096 
176285 
176466 
176648 
176834 
177016 
177195 
177385 
177576 
177770 
177955 
178133 
178316 
178502 
178687 
178873 
179067 
179261 
179454 
179633 
179807 
179990 
180174 
180359 
180547 
180737 
180926 
181115 
181293 
181465 
181650 
181838 
182025 
182211 
182400 
182587 
182771 
182949 
183125 
183313 
183505 
183694 
183883 
184069 
184255 
184437 
184614 
184793 
184987 
185179 
185368 
185556 
185736 
185918 
186100 
186279 
186459 
186655 
186846 
187029 
187212 
187389 
187570 
187754 
187935 
188121 
188322 
188513 
188695 
188874 
189052 
189234 
189418 
189606 
189795 
189992 
190180 
190359 
190536 
190714 
190899 
191090 
191280 
191467 
191660 
191842 
192019 
192193 
192370 
192556 
192752 
192939 
193122 
193311 
193492 
193668 
193840 
194021 
194206 
194398 
194585 
194766 
194949 
195131 
195307 
195482 
195665 
195851 
196042 
196228 
196409 
196585 
196767 
196943 
197120 
197306 
197495 
197689 
197877 
198057 
198235 
198422 
198604 
198787 
198979 
199169 
199364 
199547 
199724 
199905 
200093 
200279 
200466 
200658 
200846 
201035 
201215 
201390 
201574 
201765 
201955 
202142 
202335 
202521 
202704 
202881 
203056 
203240 
203433 
203624 
203810 
203998 
204181 
204364 
204540 
204717 
204907 
205103 
205294 
205479 
205662 
205843 
206026 
206204 
206382 
206577 
206770 
206956 
207141 
207321 
207501 
207687 
207869 
208052 
208249 
208440 
208625 
208805 
208983 
209164 
209349 
209535 
209721 
209917 
210108 
210289 
210464 
210642 
210826 
211015 
211202 
211389 
211586 
211772 
211949 
212126 
212306 
212492 
212685 
212874 
213061 
213255 
213436 
213611 
213788 
213967 
214154 
214350 
214539 
214721 
214907 
215088 
215265 
215442 
215627 
215819 
216015 
216204 
216384 
216749 
216930 
217112 
217303 
217498 
217691 
217879 
218057 
218241 
218423 
218607 
218794 
218988 
219182 
219375 
219555 
219731 
219914 
220098 
220285 
220475 
220666 
220856 
221044 
221221 
221395 
221578 
221768 
221955 
222141 
222332 
222514 
222698 
222872 
223046 
223232 
223425 
223615 
223801 
223988 
224171 
224352 
224530 
224707 
224899 
225091 
225283 
225469 
225652 
225835 
226020 
226200 
226383 
226581 
226773 
226961 
227146 
227324 
227506 
227691 
227873 
228058 
228257 
228447 
228628 
228806 
228983 
229164 
229348 
229534 
229720 
229917 
230104 
230279 
230455 
230630 
230813 
230996 
231184 
231371 
231565 
231748 
231924 
232102 
232277 
232463 
232654 
232842 
233028 
233219 
233398 
233570 
233745 
233921 
234107 
234301 
234486 
234668 
234822 
235036 
235207 
235385 
235565 
235753 
235945 
236131 
236308 
236489 
236665 
236840 
237014 
237197 
237386 
237578 
237762 
237940 
238118 
238296 
238474 
238619 
238840 
239025 
239219 
239399 
239574 
239750 
239934 
240113 
240293 
240482 
240669 
240858 
241039 
241216 
241393 
241580 
241764 
241948 
242141 
242328 
242514 
242696 
242873 
243050 
243241 
243432 
243619 
243808 
243994 
244178 
244359 
244537 
244716 
244913 
245106 
245292 
245479 
245659 
245844 
246024 
246203 
246388 
246589 
246781 
246965 
247149 
247325 
247507 
247686 
247867 
248056 
248254 
248443 
248622 
248803 
248979 
249161 
249344 
249531 
249722 
249919 
250108 
250285 
250464 
250642 
250827 
251014 
251203 
251395 
251589 
251773 
251948 
252127 
252310 
252499 
252687 
252874 
253067 
253254 
253430 
253604 
253784 
253966 
254160 
254350 
254537 
254730 
254916 
255095 
255273 
255458 
255651 
255850 
256042 
256227 
256416 
256598 
256777 
256956 
257142 
257339 
257535 
257724 
257906 
258094 
258274 
258453 
258638 
258826 
259021 
259213 
259395 
259571 
259755 
259933 
260111 
260299 
260487 
260678 
260868 
261047 
261220 
261403 
261583 
261766 
261952 
262142 
262331 
262518 
262694 
262870 
263053 
263243 
263432 
263617 
263793 
263995 
264176 
264354 
264529 
264714 
264905 
265096 
265281 
265469 
265649 
265830 
265997 
266183 
266370 
266566 
266756 
266940 
267123 
267299 
267479 
267658 
267836 
268027 
268224 
268412 
268592 
268772 
268947 
269128 
269309 
269492 
269683 
269881 
270066 
270242 
270420 
270598 
270781 
270965 
271118 
271348 
271544 
271731 
271908 
272086 
272267 
272456 
272643 
272831 
273021 
273210 
273389 
273564 
273742 
273923 
274117 
274306 
274491 
274680 
274863 
275039 
275211 
275391 
275576 
275767 
275955 
276138 
276324 
276506 
276683 
276858 
277043 
277235 
277430 
277618 
277799 
277982 
278163 
278342 
278521 
278681 
278899 
279093 
279278 
279453 
279635 
279816 
279995 
280176 
280366 
280523 
280750 
280928 
281104 
281287 
281470 
281651 
281834 
282025 
282214 
282402 
282581 
282756 
282938 
283124 
283291 
283500 
283690 
283879 
284064 
284241 
284416 
284598 
284787 
284978 
285165 
285352 
285536 
285720 
285898 
286075 
286260 
286455 
286644 
286829 
287012 
287189 
287369 
287547 
287726 
287912 
288111 
288298 
288480 
288661 
288835 
289016 
289198 
289381 
289567 
289765 
289953 
290092 
290310 
290485 
290671 
290856 
291047 
291235 
291433 
291620 
291795 
291973 
292151 
292337 
292716 
292905 
293103 
293283 
293457 
293636 
293814 
294002 
294193 
294380 
294567 
294757 
294932 
295105 
295282 
295460 
295649 
295841 
296027 
296208 
296394 
296571 
296743 
296921 
297104 
297296 
297486 
297671 
297849 
298032 
298208 
298382 
298561 
298746 
299127 
299311 
299492 
299678 
299855 
300032 
300220 
300407 
300600 
300787 
300965 
301140 
301324 
301504 
301684 
301874 
302061 
302252 
302436 
302613 
302788 
302974 
303159 
303342 
303531 
303719 
303907 
304086 
304261 
304439 
304628 
304815 
305000 
305189 
305374 
305559 
305735 
305910 
306088 
306280 
306467 
306651 
306838 
307017 
307197 
307377 
307554 
307731 
307927 
308117 
308302 
308486 
308664 
308845 
309029 
309209 
309389 
309586 
309779 
309964 
310142 
310321 
310502 
310685 
310868 
311052 
311246 
311436 
311620 
311795 
311974 
312155 
312341 
312527 
312713 
312907 
313096 
313277 
313453 
313632 
313814 
314006 
314195 
314380 
314570 
314757 
314933 
315105 
315285 
315467 
315659 
315845 
316028 
316217 
316402 
316579 
316753 
316936 
317127 
317321 
317509 
317690 
317874 
318055 
318232 
318409 
318593 
318786 
318982 
319167 
319346 
319529 
319710 
319889 
320071 
320257 
320449 
320644 
320826 
320999 
321181 
321360 
321541 
321726 
321917 
322110 
322301 
322482 
322656 
322841 
323023 
323205 
323394 
323583 
323775 
323959 
324136 
324310 
324495 
324679 
324865 
325054 
325239 
325426 
325607 
325783 
325957 
326145 
326331 
326517 
326704 
326888 
327070 
327251 
327426 
327601 
327794 
327985 
328169 
328355 
328537 
328716 
328896 
329075 
329251 
329443 
329634 
329819 
330000 
330179 
330357 
330539 
330717 
330897 
331089 
331280 
331467 
331642 
331817 
331993 
332174 
332353 
332535 
332724 
332919 
333101 
333273 
333449 
333625 
333808 
333994 
334182 
334372 
334567 
334747 
334920 
335099 
335277 
335464 
335655 
335844 
336030 
336223 
336402 
336575 
336754 
336936 
337106 
337320 
337508 
337691 
337879 
338058 
338230 
338410 
338594 
338788 
338979 
339162 
339342 
339527 
339703 
339877 
340060 
340245 
340438 
340627 
340807 
340984 
341169 
341347 
341525 
341712 
341900 
342091 
342278 
342457 
342631 
342816 
342995 
343175 
343363 
343550 
343741 
343922 
344098 
344273 
344458 
344641 
344823 
345010 
345197 
345384 
345561 
345734 
345910 
346098 
346281 
346463 
346651 
346834 
347018 
347197 
347371 
347547 
347739 
347927 
348111 
348298 
348479 
348659 
348837 
349013 
349190 
349386 
349576 
349759 
349943 
350121 
350302 
350480 
350657 
350838 
351034 
351222 
351404 
351583 
351757 
351936 
352117 
352297 
352480 
352676 
352863 
353044 
353222 
353398 
353576 
353762 
353947 
354130 
354324 
354512 
354692 
354865 
355042 
355222 
355411 
355600 
355784 
355975 
356163 
356342 
356511 
356690 
356872 
357059 
357246 
357431 
357618 
357800 
357974 
358146 
358325 
358508 
358700 
358889 
359074 
359257 
359443 
359620 
359794 
359976 
360161 
360357 
360547 
360729 
360907 
361093 
361273 
361447 
361636 
361823 
362016 
362204 
362382 
362559 
362746 
362926 
363105 
363293 
363469 
363675 
363856 
364036 
364214 
364402 
364586 
364771 
364961 
365148 
365337 
365515 
365690 
365868 
366054 
366239 
366424 
366613 
366796 
366981 
367158 
367331 
367511 
367700 
367889 
368071 
368259 
368440 
368621 
368796 
368970 
369150 
369342 
369531 
369714 
369898 
370078 
370257 
370433 
370610 
370794 
370989 
371179 
371364 
371546 
371722 
371902 
372081 
372259 
372445 
372640 
372797 
373006 
373196 
373355 
373534 
373711 
373889 
374072 
374265 
374447 
374617 
374789 
374961 
375136 
375315 
375497 
375677 
375866 
376048 
376222 
376391 
376560 
376734 
376908 
377084 
377262 
377438 
377618 
377781 
377940 
378093 
378248 
378403 
378564 
378735 
378911 
379080 
379258 
379420 
379585 
379746 
379914 
380085 
380262 
380436 
380608 
380776 
380951 
381115 
381280 
381452 
381630 
381817 
382005 
382182 
382351 
382525 
382700 
382873 
383044 
383227 
383410 
383595 
383773 
383946 
384120 
384303 
384484 
384665 
384856 
385045 
385241 
385425 
385603 
385788 
385979 
386168 
386359 
386553 
386745 
386938 
387120 
387299 
387489 
387658 
387876 
388068 
388259 
388445 
388629 
388805 
388980 
389167 
389356 
389542 
389730 
389913 
390097 
390280 
390459 
390639 
390836 
391030 
391220 
391408 
391588 
391774 
391957 
392139 
392328 
392532 
392725 
392912 
393100 
393281 
393466 
393650 
393837 
394033 
394233 
394426 
394610 
394795 
394980 
395169 
395359 
395551 
395754 
395952 
396138 
396320 
396503 
396693 
396886 
397076 
397269 
397472 
397659 
397838 
398018 
398199 
398389 
398582 
398774 
398963 
399158 
399337 
399511 
399691 
399871 
400061 
400255 
400446 
400629 
400819 
400998 
401172 
401352 
401533 
401723 
401912 
402092 
402267 
402438 
402603 
402771 
402929 
403121 
403282 
403464 
403644 
403804 
403966 
404139 
404301 
404470 
404640 
404819 
404994 
405172 
405339 
405500 
405684 
405853 
406020 
406185 
406342 
406513 
406689 
406862 
407025 
407184 
407353 
407530 
407707 
407882 
408064 
408244 
408424 
408600 
408774 
408950 
409142 
409332 
409517 
409705 
409890 
410074 
410252 
410430 
410614 
410811 
411004 
411192 
411381 
411564 
411748 
411929 
412109 
412301 
412500 
412669 
412874 
413056 
413236 
413419 
413597 
413775 
413967 
414163 
414349 
414528 
414707 
414886 
415038 
415250 
415433 
415635 
415827 
416013 
416193 
416375 
416560 
416750 
416939 
417131 
417330 
417520 
417700 
417879 
418057 
418244 
418433 
418623 
418812 
419011 
419196 
419371 
419551 
419730 
419921 
420116 
420307 
420500 
420698 
420884 
421063 
421250 
421442 
421642 
421838 
422031 
422225 
422414 
422599 
422782 
422971 
423171 
423375 
423569 
423756 
423931 
424130 
424310 
424499 
424690 
424890 
425089 
425275 
425456 
425645 
425828 
426008 
426199 
426391 
426587 
426778 
426962 
427141 
427333 
427520 
427707 
427903 
428096 
428290 
428474 
428654 
428834 
429024 
429175 
429404 
429594 
429788 
429978 
430157 
430337 
430522 
430718 
430914 
431103 
431296 
431484 
431671 
431849 
432025 
432220 
432388 
432610 
432801 
432992 
433177 
433364 
433547 
433732 
433936 
434132 
434321 
434511 
434696 
434886 
435073 
435262 
435457 
435660 
435854 
436039 
436220 
436403 
436592 
436779 
436970 
437173 
437370 
437560 
437745 
437928 
438118 
438312 
438508 
438704 
438910 
439100 
439282 
439467 
439652 
439844 
440038 
440231 
440428 
440621 
440805 
440983 
441165 
441353 
441549 
441742 
441931 
442128 
442315 
442495 
442677 
442863 
443061 
443261 
443453 
443646 
443840 
444021 
444199 
444386 
444575 
444774 
444968 
445158 
445346 
445536 
445720 
445902 
446097 
446293 
446494 
446688 
446873 
447060 
447249 
447436 
447625 
447821 
448022 
448222 
448410 
448591 
448782 
448972 
449142 
449360 
449555 
449755 
449943 
450124 
450303 
450495 
450682 
450872 
451066 
451255 
451446 
451630 
451811 
451996 
452193 
452388 
452580 
452777 
452965 
453153 
453337 
453519 
453712 
453914 
454111 
454301 
454493 
454683 
454873 
455058 
455245 
455446 
455637 
455818 
455993 
456164 
456335 
456524 
456695 
456848 
457037 
457220 
457400 
457571 
457740 
457908 
458083 
458260 
458436 
458622 
458812 
458992 
459162 
459335 
459507 
459687 
459870 
460058 
460249 
460446 
460634 
460812 
460994 
461180 
461343 
461570 
461762 
461965 
462156 
