4.37890625 2.188587 1.364446 -0.824141
5.15625 2.290888 1.622727 -0.668161
5.90625 2.185479 1.439671 -0.745808
6.625 2.094944 1.33 -0.764944
7.35546875 2.128973 1.359962 -0.769011
8.08203125 2.275927 1.371047 -0.90488
8.82421875 2.262422 1.431047 -0.831375
9.5703125 2.265281 1.487718 -0.777563
10.3125 2.2559810000000002 1.446449 -0.809532
11.0234375 2.1913970000000003 1.392441 -0.798956
11.77734375 2.301757 1.410267 -0.89149
12.54296875 2.25724 1.418515 -0.838725
13.27734375 2.37577 1.490951 -0.884819
13.9921875 2.285392 1.43566 -0.849732
14.7265625 2.191574 1.417595 -0.773979
15.47265625 2.1322 1.37688 -0.75532
16.23046875 2.199248 1.374887 -0.824361
16.96875 2.168866 1.350833 -0.818033
17.69921875 2.173153 1.34532 -0.827833
18.4609375 2.27361 1.389596 -0.884014
19.22265625 2.248064 1.453064 -0.795
19.9609375 2.159084 1.365 -0.794084
20.6796875 2.1012939999999998 1.320798 -0.780496
21.4140625 2.204585 1.404693 -0.799892
22.16015625 2.222074 1.391165 -0.830909
22.91796875 2.248964 1.513348 -0.735616
24.3828125 2.1584909999999997 1.368796 -0.789695
25.1328125 2.1326 1.42 -0.7126
25.89453125 2.204604 1.424995 -0.779609
26.6328125 2.263402 1.398781 -0.864621
27.3671875 2.2105259999999998 1.489366 -0.72116
28.11328125 2.114169 1.375019 -0.73915
28.859375 2.215172 1.440876 -0.774296
29.63671875 2.168872 1.473872 -0.695
30.39453125 2.289988 1.515287 -0.774701
31.140625 2.3226709999999997 1.500824 -0.821847
31.88671875 2.382111 1.609681 -0.77243
32.671875 2.168958 1.479224 -0.689734
33.43359375 2.147394 1.46653 -0.680864
34.1953125 2.253476 1.514826 -0.73865
34.95703125 2.281092 1.396179 -0.884913
35.70703125 2.306221 1.516276 -0.789945
36.4765625 2.286657 1.591657 -0.695
37.23046875 2.313431 1.564853 -0.748578
37.96875 2.168444 1.38855 -0.779894
38.70703125 2.137949 1.38 -0.757949
39.48828125 2.273511 1.348511 -0.925
40.23046875 2.394862 1.539862 -0.855
40.95703125 2.257909 1.478074 -0.779835
41.6953125 2.152542 1.374365 -0.778177
42.4375 2.183904 1.384158 -0.799746
43.19140625 2.1827900000000002 1.363911 -0.818879
43.9609375 2.316598 1.366683 -0.949915
44.71875 2.3877420000000003 1.524286 -0.863456
45.48046875 2.321205 1.534919 -0.786286
46.29296875 2.205539 1.426899 -0.77864
47.06640625 2.148651 1.411664 -0.736987
47.8125 2.1955 1.4405 -0.755
48.5859375 2.2580109999999998 1.414857 -0.843154
49.3515625 2.328514 1.568514 -0.76
50.12890625 2.226486 1.585 -0.641486
50.8828125 2.1340890000000003 1.449089 -0.685
51.62109375 2.2425230000000003 1.465688 -0.776835
52.3671875 2.252455 1.513915 -0.73854
53.12890625 2.3219 1.483223 -0.838677
53.86328125 2.4339630000000003 1.590289 -0.843674
54.56640625 2.323624 1.57976 -0.743864
55.296875 2.2248229999999998 1.444025 -0.780798
56.03125 2.13653 1.337467 -0.799063
56.77734375 2.162001 1.398897 -0.763104
57.5234375 2.304824 1.37 -0.934824
58.26171875 2.2978009999999998 1.556424 -0.741377
58.984375 2.2480510000000002 1.518477 -0.729574
59.75 2.241545 1.4 -0.841545
60.49609375 2.171314 1.375032 -0.796282
61.21484375 2.1379420000000002 1.387369 -0.750573
61.8125 1.380096 0.610125 -0.769971
62.703125 2.248982 1.459039 -0.789943
63.47265625 2.301587 1.596587 -0.705
64.02734375 2.516923 1.669398 -0.847525
64.83984375 2.233422 1.41006 -0.823362
65.640625 2.265908 1.479275 -0.786633
66.45703125 2.321651 1.46945 -0.852201
67.2421875 2.343152 1.548173 -0.794979
68.00390625 2.3432139999999997 1.653214 -0.69
68.7734375 2.205757 1.513431 -0.692326
69.53125 2.181885 1.479941 -0.701944
70.3203125 2.29079 1.521504 -0.769286
71.06640625 2.262241 1.514254 -0.747987
71.8046875 2.393443 1.605214 -0.788229
72.56640625 2.4611270000000003 1.758984 -0.702143
73.0703125 2.045476 0.867331 -1.178145
74.08203125 2.166476 1.461476 -0.705
74.8203125 2.18417 1.436589 -0.747581
75.5703125 2.297298 1.398826 -0.898472
76.28515625 2.3038730000000003 1.465186 -0.838687
77.04296875 2.340882 1.550929 -0.789953
77.7890625 2.231764 1.459494 -0.77227
78.53125 2.187951 1.353479 -0.834472
79.28125 2.205206 1.34096 -0.864246
80.0703125 2.228945 1.273945 -0.955
80.82421875 2.257384 1.360436 -0.896948
81.5625 2.241229 1.482928 -0.758301
82.3203125 2.19513 1.351578 -0.843552
83.06640625 2.077178 1.289229 -0.787949
83.8359375 2.0936820000000003 1.299638 -0.794044
84.609375 2.2090199999999998 1.321211 -0.887809
85.359375 2.3580959999999997 1.386328 -0.971768
86.1015625 2.285056 1.543976 -0.74108
86.86328125 2.2103219999999997 1.42 -0.790322
87.59765625 2.167005 1.305 -0.862005
88.29296875 2.14097 1.336631 -0.804339
89.02734375 2.25352 1.304501 -0.949019
89.76171875 2.263739 1.359367 -0.904372
90.5 2.262245 1.5 -0.762245
91.25 2.311483 1.435 -0.876483
91.984375 2.172408 1.389198 -0.78321
92.69921875 2.1749080000000003 1.426279 -0.748629
93.4609375 2.233971 1.414533 -0.819438
94.19921875 2.246905 1.410623 -0.836282
94.921875 2.3948359999999997 1.579821 -0.815015
95.64453125 2.208722 1.549968 -0.658754
96.38671875 2.118056 1.388224 -0.729832
97.14453125 2.1833299999999998 1.439843 -0.743487
97.88671875 2.173344 1.398481 -0.774863
98.609375 2.237147 1.355043 -0.882104
99.33203125 2.358283 1.598384 -0.759899
100.05859375 2.1989929999999998 1.479015 -0.719978
100.81640625 2.244892 1.419445 -0.825447
101.5546875 2.204184 1.447535 -0.756649
102.28125 2.167627 1.342966 -0.824661
103.03515625 2.270506 1.316006 -0.9545
103.7734375 2.290476 1.570476 -0.72
104.52734375 2.2765329999999997 1.544905 -0.731628
105.26171875 2.238587 1.433862 -0.804725
105.9765625 2.1618589999999998 1.377773 -0.784086
106.70703125 2.231528 1.451646 -0.779882
107.45703125 2.256836 1.448828 -0.808008
108.18359375 2.329246 1.629268 -0.699978
108.90625 2.2717 1.576833 -0.694867
109.62109375 2.194018 1.459282 -0.734736
110.35546875 2.2390660000000002 1.47 -0.769066
111.09375 2.201856 1.44925 -0.752606
111.83984375 2.247974 1.394763 -0.853211
112.55859375 2.3144099999999996 1.619514 -0.694896
113.27734375 2.253553 1.558553 -0.695
114.046875 2.189336 1.46357 -0.725766
114.8125 2.105 1.445 -0.66
115.56640625 2.155385 1.404949 -0.750436
116.30078125 2.179151 1.342616 -0.836535
117.05859375 2.20086 1.442032 -0.758828
117.8125 2.227206 1.572206 -0.655
118.57421875 2.1100000000000003 1.425 -0.685
119.08984375 2.073348 -0.362231 -2.435579
119.42578125 2.474743 1.67 -0.804743
120.6015625 2.035489 1.296559 -0.73893
121.1640625 1.568879 0.194971 -1.373908
122.3515625 2.1984060000000003 1.477141 -0.721265
123.12890625 2.075248 1.388142 -0.687106
123.8515625 2.196757 1.441757 -0.755
124.66796875 2.1447469999999997 1.376107 -0.76864
125.45703125 2.171942 1.301942 -0.87
126.17578125 2.5843059999999998 1.774306 -0.81
126.9296875 2.220017 1.506759 -0.713258
127.68359375 2.1915329999999997 1.546633 -0.6449
128.375 2.322353 1.605 -0.717353
129.16796875 2.1102119999999998 1.491167 -0.619045
129.90234375 2.135862 1.422124 -0.713738
130.5390625 2.45502 1.689978 -0.765042
131.37890625 2.337439 1.707818 -0.629621
132.14453125 2.27099 1.634955 -0.636035
132.6640625 2.411524 1.759953 -0.651571
133.58984375 2.133106 1.504062 -0.629044
134.34765625 2.190657 1.465657 -0.725
134.890625 2.3577019999999997 1.708284 -0.649418
135.84375 2.303417 1.593608 -0.709809
136.58203125 2.204926 1.53502 -0.669906
137.12109375 2.444479 1.761803 -0.682676
138.04296875 2.0879630000000002 1.438534 -0.649429
139.34375 2.409178 1.638438 -0.77074
140.25390625 2.336533 1.598244 -0.738289
140.984375 2.180508 1.550801 -0.629707
141.7578125 2.172528 1.527528 -0.645
142.48046875 2.514974 1.849974 -0.665
143.1875 2.198947 1.493947 -0.705
143.91015625 2.433277 1.61377 -0.819507
144.6328125 2.281748 1.681786 -0.599962
145.3671875 2.63635 1.96886 -0.66749
146.109375 2.2272410000000002 1.579053 -0.648188
146.80859375 2.188466 1.553698 -0.634768
147.515625 2.11036 1.465111 -0.645249
148.2578125 2.642353 1.856283 -0.78607
149.00390625 2.299481 1.665727 -0.633754
149.703125 2.2082699999999997 1.538789 -0.669481
150.40625 2.144407 1.43498 -0.709427
151.1015625 2.247966 1.528983 -0.718983
151.8828125 2.050575 1.30768 -0.742895
152.63671875 2.091627 1.212446 -0.879181
153.3671875 2.203089 1.523089 -0.68
154.046875 2.244449 1.507104 -0.737345
154.87109375 2.134268 1.452828 -0.68144
155.63671875 2.081087 1.41615 -0.664937
156.37890625 2.1412690000000003 1.427472 -0.713797
157.0859375 2.363992 1.656101 -0.707891
157.8359375 1.823106 1.099805 -0.723301
158.57421875 1.6425269999999998 0.90342 -0.739107
159.32421875 1.612444 0.963202 -0.649242
160.01171875 2.0018000000000002 1.3418 -0.66
160.71484375 1.6800769999999998 1.212208 -0.467869
161.44921875 1.8307989999999998 1.346053 -0.484746
162.1875 1.7832750000000002 1.163594 -0.619681
162.890625 1.7390020000000002 1.069217 -0.669785
163.58984375 1.81929 1.309366 -0.509924
164.05859375 2.285849 1.689612 -0.596237
164.99609375 1.8807260000000001 1.21807 -0.662656
165.7265625 1.914154 1.217595 -0.696559
166.43359375 2.02147 1.216606 -0.804864
167.140625 2.0469720000000002 1.291406 -0.755566
167.87109375 1.9617660000000001 1.118794 -0.842972
168.625 1.889374 1.135 -0.754374
169.34765625 1.997558 1.222529 -0.775029
170.0546875 2.028349 1.208788 -0.819561
170.7734375 2.034326 1.305442 -0.728884
171.484375 1.815385 1.085385 -0.73
172.2109375 1.9377119999999999 1.19482 -0.742892
172.75 2.19116 1.385 -0.80616
173.53515625 2.07551 1.27557 -0.79994
174.30078125 1.943207 1.144086 -0.799121
174.9609375 1.785439 1.009727 -0.775712
175.8125 1.982783 1.168654 -0.814129
176.546875 2.095061 1.253069 -0.841992
177.26953125 2.1052150000000003 1.284925 -0.82029
178.03515625 2.000279 1.153612 -0.846667
178.78515625 1.846692 1.106692 -0.74
179.55859375 2.019466 1.224712 -0.794754
180.296875 2.079171 1.238693 -0.840478
181.015625 2.042282 1.298374 -0.743908
181.7578125 1.913562 1.189239 -0.724323
182.5078125 1.940247 1.236882 -0.703365
183.22265625 1.9885129999999998 1.273513 -0.715
183.92578125 2.074036 1.294131 -0.779905
184.65625 2.148884 1.399303 -0.749581
185.390625 2.012009 1.217214 -0.794795
186.00390625 2.006697 1.198223 -0.808474
186.7890625 1.9646050000000002 1.209605 -0.755
187.5546875 2.041571 1.296571 -0.745
189.06640625 2.053389 1.324577 -0.728812
189.8125 1.954338 1.200833 -0.753505
190.55078125 1.907302 1.012549 -0.894753
191.3046875 2.013115 0.973199 -1.039916
192.05078125 2.0448560000000002 1.019811 -1.025045
192.8046875 1.999226 1.084226 -0.915
193.546875 2.053833 1.088871 -0.964962
194.2890625 1.93888 1.0949 -0.84398
195.015625 1.9136 1.152231 -0.761369
195.77734375 1.999237 1.194237 -0.805
196.5234375 1.9988359999999998 1.29141 -0.707426
197.26171875 1.969578 1.294729 -0.674849
198.0078125 2.003225 1.263992 -0.739233
198.73046875 1.829698 1.174698 -0.655
199.484375 1.9350559999999999 1.266711 -0.668345
200.22265625 2.000705 1.276916 -0.723789
200.953125 1.9578579999999999 1.292609 -0.665249
201.671875 1.9891009999999998 1.284101 -0.705
202.4375 1.860428 1.171667 -0.688761
203.1875 1.8742699999999999 1.209593 -0.664677
203.92578125 1.953478 1.253824 -0.699654
204.65625 1.9697339999999999 1.2589 -0.710834
205.38671875 2.049181 1.304505 -0.744676
206.140625 2.03862 1.306484 -0.732136
206.89453125 1.8649360000000001 1.159936 -0.705
207.61328125 1.8110789999999999 1.10187 -0.709209
208.33203125 1.9333489999999998 1.183501 -0.749848
209.10546875 1.954497 1.169916 -0.784581
209.875 2.029687 1.245 -0.784687
210.61328125 2.022151 1.184287 -0.837864
211.34765625 1.90751 1.09751 -0.81
212.08984375 1.874345 1.077741 -0.796604
212.83203125 1.923008 1.155 -0.768008
213.5859375 1.978498 1.204658 -0.77384
214.328125 2.064041 1.253572 -0.810469
215.0546875 2.12887 1.264474 -0.864396
215.80078125 1.898581 1.118581 -0.78
216.56640625 1.89467 1.11967 -0.775
217.2890625 1.974807 1.114979 -0.859828
217.9921875 1.985632 1.120632 -0.865
218.71484375 2.028003 1.184993 -0.84301
219.4140625 1.943317 1.155537 -0.78778
220.140625 1.904836 1.101168 -0.803668
220.8671875 1.94733 1.154603 -0.792727
221.6015625 1.980132 1.142218 -0.837914
222.328125 1.732784 0.97 -0.762784
223.1015625 1.7326139999999999 0.958326 -0.774288
223.85546875 1.854339 1.06 -0.794339
224.58203125 1.695685 0.941204 -0.754481
225.32421875 1.640829 0.904548 -0.736281
225.9296875 1.612743 0.937743 -0.675
226.76953125 1.797726 1.13 -0.667726
227.58984375 1.8879100000000002 1.163723 -0.724187
228.33984375 1.89798 1.22798 -0.67
229.078125 1.875999 1.201085 -0.674914
229.84375 1.8067280000000001 1.204167 -0.602561
230.58203125 1.788491 1.193772 -0.594719
231.2890625 1.654978 1.029978 -0.625
231.9921875 1.639335 1.03355 -0.605785
232.7109375 1.789133 1.129245 -0.659888
233.42578125 1.808207 1.118207 -0.69
234.17578125 1.889361 1.161931 -0.72743
234.890625 1.937459 1.116908 -0.820551
235.6015625 2.092348 1.262348 -0.83
236.33984375 1.9874290000000001 1.224695 -0.762734
237.08203125 1.889516 1.124946 -0.76457
237.81640625 1.817237 1.045 -0.772237
238.52734375 1.7991949999999999 1.039664 -0.759531
239.26953125 2.15812 1.274962 -0.883158
240.01171875 1.949974 1.231536 -0.718438
240.78125 1.982174 1.242643 -0.739531
241.5078125 1.98177 1.1847 -0.79707
242.234375 1.8963899999999998 1.19755 -0.69884
242.98046875 1.873701 1.17 -0.703701
243.73046875 2.024771 1.209971 -0.8148
244.4609375 2.062266 1.295585 -0.766681
245.171875 2.139275 1.311143 -0.828132
245.90625 1.973067 1.19725 -0.775817
246.625 1.9680010000000001 1.19 -0.778001
247.3828125 1.974332 1.19 -0.784332
248.09375 1.9563069999999998 1.150289 -0.806018
248.8046875 2.156769 1.291859 -0.86491
249.5234375 1.8716110000000001 1.122195 -0.749416
250.28125 1.880844 1.137344 -0.7435
251.00390625 1.831232 1.104126 -0.727106
251.69921875 1.937309 1.13342 -0.803889
252.4140625 1.995206 1.244466 -0.75074
253.125 1.9575 1.225 -0.7325
253.875 1.905 1.215 -0.69
254.60546875 1.842306 1.094686 -0.74762
255.32421875 1.9703979999999999 1.192134 -0.778264
256.03515625 1.950749 1.175364 -0.775385
256.80078125 1.9744549999999998 1.189579 -0.784876
257.53515625 2.020115 1.228 -0.792115
258.234375 1.943197 1.125443 -0.817754
258.9765625 1.9892729999999998 1.126483 -0.86279
259.7109375 1.908033 1.128989 -0.779044
260.4609375 1.979666 1.149932 -0.829734
261.21484375 2.108059 1.230677 -0.877382
261.953125 2.080979 1.268013 -0.812966
262.671875 1.9658539999999998 1.149911 -0.815943
263.421875 1.875 1.15 -0.725
264.140625 1.944217 1.219217 -0.725
264.8515625 2.008266 1.218923 -0.789343
265.55859375 2.039208 1.343694 -0.695514
266.28515625 2.0348129999999998 1.260446 -0.774367
266.99609375 1.9389500000000002 1.244914 -0.694036
267.73046875 1.979559 1.174971 -0.804588
268.43359375 2.029138 1.279443 -0.749695
269.140625 2.104699 1.269842 -0.834857
269.86328125 2.03553 1.377409 -0.658121
270.59765625 1.949717 1.239717 -0.71
271.328125 1.967803 1.263908 -0.703895
272.0390625 1.98539 1.220556 -0.764834
272.7734375 2.057272 1.257739 -0.799533
273.50390625 2.053077 1.226046 -0.827031
274.25 2.118487 1.34 -0.778487
274.96484375 2.029808 1.320238 -0.70957
275.6796875 2.0199879999999997 1.240214 -0.779774
276.40234375 1.902749 1.232749 -0.67
277.15234375 1.9455939999999998 1.203614 -0.74198
277.8828125 1.9409539999999998 1.156146 -0.784808
278.59765625 2.038865 1.313865 -0.725
279.171875 2.082688 1.417836 -0.664852
280.00390625 1.9591370000000001 1.289137 -0.67
281.46875 1.9517570000000002 1.321757 -0.63
282.1875 2.067521 1.283036 -0.784485
282.890625 1.9902829999999998 1.310112 -0.680171
283.6328125 1.8450000000000002 1.235 -0.61
284.35546875 1.788175 1.159987 -0.628188
285.0703125 1.8179530000000002 1.183912 -0.634041
285.8046875 1.9328150000000002 1.232415 -0.7004
286.53125 1.991603 1.207087 -0.784516
287.26171875 2.1579740000000003 1.393224 -0.76475
288.00390625 1.9185400000000001 1.25854 -0.66
288.71484375 1.967098 1.262056 -0.705042
289.42578125 1.936434 1.207088 -0.729346
290.16015625 1.9145180000000002 1.213753 -0.700765
290.921875 2.059217 1.184272 -0.874945
291.6484375 2.062393 1.272393 -0.79
292.359375 2.034041 1.286016 -0.748025
293.09375 1.9373740000000002 1.224231 -0.713143
293.8046875 1.941816 1.251816 -0.69
294.546875 1.9632809999999998 1.184224 -0.779057
295.11328125 2.050864 1.286635 -0.764229
295.90234375 2.061918 1.238044 -0.823874
296.65234375 2.012547 1.262798 -0.749749
297.4375 1.986071 1.251402 -0.734669
298.19921875 1.9209990000000001 1.210765 -0.710234
298.91796875 2.0133140000000003 1.206107 -0.807207
299.64453125 2.069696 1.240683 -0.829013
300.37109375 2.103981 1.372131 -0.73185
301.09765625 2.073921 1.338921 -0.735
301.828125 1.9347309999999998 1.224816 -0.709915
302.53125 1.9798109999999998 1.290212 -0.689599
303.234375 1.9764149999999998 1.2829 -0.693515
303.9609375 2.074156 1.309718 -0.764438
304.703125 2.034266 1.379272 -0.654994
305.42578125 1.892595 1.263529 -0.629066
306.1328125 1.827973 1.178675 -0.649298
306.8515625 1.715681 1.151052 -0.564629
307.578125 1.84945 1.194499 -0.654951
308.30078125 2.0109019999999997 1.336458 -0.674444
309.0234375 2.04339 1.404371 -0.639019
309.51171875 2.306083 0.524286 -1.781797
310.48046875 1.8160340000000001 1.174933 -0.641101
311.26171875 1.928052 1.198144 -0.729908
312.00390625 1.990674 1.181065 -0.809609
312.71875 1.96644 1.254651 -0.711789
313.4453125 1.959969 1.278319 -0.68165
314.1640625 1.894671 1.219902 -0.674769
314.90234375 1.9015140000000001 1.183921 -0.717593
315.63671875 1.920032 1.130138 -0.789894
316.35546875 2.052743 1.249963 -0.80278
317.07421875 2.116873 1.395436 -0.721437
317.80859375 1.999952 1.314952 -0.685
318.53515625 1.8987720000000001 1.200509 -0.698263
319.25 2.016584 1.24 -0.776584
319.96484375 2.068969 1.159237 -0.909732
320.671875 2.0884270000000003 1.283427 -0.805
321.40625 1.9228740000000002 1.178482 -0.744392
322.16015625 1.889387 1.21 -0.679387
322.8828125 1.955376 1.241814 -0.713562
323.60546875 2.060456 1.234921 -0.825535
324.3515625 2.039291 1.275023 -0.764268
325.10546875 2.039098 1.31 -0.729098
325.83203125 1.9321989999999998 1.242476 -0.689723
326.5390625 1.949564 1.219614 -0.72995
327.26171875 1.9933550000000002 1.203486 -0.789869
327.96484375 2.010477 1.2364 -0.774077
328.70703125 2.046352 1.31945 -0.726902
329.421875 1.9570219999999998 1.279059 -0.677963
330.140625 2.005161 1.266406 -0.738755
330.8671875 1.962377 1.282377 -0.68
331.62109375 2.112383 1.316223 -0.79616
332.34765625 2.069091 1.344091 -0.725
333.0546875 1.93255 1.23755 -0.695
333.79296875 1.723424 1.058424 -0.665
334.52734375 1.470913 0.835 -0.635913
335.2734375 1.358133 0.695 -0.663133
336.03125 1.592897 0.882905 -0.709992
336.76171875 1.823451 1.158451 -0.665
337.48828125 1.7948330000000001 1.133312 -0.661521
338.265625 1.862551 1.191618 -0.670933
338.98828125 1.9690500000000002 1.28973 -0.67932
339.6953125 2.0902979999999998 1.25705 -0.833248
340.42578125 2.109558 1.250443 -0.859115
341.15234375 2.285484 1.328136 -0.957348
341.90234375 2.228136 1.548707 -0.679429
342.63671875 2.154725 1.53 -0.624725
343.359375 2.198083 1.485768 -0.712315
344.05859375 1.992804 1.382804 -0.61
344.796875 1.973205 1.354365 -0.61884
345.51953125 1.98364 1.37 -0.61364
346.22265625 2.139169 1.431366 -0.707803
346.92578125 2.11232 1.49232 -0.62
347.6484375 2.058604 1.395359 -0.663245
348.390625 2.067862 1.394343 -0.673519
349.12890625 2.0952260000000003 1.396206 -0.69902
349.8515625 2.136041 1.331041 -0.805
350.3828125 2.292053 1.543517 -0.748536
351.1953125 2.1066 1.398162 -0.708438
351.98046875 2.027977 1.309921 -0.718056
352.734375 2.054554 1.347643 -0.706911
353.48046875 2.073935 1.284338 -0.789597
354.234375 2.064563 1.349687 -0.714876
355.00390625 2.1263900000000002 1.392249 -0.734141
355.765625 2.083554 1.311218 -0.772336
356.5 1.9122659999999998 1.2 -0.712266
357.23046875 1.97977 1.279962 -0.699808
358.0 2.059531 1.335 -0.724531
358.73828125 2.008128 1.345 -0.663128
359.47265625 2.013732 1.343732 -0.67
360.20703125 1.9847299999999999 1.346292 -0.638438
360.93359375 1.93894 1.28906 -0.64988
361.66796875 2.072559 1.313033 -0.759526
362.41796875 1.955403 1.205403 -0.75
363.1171875 2.022567 1.302574 -0.719993
363.828125 1.999313 1.274364 -0.724949
364.5546875 1.9419840000000002 1.267065 -0.674919
365.3125 2.029243 1.3 -0.729243
366.0546875 2.027224 1.293158 -0.734066
366.76953125 2.115139 1.380784 -0.734355
367.51953125 2.10821 1.34494 -0.76327
368.23046875 2.0165740000000003 1.299233 -0.717341
368.96875 2.065522 1.349656 -0.715866
369.51171875 2.139388 1.439682 -0.699706
370.296875 2.066923 1.348938 -0.717985
371.140625 2.034484 1.369484 -0.665
371.93359375 2.003309 1.282051 -0.721258
372.6875 1.952 1.212 -0.74
373.41015625 1.973155 1.13253 -0.840625
374.10546875 2.040426 1.235566 -0.80486
374.88671875 2.051719 1.306795 -0.744924
375.64453125 2.0168410000000003 1.234976 -0.781865
376.375 1.938584 1.235 -0.703584
377.1171875 2.001521 1.211562 -0.789959
377.86328125 2.019383 1.18689 -0.832493
378.64453125 2.129472 1.394223 -0.735249
379.39453125 2.014277 1.299969 -0.714308
380.12109375 1.981411 1.245493 -0.735918
380.8828125 1.943645 1.263645 -0.68
381.64453125 1.954037 1.185259 -0.768778
382.4375 2.057606 1.2247 -0.832906
383.21484375 2.150378 1.364658 -0.78572
383.9765625 2.026398 1.238869 -0.787529
384.70703125 1.983464 1.206292 -0.777172
385.46484375 2.077124 1.158967 -0.918157
386.1875 2.078409 1.285625 -0.792784
386.89453125 2.083592 1.20982 -0.873772
387.60546875 1.928591 1.09487 -0.833721
388.3203125 1.975987 1.146132 -0.829855
389.0625 1.897549 1.152812 -0.744737
389.7890625 1.824788 1.089746 -0.735042
390.5 1.819936 1.19 -0.629936
391.19140625 1.867422 1.435 -0.432422
391.90234375 1.861964 1.477299 -0.384665
392.6328125 1.918376 1.463173 -0.455203
393.34375 1.7385579999999998 1.136664 -0.601894
394.04296875 1.8074590000000001 1.182806 -0.624653
394.75390625 1.8196979999999998 1.183107 -0.636591
395.4453125 1.7304309999999998 1.12407 -0.606361
396.16796875 1.837135 1.242135 -0.595
396.8671875 1.9741220000000002 1.429442 -0.54468
397.56640625 1.844293 1.354648 -0.489645
398.25390625 1.8921359999999998 1.3331 -0.559036
398.97265625 1.903289 1.323289 -0.58
399.671875 1.973207 1.329149 -0.644058
400.37109375 1.835908 1.16562 -0.670288
401.05859375 1.80312 1.027929 -0.775191
401.75390625 1.972427 1.134302 -0.838125
402.45703125 1.971114 1.08818 -0.882934
403.1640625 1.986688 1.243021 -0.743667
403.859375 1.6729 0.8779 -0.795
404.54296875 1.654485 0.777158 -0.877327
405.24609375 1.60031 0.775719 -0.824591
405.98828125 1.6445889999999999 0.739355 -0.905234
406.69140625 1.749803 0.879803 -0.87
407.39453125 1.848252 0.964982 -0.88327
408.09375 1.788997 0.960896 -0.828101
408.79296875 1.797636 0.92311 -0.874526
409.49609375 1.841453 1.040535 -0.800918
410.21875 1.92753 1.146664 -0.780866
410.88671875 1.923255 1.11835 -0.804905
411.5625 1.7715619999999999 1.022308 -0.749254
412.26953125 1.869542 1.164542 -0.705
412.99609375 2.008858 1.304122 -0.704736
413.69921875 2.038626 1.403102 -0.635524
414.38671875 1.867804 1.247382 -0.620422
415.0859375 1.8582 1.204841 -0.653359
415.78515625 1.7860170000000002 1.235 -0.551017
416.49609375 1.897176 1.326591 -0.570585
417.2265625 1.974927 1.409348 -0.565579
417.92578125 1.821917 1.301062 -0.520855
418.6171875 1.7783030000000002 1.303303 -0.475
419.3515625 1.778719 1.423719 -0.355
420.0703125 1.8482830000000001 1.918508 0.070225
420.78515625 1.85598 1.688116 -0.167864
421.46875 1.832189 1.323871 -0.508318
422.1875 1.836818 1.111818 -0.725
422.88671875 1.817421 1.017421 -0.8
423.59375 1.7769819999999998 0.842946 -0.934036
424.28515625 1.683894 0.710476 -0.973418
424.97265625 1.92783 1.073794 -0.854036
425.67578125 1.8123170000000002 0.959122 -0.853195
426.41796875 1.759689 0.475859 -1.28383
427.1328125 2.1157440000000003 0.656174 -1.45957
427.8203125 1.799144 0.18826 -1.610884
428.5234375 1.664015 -0.080438 -1.744453
429.9609375 1.55278 0.519774 -1.033006
430.6796875 1.369543 0.765273 -0.60427
431.33203125 1.395995 0.781065 -0.61493
432.08203125 1.344206 0.754206 -0.59
432.80859375 1.2753809999999999 0.72483 -0.550551
433.5078125 1.411575 0.901575 -0.51
434.21875 1.423875 1.064079 -0.359796
434.890625 1.41367 1.10867 -0.305
435.5859375 1.597832 1.404826 -0.193006
436.2734375 1.635713 1.462847 -0.172866
436.94140625 1.3629229999999999 1.159614 -0.203309
437.65234375 1.282013 0.612584 -0.669429
438.328125 1.304505 0.532853 -0.771652
439.015625 1.217925 0.387925 -0.83
439.74609375 1.218717 0.275241 -0.943476
440.4375 1.366298 0.543542 -0.822756
441.125 1.414847 0.475 -0.939847
441.80859375 1.36507 0.449574 -0.915496
442.5 1.316528 0.27 -1.046528
443.1953125 1.6329950000000002 0.629992 -1.003003
443.90625 1.330133 0.665719 -0.664414
444.578125 1.3178809999999999 0.645 -0.672881
445.23828125 1.353641 0.601916 -0.751725
445.953125 1.36486 0.719915 -0.644945
446.6640625 1.3686090000000002 0.629955 -0.738654
447.359375 1.560502 0.77767 -0.782832
448.02734375 1.5952229999999998 0.671449 -0.923774
448.71875 1.434645 0.164645 -1.27
449.38671875 1.260022 0.001503 -1.258519
450.0859375 1.394769 0.299849 -1.09492
450.78125 1.320562 0.451591 -0.868971
451.46484375 1.19748 0.299364 -0.898116
452.125 1.225706 0.44 -0.785706
452.66796875 1.282776 0.678487 -0.604289
453.4921875 1.229069 0.524337 -0.704732
454.1875 1.156581 0.292634 -0.863947
454.7890625 1.197032 0.151267 -1.045765
455.55859375 1.1606779999999999 0.225701 -0.934977
456.23828125 1.123845 0.383188 -0.740657
456.9296875 1.188755 0.653755 -0.535
457.609375 1.3553410000000001 1.088262 -0.267079
458.2890625 1.276499 1.054713 -0.221786
458.953125 1.179972 0.945 -0.234972
459.64453125 1.233494 0.974975 -0.258519
460.3125 1.251844 0.767045 -0.484799
460.98828125 1.305734 0.572997 -0.732737
461.65234375 1.39471 0.588945 -0.805765
462.33984375 1.291643 0.432209 -0.859434
463.01171875 1.17354 0.35854 -0.815
463.7109375 1.204422 0.399502 -0.80492
464.26171875 1.102733 0.373379 -0.729354
465.06640625 1.196277 0.354265 -0.842012
465.7421875 0.91046 0.043088 -0.867372
466.46484375 1.140019 0.181328 -0.958691
467.1484375 1.173241 0.303983 -0.869258
467.82421875 1.2925179999999998 0.468472 -0.824046
468.48828125 1.176032 0.333254 -0.842778
469.0703125 1.054131 0.264683 -0.789448
469.84375 1.158317 0.31413 -0.844187
470.53125 1.213741 0.598869 -0.614872
471.078125 1.2 0.565 -0.635
471.859375 1.2277049999999998 0.506567 -0.721138
472.54296875 1.20586 0.598887 -0.606973
473.25390625 1.245834 0.714169 -0.531665
473.91796875 1.227957 0.43834 -0.789617
474.59765625 1.257563 0.497563 -0.76
475.26953125 1.314858 0.369952 -0.944906
475.8671875 1.247986 0.177986 -1.07
476.609375 1.333894 0.280809 -1.053085
477.31640625 1.230609 0.094948 -1.135661
477.9921875 1.206565 0.051565 -1.155
478.66796875 1.2583689999999998 0.128469 -1.1299
479.3046875 1.214562 0.175441 -1.039121
480.05078125 1.271544 0.36732 -0.904224
480.76171875 1.399905 0.660573 -0.739332
481.44921875 1.367201 0.603356 -0.763845
482.140625 1.2714500000000002 0.54651 -0.72494
482.83203125 1.2774990000000002 0.517511 -0.759988
483.5078125 1.15604 0.54897 -0.60707
484.20703125 1.1784590000000001 0.633511 -0.544948
484.89453125 1.234934 0.684934 -0.55
485.48828125 1.12638 0.47703 -0.64935
486.14453125 1.169559 0.525 -0.644559
486.9375 1.152189 0.440547 -0.711642
487.640625 1.135051 0.380111 -0.75494
488.3203125 1.2475070000000001 0.396999 -0.850508
488.9921875 1.310136 0.406862 -0.903274
489.70703125 1.249965 0.31 -0.939965
490.39453125 1.237947 0.349914 -0.888033
491.09765625 1.249649 0.329649 -0.92
491.79296875 1.3134649999999999 0.347608 -0.965857
492.46875 1.301601 0.357656 -0.943945
493.16015625 1.251678 0.306861 -0.944817
493.8671875 1.2645270000000002 0.414594 -0.849933
494.5546875 1.235819 0.357152 -0.878667
495.23046875 1.3181640000000001 0.489972 -0.828192
495.90625 1.307896 0.473115 -0.834781
496.60546875 1.246544 0.375 -0.871544
497.2890625 1.175637 0.324979 -0.850658
497.9921875 1.25653 0.396562 -0.859968
498.69140625 1.282002 0.484648 -0.797354
499.38671875 1.20045 0.395349 -0.805101
500.08203125 1.2135 0.378519 -0.834981
500.81640625 1.212977 0.372316 -0.840661
501.51171875 1.208087 0.343411 -0.864676
502.19140625 1.107888 0.244638 -0.86325
502.8984375 1.19336 0.312195 -0.881165
503.6015625 1.198355 0.273355 -0.925
504.3203125 1.206622 0.422452 -0.78417
505.0546875 1.184107 0.324638 -0.859469
505.76171875 1.198973 0.349447 -0.849526
506.4609375 1.204744 0.314744 -0.89
507.18359375 1.280508 0.519466 -0.761042
507.90625 1.20558 0.416923 -0.788657
508.62109375 1.149927 0.38 -0.769927
509.30078125 1.1740680000000001 0.330001 -0.844067
509.99609375 1.249093 0.484093 -0.765
510.6875 1.282204 0.46225 -0.819954
511.39453125 1.149981 0.379981 -0.77
512.09375 1.220016 0.427121 -0.792895
512.69921875 1.165521 0.326748 -0.838773
513.37890625 1.2532860000000001 0.53898 -0.714306
514.2109375 1.185229 0.27481 -0.910419
514.9375 1.18314 0.288187 -0.894953
515.64453125 1.21176 0.295281 -0.916479
516.34765625 1.3489019999999998 0.520739 -0.828163
517.046875 1.224534 0.454798 -0.769736
517.765625 1.2639529999999999 0.564209 -0.699744
518.4765625 1.325246 0.660903 -0.664343
519.15234375 1.329594 0.677253 -0.652341
519.8359375 1.3111920000000001 0.614778 -0.696414
520.53515625 1.269883 0.61 -0.659883
521.25 1.315197 0.56 -0.755197
521.9453125 1.342159 0.614299 -0.72786
522.62109375 1.2431619999999999 0.508162 -0.735
523.3125 1.271777 0.517014 -0.754763
523.9921875 1.239763 0.474377 -0.765386
524.703125 1.303957 0.627912 -0.676045
525.41015625 1.330006 0.595059 -0.734947
526.09765625 1.300561 0.496535 -0.804026
526.76953125 1.316913 0.505 -0.811913
527.48828125 1.318164 0.454719 -0.863445
528.1875 1.304524 0.504524 -0.8
528.87109375 1.3336869999999998 0.569175 -0.764512
529.5625 1.2928760000000001 0.459375 -0.833501
530.1171875 1.2549869999999999 0.432426 -0.822561
530.82421875 1.292758 0.450711 -0.842047
531.609375 1.256032 0.354441 -0.901591
532.3203125 1.321014 0.531014 -0.79
533.01171875 1.280897 0.451536 -0.829361
533.6875 1.2485460000000002 0.438824 -0.809722
534.421875 1.291973 0.49 -0.801973
535.11328125 1.239136 0.441333 -0.797803
535.7890625 1.3475609999999998 0.571054 -0.776507
536.48046875 1.2362440000000001 0.449643 -0.786601
537.1875 1.234674 0.41 -0.824674
537.90234375 1.2405460000000001 0.464862 -0.775684
538.6171875 1.2594310000000002 0.529479 -0.729952
539.32421875 1.2697660000000002 0.600913 -0.668853
539.9921875 1.148634 0.480796 -0.667838
540.703125 1.170428 0.494237 -0.676191
541.4140625 1.126273 0.34964 -0.776633
542.09765625 1.094894 0.384374 -0.71052
542.76171875 1.180252 0.399129 -0.781123
543.42578125 1.147963 0.155 -0.992963
544.0859375 1.175597 0.184848 -0.990749
544.640625 1.1121 0.207386 -0.904714
545.44921875 1.2618719999999999 0.402768 -0.859104
546.1328125 1.206138 0.479068 -0.72707
546.77734375 1.1200620000000001 0.468552 -0.65151
547.51171875 1.141587 0.3869 -0.754687
548.1953125 1.090675 0.466011 -0.624664
548.88671875 1.118968 0.429714 -0.689254
549.5625 1.082354 0.263437 -0.818917
550.25 1.0875 0.315 -0.7725
550.921875 1.1544400000000001 0.259899 -0.894541
551.61328125 1.119942 0.422104 -0.697838
552.28515625 1.14971 0.48471 -0.665
552.9609375 1.240444 0.454676 -0.785768
553.6171875 1.18653 0.471562 -0.714968
554.30859375 0.990766 0.239848 -0.750918
555.0 1.04 0.295 -0.745
555.671875 1.040317 0.289519 -0.750798
556.33984375 1.122784 0.373597 -0.749187
556.94921875 1.026894 0.296165 -0.730729
557.69921875 1.2277559999999998 0.444511 -0.783245
558.4140625 1.279804 0.454978 -0.824826
559.09765625 1.2233049999999999 0.379212 -0.844093
559.78515625 1.236411 0.356603 -0.879808
560.46875 1.199577 0.327126 -0.872451
561.18359375 1.144974 0.335 -0.809974
561.8671875 1.123154 0.293811 -0.829343
562.54296875 1.143218 0.333324 -0.809894
563.22265625 1.049701 0.284701 -0.765
563.73828125 1.7962040000000001 -0.451503 -2.247707
564.58203125 1.107378 0.287378 -0.82
565.27734375 0.972181 0.274692 -0.697489
565.9609375 1.058043 0.219795 -0.838248
566.625 1.14 0.17 -0.97
567.28125 1.044594 0.389594 -0.655
567.984375 1.021467 0.365 -0.656467
568.65234375 1.059237 0.224237 -0.835
569.234375 1.045399 0.140443 -0.904956
569.953125 1.039707 0.324707 -0.715
570.64453125 1.087473 0.209971 -0.877502
571.265625 1.146626 0.127891 -1.018735
571.98046875 1.1563759999999998 0.344986 -0.81139
572.65625 1.120323 0.365878 -0.754445
573.328125 1.144027 0.404244 -0.739783
573.9140625 1.099803 0.534803 -0.565
574.65625 1.115186 0.66 -0.455186
575.34375 1.164439 0.4321 -0.732339
575.98046875 1.55159 1.08 -0.47159
576.62890625 0.976422 0.436422 -0.54
577.19140625 1.6699510000000002 1.079951 -0.59
577.8125 1.100222 0.419286 -0.680936
578.4765625 1.8306149999999999 1.261375 -0.56924
578.96875 1.127602 -0.060406 -1.188008
579.72265625 1.8929550000000002 1.344518 -0.548437
580.19140625 1.349943 0.029949 -1.319994
580.92578125 1.821289 1.197285 -0.624004
581.43359375 1.1346969999999998 -0.170303 -1.305
582.18359375 1.9837250000000002 1.329606 -0.654119
582.671875 1.3971310000000001 -0.162869 -1.56
583.37109375 1.885719 1.100719 -0.785
583.85546875 1.169978 -0.385016 -1.554994
584.53515625 1.771421 1.03514 -0.736281
585.03125 1.4805490000000001 -0.132464 -1.613013
585.7421875 1.93811 1.317986 -0.620124
586.23046875 1.298107 -0.175038 -1.473145
586.8984375 1.731861 1.066248 -0.665613
587.3671875 1.274699 -0.165217 -1.439916
588.07421875 1.8264999999999998 1.220616 -0.605884
588.57421875 1.233977 -0.085812 -1.319789
589.25 1.6659639999999998 1.15 -0.515964
589.7421875 1.2331320000000001 -0.060428 -1.29356
590.37890625 1.843398 1.261117 -0.582281
590.83984375 1.336923 -0.002449 -1.339372
591.48046875 1.707328 1.044647 -0.662681
591.96875 1.107649 -0.285359 -1.393008
592.62890625 1.686065 0.986065 -0.7
593.11328125 1.301014 -0.141501 -1.442515
593.734375 1.875366 1.175436 -0.69993
594.21484375 1.350478 -0.14747 -1.497948
594.84375 1.784036 1.0 -0.784036
595.34375 1.130149 -0.335769 -1.465918
595.9609375 1.776554 0.989785 -0.786769
596.45703125 1.315414 -0.254586 -1.57
597.0546875 1.893278 1.061888 -0.83139
597.5234375 1.295265 -0.316708 -1.611973
598.1015625 1.801436 0.785696 -1.01574
598.578125 1.177982 -0.485112 -1.663094
599.19921875 1.876317 0.976317 -0.9
599.69140625 1.263175 -0.310128 -1.573303
600.3203125 1.8728879999999999 1.017931 -0.854957
600.80078125 1.101934 -0.437892 -1.539826
601.37109375 1.774335 0.913089 -0.861246
601.87109375 1.1464219999999998 -0.358578 -1.505
602.51953125 1.789892 1.034912 -0.75498
602.98828125 1.153542 -0.370314 -1.523856
603.55859375 1.594157 0.654476 -0.939681
604.0390625 1.00299 -0.509229 -1.512219
604.6484375 1.6810999999999998 0.8411 -0.84
605.1171875 1.05384 -0.32116 -1.375
605.73046875 1.862606 1.169994 -0.692612
606.23828125 1.111685 -0.390977 -1.502662
606.80859375 1.8543560000000001 0.969356 -0.885
607.296875 1.144231 -0.420101 -1.564332
607.91015625 1.755357 0.815357 -0.94
608.38671875 1.198177 -0.491771 -1.689948
609.05859375 1.879883 0.839883 -1.04
609.53515625 1.180845 -0.607523 -1.788368
610.14453125 1.91465 0.845984 -1.068666
610.62109375 1.0624989999999999 -0.672303 -1.734802
611.20703125 1.892674 0.58 -1.312674
611.69921875 1.04719 -0.925477 -1.972667
612.32421875 1.8248920000000002 0.620254 -1.204638
612.8125 1.061944 -0.663056 -1.725
613.421875 1.76821 0.851076 -0.917134
613.9140625 1.138293 -0.285336 -1.423629
614.44921875 1.956769 1.231737 -0.725032
614.9296875 1.145749 -0.505584 -1.651333
615.63671875 2.060035 0.925299 -1.134736
616.24609375 1.340131 -0.554869 -1.895
616.71875 1.918372 0.958019 -0.960353
617.20703125 1.3695680000000001 -0.265432 -1.635
617.77734375 1.964582 1.159068 -0.805514
618.265625 1.4055369999999998 -0.156794 -1.562331
618.89453125 1.938203 1.204902 -0.733301
619.37890625 1.300946 -0.12263 -1.423576
619.9921875 1.9548 1.2098 -0.745
620.4609375 1.320997 -0.255026 -1.576023
621.07421875 1.932573 1.168939 -0.763634
621.55859375 1.4551509999999999 -0.183521 -1.638672
622.18359375 1.9949459999999999 1.169946 -0.825
622.6640625 1.5550480000000002 -0.484463 -2.039511
623.296875 2.074118 0.952853 -1.121265
623.75390625 1.4036489999999997 -0.600604 -2.004253
624.3515625 1.867604 0.864062 -1.003542
624.84765625 1.303862 -0.538745 -1.842607
625.49609375 1.854876 0.925 -0.929876
625.97265625 1.3537730000000001 -0.496227 -1.85
626.6640625 1.879127 1.164859 -0.714268
627.28515625 1.236832 -0.328168 -1.565
627.76953125 1.7894489999999998 1.024449 -0.765
628.24609375 1.2399999999999998 -0.39 -1.63
628.90625 1.898015 1.168973 -0.729042
629.40234375 1.407967 0.109809 -1.298158
630.08203125 1.954397 1.365022 -0.589375
630.546875 1.209034 -0.295966 -1.505
631.19140625 1.904855 1.070839 -0.834016
631.66015625 1.330046 -0.527485 -1.857531
632.76171875 1.359617 -0.330333 -1.68995
633.59765625 0.936698 0.126255 -0.810443
634.13671875 0.890189 0.176679 -0.71351
634.72265625 0.982859 0.168473 -0.814386
635.5625 1.123789 -0.856176 -1.979965
636.3046875 1.136904 0.177415 -0.959489
636.92578125 0.7335649999999999 -0.206018 -0.939583
637.65234375 0.8868860000000001 0.183641 -0.703245
638.3671875 1.633761 0.994611 -0.63915
639.0390625 1.595818 1.339801 -0.256017
639.7265625 1.535281 1.254348 -0.280933
640.3828125 1.604479 1.163103 -0.441376
641.0390625 1.533322 1.003666 -0.529656
641.6875 1.664312 1.105 -0.559312
642.38671875 1.808861 1.499762 -0.309099
643.03125 1.882957 1.638033 -0.244924
643.66796875 2.039686 1.689686 -0.35
644.3046875 1.8462669999999999 1.564703 -0.281564
644.98828125 2.252116 0.612116 -1.64
645.64453125 2.0900030000000003 2.39055 0.300547
646.3203125 2.0297560000000003 2.087737 0.057981
646.9765625 2.170395 2.227558 0.057163
647.63671875 2.3846309999999997 1.258265 -1.126366
648.29296875 2.220709 1.081365 -1.139344
648.9609375 2.288813 0.854579 -1.434234
649.640625 1.7310489999999998 0.490913 -1.240136
650.30078125 2.466665 0.830286 -1.636379
650.9453125 2.525891 1.054853 -1.471038
651.6015625 2.5367249999999997 1.231725 -1.305
652.25390625 2.415355 1.433223 -0.982132
652.94140625 2.338312 1.659886 -0.678426
653.6171875 2.379199 1.726274 -0.652925
654.29296875 2.360765 1.665929 -0.694836
654.94921875 2.323745 1.697356 -0.626389
655.640625 2.44245 1.6875 -0.75495
656.32421875 2.465274 1.677476 -0.787798
657.00390625 2.434933 1.653119 -0.781814
657.671875 2.44806 1.51972 -0.92834
658.34765625 2.417262 1.552262 -0.865
659.0390625 2.414395 1.434906 -0.979489
659.72265625 2.448845 1.343845 -1.105
660.40625 2.467071 1.387857 -1.079214
661.10546875 2.5500030000000002 1.399839 -1.150164
661.78515625 2.442863 1.398207 -1.044656
662.51171875 2.354943 1.395 -0.959943
663.203125 2.462773 1.469535 -0.993238
663.88671875 2.439758 1.43 -1.009758
664.578125 2.28658 1.229939 -1.056641
665.2734375 2.138288 1.214583 -0.923705
665.97265625 2.180351 1.455351 -0.725
666.546875 1.635393 0.874059 -0.761334
667.34765625 2.431817 1.543331 -0.888486
668.04296875 2.365732 1.256166 -1.109566
668.73046875 2.41873 1.194864 -1.223866
669.4609375 2.363326 1.674674 -0.688652
670.15625 2.329141 1.335 -0.994141
670.84765625 2.3234779999999997 1.18591 -1.137568
671.53515625 2.396966 1.267806 -1.12916
672.21875 2.421922 1.527841 -0.894081
672.9140625 2.484446 1.489246 -0.9952
673.60546875 2.347728 1.353893 -0.993835
674.28515625 2.345265 1.505265 -0.84
674.94921875 2.40775 1.674574 -0.733176
675.62109375 2.3726279999999997 1.358179 -1.014449
676.33203125 2.373425 1.073826 -1.299599
677.01953125 2.486465 1.079808 -1.406657
677.703125 2.486829 1.22284 -1.263989
678.390625 2.4732339999999997 1.255741 -1.217493
679.078125 2.451562 1.169517 -1.282045
679.7734375 2.441019 1.304391 -1.136628
680.48828125 2.506874 1.525 -0.981874
681.16796875 2.56864 0.62 -1.94864
681.84375 2.457795 0.564297 -1.893498
682.5390625 2.6347490000000002 1.379908 -1.254841
683.25390625 2.442284 2.229748 -0.212536
683.93359375 2.472647 1.78876 -0.683887
684.5859375 2.4731319999999997 1.594809 -0.878323
685.26953125 2.497603 1.729864 -0.767739
685.94921875 2.635951 1.843209 -0.792742
686.62890625 2.590271 1.763166 -0.827105
687.3046875 2.4394270000000002 1.683303 -0.756124
687.96875 2.559331 1.78503 -0.774301
688.625 2.5807889999999998 1.9 -0.680789
689.2890625 2.522448 1.87164 -0.650808
689.984375 2.454968 1.748477 -0.706491
690.6484375 2.498294 1.777455 -0.720839
691.3125 2.516802 1.812381 -0.704421
691.9765625 2.5243659999999997 1.847643 -0.676723
692.65625 2.529553 1.670279 -0.859274
693.3359375 2.41864 1.629193 -0.789447
694.0234375 2.479649 1.720693 -0.758956
694.7109375 2.501079 1.769353 -0.731726
695.39453125 2.538618 1.729885 -0.808733
696.078125 2.500876 1.54666 -0.954216
696.78125 2.5473160000000004 1.572739 -0.974577
697.47265625 2.4956050000000003 1.600605 -0.895
698.14453125 2.532828 1.61978 -0.913048
698.8046875 2.3612960000000003 1.495 -0.866296
699.48828125 2.405042 1.3421 -1.062942
700.17578125 2.47917 1.401564 -1.077606
700.8671875 2.584308 1.62665 -0.957658
701.34375 2.481981 1.462679 -1.019302
701.859375 2.449109 1.340996 -1.108113
702.65625 2.470389 1.437126 -1.033263
703.4453125 2.454778 1.525732 -0.929046
704.15234375 2.462608 1.516175 -0.946433
704.84765625 2.4167940000000003 1.40358 -1.013214
705.52734375 2.4087940000000003 1.35701 -1.051784
706.234375 2.467362 1.593217 -0.874145
706.91796875 2.497769 1.748258 -0.749511
707.6171875 2.467118 1.722151 -0.744967
708.28515625 2.451227 1.614863 -0.836364
708.95703125 2.512201 1.687225 -0.824976
709.6484375 2.449799 1.763356 -0.686443
710.35546875 2.56539 1.799811 -0.765579
711.0390625 2.496218 1.834173 -0.662045
711.71484375 2.31579 1.774384 -0.541406
712.3984375 2.410005 1.775719 -0.634286
713.078125 2.414917 1.654917 -0.76
713.78515625 2.579338 1.643782 -0.935556
714.5 2.601483 1.6 -1.001483
715.17578125 2.487809 1.499587 -0.988222
715.84375 2.489764 1.534987 -0.954777
716.55078125 2.523894 1.69986 -0.824034
717.265625 2.642993 2.013142 -0.629851
717.94921875 2.5441770000000004 1.869652 -0.674525
718.640625 2.590591 1.765639 -0.824952
719.33203125 2.529235 1.654331 -0.874904
720.0078125 2.469613 1.63981 -0.829803
720.70703125 2.651587 1.68182 -0.969767
721.390625 2.549652 1.479801 -1.069851
722.06640625 2.445996 1.407425 -1.038571
722.71875 2.561732 1.56274 -0.998992
723.40625 2.52225 1.687885 -0.834365
724.1015625 2.513528 1.628528 -0.885
724.765625 2.483363 1.45348 -1.029883
725.41796875 2.517637 1.536321 -0.981316
726.10546875 2.564816 1.744816 -0.82
726.78125 2.703262 1.886094 -0.817168
727.48046875 2.590857 1.680857 -0.91
728.01171875 2.4533899999999997 1.498397 -0.954993
728.765625 2.5006180000000002 1.685039 -0.815579
729.24609375 1.812154 0.476696 -1.335458
729.98828125 1.734222 0.149397 -1.584825
730.9140625 2.5488980000000003 1.624543 -0.924355
731.5859375 2.4816030000000002 1.669515 -0.812088
732.26171875 2.555937 1.702909 -0.853028
732.7734375 3.362367 2.257881 -1.104486
733.64453125 2.544794 1.699797 -0.844997
734.140625 1.3181289999999999 0.385703 -0.932426
735.01171875 2.5179329999999998 1.998244 -0.519689
735.48046875 1.74988 0.829918 -0.919962
736.375 2.546301 1.905 -0.641301
736.86328125 1.288181 0.228181 -1.06
737.734375 2.342955 1.457955 -0.885
738.20703125 1.745663 0.256899 -1.488764
739.046875 2.429766 1.412228 -1.017538
739.52734375 1.459254 0.099518 -1.359736
740.375 2.5037320000000003 1.5 -1.003732
740.86328125 1.7679010000000002 0.288563 -1.479338
741.58203125 2.495424 1.595771 -0.899653
742.07421875 1.474885 0.149034 -1.325851
743.05078125 2.427199 1.544081 -0.883118
743.53125 1.579689 0.265536 -1.314153
744.44140625 2.403597 1.646691 -0.756906
744.921875 1.417967 0.268607 -1.14936
745.765625 2.326573 1.496667 -0.829906
746.2578125 1.613027 0.291604 -1.321423
747.1171875 2.525773 1.630244 -0.895529
747.6015625 1.517809 0.238945 -1.278864
748.20703125 2.3013589999999997 1.321359 -0.98
748.6640625 2.361283 1.419868 -0.941415
749.50390625 2.40485 1.595229 -0.809621
750.0 1.714339 0.335 -1.379339
751.03515625 2.447613 1.493207 -0.954406
751.5 1.438707 0.15 -1.288707
752.40234375 2.310544 1.426197 -0.884347
752.8828125 1.706796 0.054789 -1.652007
753.77734375 2.454367 1.619156 -0.835211
754.2578125 1.523041 0.292799 -1.230242
755.125 2.506665 1.725 -0.781665
755.625 1.704974 0.41 -1.294974
756.4609375 2.563027 1.77 -0.793027
756.96484375 1.64629 0.382792 -1.263498
757.81640625 2.133414 1.2646 -0.868814
758.484375 2.259079 1.258451 -1.000628
759.140625 2.2796760000000003 1.29 -0.989676
759.81640625 2.294736 1.314195 -0.980541
760.4609375 2.3046189999999998 1.419619 -0.885
761.1328125 2.461805 1.508591 -0.953214
761.796875 2.390865 1.41225 -0.978615
762.4453125 2.215381 1.38 -0.835381
763.08203125 2.3731340000000003 1.993238 -0.379896
763.7578125 2.416875 2.141875 -0.275
764.421875 2.463458 1.828306 -0.635152
765.08984375 2.391213 1.513022 -0.878191
765.7109375 2.325151 1.419732 -0.905419
766.38671875 2.3732990000000003 1.443564 -0.929735
767.05859375 2.458475 1.518475 -0.94
767.72265625 2.456243 1.501243 -0.955
768.40625 2.509056 1.483962 -1.025094
769.0703125 2.429297 1.413036 -1.016261
769.72265625 2.417977 1.422023 -0.995954
770.3828125 2.393671 1.489106 -0.904565
771.08203125 2.456941 1.552027 -0.904914
771.75 2.4957890000000003 1.48 -1.015789
772.37890625 2.453055 1.610664 -0.842391
773.03125 2.468647 1.658033 -0.810614
773.70703125 2.515694 1.615774 -0.89992
774.390625 2.498068 1.393441 -1.104627
775.0625 2.243655 1.299375 -0.94428
775.72265625 2.238149 1.343149 -0.895
776.37890625 2.399408 1.399408 -1.0
777.05859375 2.419426 1.369796 -1.04963
777.75 2.469692 1.45 -1.019692
778.43359375 2.47784 1.46784 -1.01
779.08984375 2.437397 1.48924 -0.948157
779.7421875 2.41949 1.469816 -0.949674
780.43359375 2.476568 1.478851 -0.997717
781.1171875 2.456854 1.478818 -0.978036
781.81640625 2.490938 1.603926 -0.887012
782.5 2.532799 1.635 -0.897799
783.16796875 2.489543 1.602623 -0.88692
783.86328125 2.3137119999999998 1.464254 -0.849458
784.578125 2.511832 1.611167 -0.900665
785.265625 2.521935 1.657055 -0.86488
785.9375 2.595533 1.725976 -0.869557
786.625 2.487655 1.625 -0.862655
787.30859375 2.516897 1.628539 -0.888358
788.00390625 2.607743 1.717004 -0.890739
788.72265625 2.6150510000000002 1.84322 -0.771831
789.41796875 2.581223 1.806852 -0.774371
790.10546875 2.547193 1.669918 -0.877275
790.671875 2.547909 1.627917 -0.919992
791.51171875 2.7447 1.898591 -0.846109
792.0 1.6367369999999999 0.44 -1.196737
792.6484375 1.545137 -0.074304 -1.619441
793.5625 2.574555 1.576795 -0.99776
794.24609375 2.620791 1.654354 -0.966437
794.93359375 2.663378 1.623348 -1.04003
795.63671875 2.610475 1.558298 -1.052177
796.30859375 2.527154 1.457379 -1.069775
796.96484375 2.621633 1.503033 -1.1186
797.6640625 2.639793 1.684793 -0.955
798.375 2.681623 1.65 -1.031623
799.0546875 2.536098 1.532283 -1.003815
799.71875 2.478628 1.60384 -0.874788
800.40234375 2.592142 1.669868 -0.922274
801.078125 2.6250549999999997 1.807251 -0.817804
801.76953125 2.435114 1.606387 -0.828727
802.46484375 2.500136 1.6086 -0.891536
803.15625 2.576895 1.671875 -0.90502
803.83984375 2.583307 1.773561 -0.809746
804.546875 2.560712 1.817631 -0.743081
805.06640625 2.44903 1.71903 -0.73
805.58203125 2.4388 1.695679 -0.743121
806.3671875 2.55449 1.834567 -0.719923
807.171875 2.588343 1.928343 -0.66
807.89453125 2.5531889999999997 1.845 -0.708189
808.60546875 2.447213 1.7399 -0.707313
809.30078125 2.439597 1.767466 -0.672131
809.99609375 2.553217 1.786312 -0.766905
810.68359375 2.531947 1.892433 -0.639514
811.41015625 2.504803 1.715538 -0.789265
812.10546875 2.432882 1.704896 -0.727986
812.77734375 2.492267 1.693326 -0.798941
813.45703125 2.521411 1.776873 -0.744538
814.1484375 2.505789 1.744059 -0.76173
814.84765625 2.546016 1.682036 -0.86398
815.54296875 2.5176920000000003 1.656066 -0.861626
816.19921875 2.526361 1.706361 -0.82
816.87890625 2.600406 1.692822 -0.907584
817.5625 2.52016 1.655345 -0.864815
818.2734375 2.445701 1.532852 -0.912849
818.96875 2.394464 1.524664 -0.8698
819.63671875 2.363165 1.553564 -0.809601
820.3203125 2.40411 1.542399 -0.861711
821.0 2.4637890000000002 1.595 -0.868789
821.70703125 2.431405 1.491567 -0.939838
822.3359375 2.829577 0.294577 -2.535
823.0859375 2.4480329999999997 1.478292 -0.969741
823.76953125 2.486034 1.514962 -0.971072
824.28515625 2.413641 1.507799 -0.905842
824.83203125 2.4238939999999998 1.479039 -0.944855
825.65625 2.377176 1.460289 -0.916887
826.44921875 2.417547 1.514663 -0.902884
827.20703125 2.445679 1.565774 -0.879905
827.92578125 2.498448 1.629511 -0.868937
828.65234375 2.579259 1.651098 -0.928161
829.23828125 3.375302 1.586815 -1.788487
830.0703125 2.478386 1.525078 -0.953308
830.69140625 3.179491 1.479497 -1.699994
831.50390625 2.504409 1.564541 -0.939868
832.16015625 2.846945 1.533288 -1.313657
832.8984375 2.375938 1.47815 -0.897788
833.546875 2.984155 1.644285 -1.33987
834.2890625 2.432455 1.547455 -0.885
834.9609375 2.87364 1.544606 -1.329034
835.70703125 2.438723 1.538728 -0.899995
836.33984375 2.923289 1.604344 -1.318945
837.05859375 2.4280150000000003 1.628061 -0.799954
837.68359375 2.8968689999999997 1.365824 -1.531045
838.4609375 2.288379 1.461148 -0.827231
839.07421875 3.0370920000000003 1.503611 -1.533481
839.8359375 2.369697 1.579697 -0.79
840.5078125 2.283103 1.555263 -0.72784
841.19921875 2.189619 1.43415 -0.755469
841.7890625 2.978272 1.484848 -1.493424
842.58984375 2.344963 1.556623 -0.78834
843.2734375 2.359569 1.551545 -0.808024
843.9453125 2.2485280000000003 1.40785 -0.840678
844.47265625 3.042175 1.51751 -1.524665
845.30859375 2.400465 1.604454 -0.796011
846.00390625 2.331231 1.574126 -0.757105
846.6796875 2.295041 1.550214 -0.744827
847.37890625 2.338842 1.498305 -0.840537
848.078125 2.3087400000000002 1.588481 -0.720259
848.7890625 2.4392300000000002 1.71973 -0.7195
849.47265625 2.364247 1.589247 -0.775
850.18359375 2.383252 1.583957 -0.799295
850.8671875 2.389134 1.584166 -0.804968
851.58984375 2.363211 1.667691 -0.69552
852.28515625 2.415133 1.615992 -0.799141
852.96484375 2.195951 1.407425 -0.788526
853.6640625 2.316006 1.519852 -0.796154
854.36328125 2.495571 1.672647 -0.822924
855.0625 2.450027 1.630224 -0.819803
855.60546875 3.050266 1.485 -1.565266
856.40625 2.385761 1.606396 -0.779365
857.00390625 3.175286 1.60872 -1.566566
857.765625 2.352217 1.552422 -0.799795
858.46484375 2.279159 1.514981 -0.764178
859.14453125 2.424976 1.644976 -0.78
859.81640625 2.540378 1.744409 -0.795969
860.5 2.4148519999999998 1.66 -0.754852
860.9921875 2.309477 1.479685 -0.829792
861.59765625 2.301648 1.556648 -0.745
862.45703125 2.410299 1.767096 -0.643203
863.17578125 2.357282 1.657394 -0.699888
863.859375 2.382899 1.558971 -0.823928
864.53515625 2.45045 1.698575 -0.751875
865.265625 2.54483 1.790049 -0.754781
865.9375 2.461906 1.701 -0.760906
866.61328125 2.402773 1.615 -0.787773
867.28125 2.390711 1.618209 -0.772502
867.96484375 2.502992 1.79 -0.712992
868.64453125 2.495936 1.804924 -0.691012
869.33203125 2.472579 1.697584 -0.774995
870.00390625 2.538887 1.79842 -0.740467
870.6796875 2.523734 1.822599 -0.701135
871.3359375 2.381916 1.638112 -0.743804
872.046875 2.377934 1.658681 -0.719253
872.71484375 2.487399 1.728246 -0.759153
873.39453125 2.61536 1.855821 -0.759539
874.05078125 2.4501370000000002 1.736663 -0.713474
874.7578125 2.408769 1.619128 -0.789641
875.4375 2.356828 1.568712 -0.788116
876.12109375 2.422847 1.649128 -0.773719
876.8046875 2.453482 1.75358 -0.699902
877.3671875 2.467474 1.734407 -0.733067
878.11328125 2.296645 1.616642 -0.680003
878.84765625 2.336082 1.634953 -0.701129
879.5546875 2.382542 1.677542 -0.705
880.23828125 2.393128 1.688414 -0.704714
880.91796875 2.3326320000000003 1.561153 -0.771479
881.60546875 2.319858 1.538996 -0.780862
882.3203125 2.365502 1.622172 -0.74333
883.00390625 2.3983030000000003 1.707257 -0.691046
883.6953125 2.388675 1.641451 -0.747224
884.3828125 2.433808 1.562823 -0.870985
884.87890625 2.275059 1.517598 -0.757461
885.66015625 2.1573919999999998 1.500186 -0.657206
886.16015625 1.4260640000000002 0.296682 -1.129382
886.86328125 1.4479149999999998 0.039335 -1.40858
887.74609375 2.231132 1.568515 -0.662617
888.4453125 2.352819 1.558152 -0.794667
889.13671875 2.447218 1.687864 -0.759354
889.859375 2.4394210000000003 1.679181 -0.76024
890.546875 2.398238 1.653238 -0.745
891.23046875 2.357846 1.589939 -0.767907
891.92578125 2.292243 1.567666 -0.724577
892.640625 2.377564 1.677727 -0.699837
893.33984375 2.403752 1.683749 -0.720003
894.01171875 2.356182 1.717216 -0.638966
894.70703125 2.394357 1.713291 -0.681066
895.3984375 2.384574 1.650697 -0.733877
896.11328125 2.320643 1.660955 -0.659688
896.65234375 2.271403 1.581403 -0.69
897.42578125 2.172884 1.56315 -0.609734
897.9140625 1.18989 0.219945 -0.969945
898.625 1.055 -0.09 -1.145
899.64453125 2.510548 1.739735 -0.770813
900.3359375 2.494365 1.854321 -0.640044
900.93359375 2.304931 1.684953 -0.619978
901.625 2.377436 1.73 -0.647436
902.4140625 2.5009419999999998 1.794463 -0.706479
903.1171875 2.565017 1.824265 -0.740752
903.8125 2.5525409999999997 1.852857 -0.699684
904.4765625 2.492906 1.667906 -0.825
905.15625 2.249409 1.579409 -0.67
905.87109375 2.478945 1.782435 -0.69651
906.55078125 2.598877 1.871706 -0.727171
907.203125 2.493014 1.698046 -0.794968
907.90234375 2.419616 1.726005 -0.693611
908.5703125 2.51981 1.764598 -0.755212
909.28125 2.512589 1.79555 -0.717039
909.9921875 2.558309 1.773717 -0.784592
910.68359375 2.4826 1.674851 -0.807749
911.171875 2.355 1.615 -0.74
911.7421875 2.3623339999999997 1.66566 -0.696674
912.63671875 2.5768969999999998 1.862878 -0.714019
913.37109375 2.424528 1.646236 -0.778292
914.05859375 2.378759 1.59878 -0.779979
914.7578125 2.436325 1.719265 -0.71706
915.45703125 2.553067 1.836961 -0.716106
916.16796875 2.552956 1.793871 -0.759085
916.88671875 2.4914620000000003 1.655761 -0.835701
917.578125 2.483351 1.661894 -0.821457
918.2734375 2.448194 1.665585 -0.782609
918.9921875 2.537595 1.857671 -0.679924
919.69921875 2.428355 1.717378 -0.710977
920.3828125 2.412649 1.56251 -0.850139
921.0546875 2.445031 1.738907 -0.706124
921.7578125 2.645546 1.839819 -0.805727
922.44140625 2.552822 1.849775 -0.703047
923.13671875 2.4430870000000002 1.720984 -0.722103
923.8125 2.538293 1.734449 -0.803844
924.4765625 2.4865180000000002 1.746518 -0.74
925.171875 2.440645 1.754342 -0.686303
925.87109375 2.42753 1.652568 -0.774962
926.5625 2.445732 1.730986 -0.714746
927.2265625 2.515443 1.751225 -0.764218
927.90234375 2.462912 1.715951 -0.746961
928.56640625 2.4438139999999997 1.691908 -0.751906
929.13671875 2.402664 1.59829 -0.804374
929.92578125 2.542511 1.707676 -0.834835
930.40234375 1.611106 0.391255 -1.219851
931.37109375 2.408257 1.643372 -0.764885
931.84765625 1.31466 0.289687 -1.024973
932.8046875 2.272857 1.533281 -0.739576
933.2890625 1.395341 0.304845 -1.090496
934.203125 2.450487 1.702152 -0.748335
934.6796875 1.464109 0.37278 -1.091329
935.58984375 2.3485519999999998 1.605716 -0.742836
936.07421875 1.3817730000000001 0.258925 -1.122848
937.02734375 2.394472 1.631949 -0.762523
937.5 1.692336 0.425 -1.267336
938.40234375 2.428102 1.748624 -0.679478
938.88671875 1.406449 0.299058 -1.107391
939.83203125 2.239384 1.539472 -0.699912
940.30859375 1.394564 0.269891 -1.124673
941.19921875 2.37973 1.675514 -0.704216
941.6953125 1.472722 0.36446 -1.108262
942.60546875 2.40215 1.624965 -0.777185
943.07421875 1.472527 0.284541 -1.187986
943.796875 2.514073 1.714073 -0.8
944.578125 2.5786480000000003 1.747108 -0.83154
945.2890625 2.3953889999999998 1.622403 -0.772986
946.00390625 2.427865 1.593121 -0.834744
946.703125 2.435434 1.641442 -0.793992
947.36328125 2.533512 1.717809 -0.815703
948.03515625 2.574869 1.719976 -0.854893
948.7265625 2.534144 1.737921 -0.796223
949.40625 2.512093 1.650668 -0.861425
950.08203125 2.4987909999999998 1.723851 -0.77494
950.765625 2.568025 1.753457 -0.814568
951.45703125 2.617521 1.762614 -0.854907
952.12890625 2.559328 1.794459 -0.764869
952.8203125 2.402796 1.691751 -0.711045
953.515625 2.511761 1.691951 -0.81981
954.19921875 2.489898 1.704542 -0.785356
954.8828125 2.564105 1.782426 -0.781679
955.5703125 2.5697289999999997 1.762765 -0.806964
956.26171875 2.47193 1.720469 -0.751461
956.96875 2.528327 1.667538 -0.860789
957.65625 2.494853 1.760114 -0.734739
958.359375 2.548513 1.810935 -0.737578
959.0546875 2.424022 1.715 -0.709022
959.78125 2.427254 1.709674 -0.71758
960.40234375 2.44391 1.716949 -0.726961
961.1640625 2.467103 1.738419 -0.728684
961.85546875 2.6249890000000002 1.809989 -0.815
962.55078125 2.564614 1.792099 -0.772515
963.25 2.544462 1.755 -0.789462
963.94921875 2.549439 1.77958 -0.769859
964.62890625 2.509793 1.777257 -0.732536
965.30859375 2.6686710000000002 1.843649 -0.825022
966.0078125 2.447259 1.701247 -0.746012
966.72265625 2.466699 1.628592 -0.838107
967.3984375 2.4406499999999998 1.693276 -0.747374
968.07421875 2.50929 1.721147 -0.788143
968.75 2.573341 1.76 -0.813341
969.41796875 2.476239 1.652407 -0.823832
970.12109375 2.477376 1.732435 -0.744941
970.8203125 2.579861 1.815961 -0.7639
971.5 2.483425 1.795 -0.688425
972.18359375 2.445092 1.608723 -0.836369
972.87890625 2.409485 1.692472 -0.717013
973.58984375 2.504603 1.747025 -0.757578
974.28125 2.558166 1.779894 -0.778272
974.953125 2.454043 1.624099 -0.829944
975.6328125 2.490715 1.630715 -0.86
976.30078125 2.513137 1.657698 -0.855439
976.99609375 2.521102 1.736133 -0.784969
977.703125 2.607128 1.687128 -0.92
978.2734375 2.325262 1.456759 -0.868503
979.0390625 2.449398 1.689645 -0.759753
980.43359375 1.9937930000000001 1.167273 -0.82652
981.125 2.30449 1.605 -0.69949
981.78515625 2.307747 1.453699 -0.854048
982.46875 2.289987 1.384987 -0.905
983.13671875 2.353509 1.578629 -0.77488
983.81640625 2.340737 1.437945 -0.902792
984.50390625 2.196092 1.347435 -0.848657
985.16796875 2.173875 1.432113 -0.741762
985.828125 2.360365 1.578922 -0.781443
986.5078125 2.31233 1.487377 -0.824953
987.203125 2.338084 1.409088 -0.928996
987.87890625 2.258771 1.34486 -0.913911
988.51171875 2.256257 1.396457 -0.8598
989.19140625 2.292747 1.503647 -0.7891
989.85546875 2.30791 1.394952 -0.912958
990.54296875 2.284745 1.35515 -0.929595
991.2265625 2.3312850000000003 1.416285 -0.915
991.91015625 2.308355 1.393699 -0.914656
992.57421875 2.323624 1.503624 -0.82
993.29296875 2.248689 1.446145 -0.802544
994.0078125 2.236062 1.341715 -0.894347
994.703125 2.265765 1.351361 -0.914404
995.3828125 2.193664 1.341664 -0.852
996.0859375 1.9813589999999999 1.264678 -0.716681
996.796875 2.038354 1.314816 -0.723538
997.4921875 2.143141 1.358187 -0.784954
998.1796875 2.174655 1.375948 -0.798707
998.86328125 2.296183 1.392455 -0.903728
999.55078125 2.12011 1.430787 -0.689323
1000.27734375 2.0345560000000003 1.327104 -0.707452
1000.9765625 1.917887 1.277957 -0.63993
1001.671875 2.2513769999999997 1.454205 -0.797172
1002.375 2.173219 1.41 -0.763219
1003.05859375 2.252416 1.474728 -0.777688
1003.7734375 2.324643 1.460645 -0.863998
1004.5 2.2949409999999997 1.4 -0.894941
1005.19140625 2.286896 1.432625 -0.854271
1005.88671875 2.2516309999999997 1.481631 -0.77
1006.609375 2.158219 1.374362 -0.783857
1007.34765625 2.197945 1.407813 -0.790132
1008.06640625 2.262214 1.41825 -0.843964
1008.7578125 2.2327209999999997 1.463534 -0.769187
1009.48046875 2.319105 1.519853 -0.799252
1010.1953125 2.2766669999999998 1.444048 -0.832619
1010.91796875 2.154912 1.354701 -0.800211
1011.421875 2.10098 1.253421 -0.847559
1011.89453125 2.297529 1.39997 -0.897559
1012.94140625 2.260255 1.556684 -0.703571
1013.44921875 1.5043309999999999 0.189533 -1.314798
1014.171875 1.370714 -0.138915 -1.509629
1014.8125 2.36165 1.445 -0.91665
1015.85546875 2.159332 1.354995 -0.804337
1016.3359375 1.446913 0.179976 -1.266937
1017.2734375 2.2019539999999997 1.532665 -0.669289
1017.76171875 1.636266 0.234843 -1.401423
1018.546875 2.197151 1.404596 -0.792555
1019.00390625 1.4554490000000002 0.098445 -1.357004
1019.99609375 2.331894 1.536894 -0.795
1020.828125 2.092878 1.307131 -0.785747
1021.51953125 2.104988 1.379817 -0.725171
1022.2109375 2.174655 1.339655 -0.835
1022.90625 2.32076 1.405 -0.91576
1023.51953125 2.521742 1.734906 -0.786836
1024.27734375 2.350992 1.49252 -0.858472
1024.953125 2.199269 1.439281 -0.759988
1025.64453125 2.314829 1.489829 -0.825
1026.3203125 2.309549 1.482205 -0.827344
1027.0234375 2.342258 1.534013 -0.808245
1027.70703125 2.351904 1.482053 -0.869851
1028.33203125 2.251467 1.477444 -0.774023
1029.0546875 2.241356 1.517584 -0.723772
1029.671875 2.3296650000000003 1.522539 -0.807126
1030.4140625 2.477829 1.604162 -0.873667
1031.1328125 2.318578 1.468578 -0.85
1031.75 2.290901 1.375 -0.915901
1032.49609375 2.217445 1.457445 -0.76
1033.2109375 2.321412 1.374928 -0.946484
1033.91796875 2.773046 1.899851 -0.873195
1034.62109375 2.349953 1.456663 -0.89329
1035.2890625 2.280148 1.449466 -0.830682
1035.98046875 2.274219 1.444845 -0.829374
1036.65234375 2.370615 1.507038 -0.863577
1037.203125 2.618657 1.709469 -0.909188
1038.05859375 2.280273 1.409252 -0.871021
1038.734375 2.203669 1.377974 -0.825695
1039.3125 2.434934 1.571944 -0.86299
1040.125 2.305348 1.49 -0.815348
1040.83203125 2.241381 1.406399 -0.834982
1041.43359375 2.2237780000000003 1.339803 -0.883975
1042.19921875 2.2173819999999997 1.458388 -0.758994
1042.7890625 2.192181 1.339334 -0.852847
1043.5234375 2.517341 1.698923 -0.818418
1044.03125 1.486903 0.227656 -1.259247
1044.67578125 2.277157 1.388472 -0.888685
1045.1484375 1.525191 0.280311 -1.24488
1045.75390625 2.532489 1.652958 -0.879531
1046.20703125 1.6252 0.3952 -1.23
1046.828125 2.591977 1.712089 -0.879888
1047.32421875 1.586848 0.332718 -1.25413
1047.9375 2.257155 1.429091 -0.828064
1048.4140625 1.522124 0.259746 -1.262378
1049.04296875 2.441899 1.611899 -0.83
1049.5078125 1.58373 0.394301 -1.189429
1050.125 2.59 1.76 -0.83
1050.61328125 1.593583 0.423583 -1.17
1051.25 2.454072 1.555 -0.899072
1051.734375 1.538127 0.344257 -1.19387
1052.36328125 2.379645 1.51492 -0.864725
1052.80859375 1.534994 0.345 -1.189994
1053.4765625 2.634726 1.750157 -0.884569
1053.9609375 1.6095670000000002 0.434778 -1.174789
1054.6015625 2.487295 1.578719 -0.908576
1055.07421875 1.578507 0.310593 -1.267914
1055.671875 2.3770249999999997 1.472025 -0.905
1056.1484375 1.522602 0.273991 -1.248611
1056.82421875 2.571587 1.644905 -0.926682
1057.2734375 1.608292 0.323292 -1.285
1057.9453125 2.586973 1.691973 -0.895
1058.4375 1.529264 0.292692 -1.236572
1059.07421875 2.402752 1.469002 -0.93375
1059.5390625 1.5645799999999999 0.259637 -1.304943
1060.20703125 2.615836 1.681004 -0.934832
1060.68359375 1.627459 0.30655 -1.320909
1061.3515625 2.640343 1.736103 -0.90424
1061.8203125 1.556626 0.311626 -1.245
1062.41796875 2.4499999999999997 1.505 -0.945
1062.890625 1.528432 0.230328 -1.298104
1063.55859375 2.4748029999999996 1.574817 -0.899986
1064.0078125 1.646237 0.337723 -1.308514
1064.6875 2.627966 1.75 -0.877966
1065.16796875 1.5586909999999998 0.34384 -1.214851
1065.8203125 2.493408 1.583408 -0.91
1066.29296875 1.509468 0.234576 -1.274892
1066.97265625 2.401366 1.596366 -0.805
1067.4453125 1.545114 0.267128 -1.277986
1068.15625 2.598984 1.698984 -0.9
1068.6328125 1.5845339999999999 0.319534 -1.265
1069.30078125 2.471584 1.52342 -0.948164
1069.765625 1.454929 0.210264 -1.244665
1070.48828125 2.525119 1.619084 -0.906035
1070.95703125 1.601302 0.263512 -1.33779
1071.7109375 2.572619 1.679885 -0.892734
1072.1796875 1.5116749999999999 0.236675 -1.275
1072.90625 2.358275 1.422187 -0.936088
1073.37109375 1.511638 0.230785 -1.280853
1074.09765625 2.528683 1.713234 -0.815449
1074.59765625 1.569132 0.284144 -1.284988
1075.26953125 2.514389 1.694711 -0.819678
1075.74609375 1.554068 0.314093 -1.239975
1076.4296875 2.1988060000000003 1.40307 -0.795736
1076.89453125 1.433919 0.225283 -1.208636
1077.640625 2.514976 1.707942 -0.807034
1078.12890625 1.563403 0.283791 -1.279612
1078.8984375 2.538923 1.728923 -0.81
1079.36328125 1.453791 0.281112 -1.172679
1080.16015625 2.36 1.54 -0.82
1080.640625 1.525899 0.293121 -1.232778
1081.6796875 1.5494409999999998 -0.020774 -1.570215
1082.6640625 2.09518 1.31938 -0.7758
1083.3828125 2.060879 1.266231 -0.794648
1084.078125 2.0400460000000002 1.257279 -0.782767
1084.78515625 1.964826 1.268159 -0.696667
1085.49609375 1.984307 1.252083 -0.732224
1086.19140625 2.041201 1.274295 -0.766906
1086.85546875 2.103102 1.339949 -0.763153
1087.56640625 2.106004 1.29325 -0.812754
1088.265625 2.254644 1.465872 -0.788772
1088.9453125 2.251449 1.403367 -0.848082
1089.62109375 2.108184 1.393184 -0.715
1090.31640625 2.135558 1.351745 -0.783813
1090.98828125 2.222266 1.496737 -0.725529
1091.6875 2.254138 1.504138 -0.75
1092.37890625 2.35306 1.415059 -0.938001
1093.0703125 2.260918 1.438887 -0.822031
1093.75390625 2.253324 1.421985 -0.831339
1094.47265625 2.278911 1.553911 -0.725
1094.984375 2.322011 1.479157 -0.842854
1095.75390625 2.308361 1.473643 -0.834718
1096.4609375 2.2407139999999997 1.434335 -0.806379
1097.19140625 2.291931 1.474479 -0.817452
1097.8984375 2.269487 1.5301 -0.739387
1098.6171875 2.221605 1.45664 -0.764965
1099.30859375 2.22555 1.450655 -0.774895
1100.0078125 2.197187 1.440984 -0.756203
1100.70703125 2.271284 1.481339 -0.789945
1101.42578125 2.301028 1.526682 -0.774346
1102.1328125 2.303846 1.483846 -0.82
1102.80078125 2.239386 1.460501 -0.778885
1103.4765625 2.224322 1.470311 -0.754011
1104.15625 2.297603 1.509673 -0.78793
1104.734375 1.564683 0.755 -0.809683
1105.55859375 2.1929790000000002 1.428263 -0.764716
1106.234375 1.831046 1.183365 -0.647681
1106.9296875 1.932245 1.273921 -0.658324
1107.63671875 2.047073 1.367168 -0.679905
1108.34765625 2.258349 1.49721 -0.761139
1109.0390625 2.2933570000000003 1.430579 -0.862778
1109.70703125 2.267226 1.447115 -0.820111
1110.41796875 2.2903830000000003 1.430968 -0.859415
1111.1015625 2.346694 1.516694 -0.83
1111.8046875 2.3021030000000002 1.507481 -0.794622
1112.48828125 2.324586 1.431386 -0.8932
1113.1796875 2.205542 1.381011 -0.824531
1113.890625 2.235557 1.426425 -0.809132
1114.625 2.362934 1.585 -0.777934
1115.328125 2.389444 1.557688 -0.831756
1116.0078125 2.2976840000000003 1.449867 -0.847817
1116.7109375 2.268287 1.434836 -0.833451
1117.41015625 2.27873 1.419043 -0.859687
1118.12109375 2.369678 1.544894 -0.824784
1118.84375 2.365195 1.502072 -0.863123
1119.53515625 2.3168729999999997 1.469507 -0.847366
1120.22265625 2.39808 1.478227 -0.919853
1120.9375 2.247419 1.477419 -0.77
1121.66015625 2.339635 1.460421 -0.879214
1122.36328125 2.295998 1.470634 -0.825364
1123.0546875 2.326745 1.45256 -0.874185
1123.75 2.216321 1.35 -0.866321
1124.4296875 2.260386 1.379509 -0.880877
1124.91015625 1.29928 -0.33072 -1.63
1125.8203125 2.309661 1.465805 -0.843856
1126.3125 1.493935 0.25 -1.243935
1127.03515625 1.408356 -0.031492 -1.439848
1127.9375 2.229677 1.455 -0.774677
1128.63671875 2.222838 1.412229 -0.810609
1129.3359375 2.2910250000000003 1.494739 -0.796286
1130.0078125 2.2632589999999997 1.442759 -0.8205
1130.71484375 2.24983 1.439014 -0.810816
1131.4140625 2.314829 1.404204 -0.910625
1132.1015625 2.285 1.465 -0.82
1132.7890625 2.39405 1.559675 -0.834375
1133.46484375 2.328429 1.421849 -0.90658
1134.16015625 2.287367 1.466742 -0.820625
1134.8828125 2.278768 1.358846 -0.919922
1135.578125 2.248775 1.413803 -0.834972
1136.25 2.3189979999999997 1.41 -0.908998
1136.9453125 2.280862 1.413386 -0.867476
1137.6484375 2.323531 1.424421 -0.89911
1138.3515625 2.191616 1.346616 -0.845
1139.0703125 2.23398 1.35138 -0.8826
1139.75390625 2.31012 1.480545 -0.829575
1140.43359375 2.421371 1.633771 -0.7876
1141.13671875 2.332127 1.501593 -0.830534
1141.84765625 2.326587 1.496587 -0.83
1142.5546875 2.302104 1.435407 -0.866697
1143.23046875 2.290906 1.494906 -0.796
1143.93359375 2.325267 1.558945 -0.766322
1144.6015625 2.3299279999999998 1.479928 -0.85
1145.30859375 2.297963 1.49 -0.807963
1146.0 2.3094900000000003 1.465 -0.84449
1146.68359375 2.346011 1.578876 -0.767135
1147.33984375 2.3304080000000003 1.511733 -0.818675
1148.04296875 2.32539 1.435248 -0.890142
1148.74609375 2.278142 1.443154 -0.834988
1149.4375 2.259675 1.414858 -0.844817
1150.109375 2.371273 1.560861 -0.810412
1150.609375 2.259021 1.486841 -0.77218
1151.37109375 2.328328 1.513372 -0.814956
1151.875 1.554907 0.235 -1.319907
1152.6015625 1.712893 -0.10859 -1.821483
1153.359375 2.246124 1.473826 -0.772298
1154.21484375 2.329224 1.596454 -0.73277
1154.74609375 3.077902 1.293946 -1.783956
1155.5390625 2.346911 1.554411 -0.7925
1156.26171875 2.2796980000000002 1.455 -0.824698
1156.97265625 2.393931 1.648931 -0.745
1157.67578125 2.2930449999999998 1.535 -0.758045
1158.37890625 2.315735 1.53 -0.785735
1159.08984375 2.2311430000000003 1.442571 -0.788572
1159.8046875 2.212629 1.358899 -0.85373
1160.4921875 2.2925940000000002 1.459669 -0.832925
1161.1875 2.249001 1.501549 -0.747452
1161.91015625 2.346596 1.501776 -0.84482
1162.61328125 2.19708 1.373134 -0.823946
1163.30078125 2.195671 1.340671 -0.855
1163.9765625 2.310509 1.490509 -0.82
1164.68359375 2.28252 1.450823 -0.831697
1165.37890625 2.305526 1.542064 -0.763462
1166.06640625 2.2116569999999998 1.404952 -0.806705
1166.76953125 2.315313 1.49997 -0.815343
1167.4453125 2.323525 1.524541 -0.798984
1168.12109375 2.255741 1.508193 -0.747548
1168.83203125 2.2119299999999997 1.417053 -0.794877
1169.51953125 2.24997 1.42997 -0.82
1170.1796875 2.3168949999999997 1.470586 -0.846309
1170.86328125 2.37936 1.520531 -0.858829
1171.54296875 2.39094 1.476804 -0.914136
1172.2578125 2.415765 1.517677 -0.898088
1172.9609375 2.228173 1.41487 -0.813303
1173.66796875 2.315475 1.505968 -0.809507
1174.35546875 2.3206629999999997 1.554849 -0.765814
1175.06640625 2.358376 1.533718 -0.824658
1175.78125 2.4562429999999997 1.64055 -0.815693
1176.4765625 2.3173079999999997 1.451326 -0.865982
1177.15234375 2.357544 1.541524 -0.81602
1177.83984375 2.208881 1.525 -0.683881
1178.52734375 2.297787 1.51591 -0.781877
1179.05078125 2.332917 1.520406 -0.812511
1179.81640625 2.4477130000000002 1.582527 -0.865186
1180.28515625 1.7731620000000001 0.264904 -1.508258
1180.97265625 1.656076 -0.055299 -1.711375
1181.984375 2.384652 1.563501 -0.821151
1182.6953125 2.2385349999999997 1.484489 -0.754046
1183.3828125 2.261669 1.428857 -0.832812
1184.06640625 2.300769 1.434779 -0.86599
1184.75390625 2.331819 1.478213 -0.853606
1185.44140625 2.411436 1.504489 -0.906947
1186.13671875 2.316277 1.556445 -0.759832
1186.8203125 2.262334 1.443447 -0.818887
1187.50390625 2.3340710000000002 1.549071 -0.785
1188.1875 2.3021000000000003 1.477548 -0.824552
1188.90625 2.314439 1.486146 -0.828293
1189.578125 2.298286 1.48908 -0.809206
1190.25390625 2.28618 1.51818 -0.768
1190.94921875 2.352502 1.583456 -0.769046
1191.62109375 2.362155 1.542185 -0.81997
1192.3125 2.239115 1.467857 -0.771258
1193.01953125 2.238912 1.43478 -0.804132
1193.6796875 2.2257219999999998 1.417617 -0.808105
1194.3515625 2.349138 1.564138 -0.785
1195.05859375 2.385825 1.569088 -0.816737
1195.78125 2.357935 1.524595 -0.83334
1196.484375 2.2823890000000002 1.47825 -0.804139
1197.15234375 2.207362 1.448785 -0.758577
1197.8671875 2.3050550000000003 1.547438 -0.757617
1198.5546875 2.242403 1.420666 -0.821737
1199.265625 2.3198280000000002 1.476016 -0.843812
1199.97265625 2.2955579999999998 1.46143 -0.834128
1200.66015625 2.2652200000000002 1.399372 -0.865848
1201.34375 2.36549 1.505923 -0.859567
1202.05859375 2.313557 1.48878 -0.824777
1202.76953125 2.384653 1.459943 -0.92471
1203.45703125 2.283471 1.423501 -0.85997
1204.1484375 2.30736 1.427978 -0.879382
1204.8359375 2.2828 1.474839 -0.807961
1205.54296875 2.218779 1.416926 -0.801853
1206.23046875 2.319381 1.419868 -0.899513
1206.9140625 2.258012 1.404328 -0.853684
1207.58984375 2.3629249999999997 1.453739 -0.909186
1208.2734375 2.350721 1.475805 -0.874916
1208.984375 2.3411169999999997 1.469013 -0.872104
1209.67578125 2.361133 1.481141 -0.879992
1210.3515625 2.301155 1.496155 -0.805
1211.03515625 2.424003 1.634123 -0.78988
1211.73046875 2.375366 1.553598 -0.821768
1212.4296875 2.296665 1.493281 -0.803384
1213.1328125 2.388995 1.492695 -0.8963
1213.80859375 2.318065 1.44447 -0.873595
1214.5078125 2.361962 1.53204 -0.829922
1215.1875 2.326963 1.487097 -0.839866
1215.8828125 2.345712 1.478603 -0.867109
1216.5703125 2.268718 1.406466 -0.862252
1217.24609375 2.075075 1.309633 -0.765442
1217.94140625 2.19585 1.47587 -0.71998
1218.63671875 2.312884 1.482275 -0.830609
1219.3515625 2.25389 1.50837 -0.74552
1220.05859375 2.337702 1.494215 -0.843487
1220.7421875 2.3416889999999997 1.516897 -0.824792
1221.44921875 2.377732 1.590045 -0.787687
1222.1640625 2.234878 1.434292 -0.800586
1222.859375 2.309126 1.476845 -0.832281
1223.546875 2.272272 1.437513 -0.834759
1224.234375 2.3031449999999998 1.456211 -0.846934
1224.93359375 2.451599 1.574423 -0.877176
1225.640625 2.328753 1.513753 -0.815
1226.3515625 2.3589979999999997 1.513998 -0.845
1227.03125 2.293618 1.439201 -0.854417
1227.71484375 2.2983279999999997 1.447863 -0.850465
1228.39453125 2.281285 1.461285 -0.82
1229.11328125 2.3344869999999998 1.496541 -0.837946
1229.796875 2.354282 1.491266 -0.863016
1230.453125 2.198081 1.373124 -0.824957
1231.140625 2.1925470000000002 1.397547 -0.795
1231.8359375 2.395658 1.52475 -0.870908
1232.5390625 2.3649750000000003 1.549261 -0.815714
1233.25 2.369034 1.55 -0.819034
1233.94921875 2.2944839999999997 1.511745 -0.782739
1234.63671875 2.300939 1.43156 -0.869379
1235.3359375 2.338565 1.545588 -0.792977
1236.06640625 2.347788 1.573924 -0.773864
1236.75 2.323487 1.55 -0.773487
1237.42578125 2.231905 1.492344 -0.739561
1238.125 2.241738 1.425 -0.816738
1238.8125 2.315857 1.511375 -0.804482
1239.53125 2.298761 1.508761 -0.79
1240.25 2.3516440000000003 1.53 -0.821644
1240.93359375 2.2446960000000002 1.437999 -0.806697
1241.625 2.168908 1.375 -0.793908
1242.3359375 2.323906 1.589864 -0.734042
1243.05859375 2.341291 1.543691 -0.7976
1243.7578125 2.2982489999999998 1.488684 -0.809565
1244.4375 2.312382 1.342593 -0.969789
1245.14453125 2.244907 1.355797 -0.88911
1245.8359375 2.334899 1.479899 -0.855
1246.546875 2.270061 1.426282 -0.843779
1247.25 2.402234 1.475 -0.927234
1247.953125 2.2942799999999997 1.416586 -0.877694
1248.6328125 2.208894 1.387019 -0.821875
1249.359375 2.256449 1.499269 -0.75718
1250.06640625 2.272991 1.432579 -0.840412
1250.75390625 2.33583 1.416262 -0.919568
1251.421875 2.264908 1.34911 -0.915798
1252.1171875 2.289026 1.429613 -0.859413
1252.79296875 2.365886 1.561166 -0.80472
1253.48828125 2.336833 1.491208 -0.845625
1254.16796875 2.305633 1.460929 -0.844704
1254.85546875 2.266841 1.403823 -0.863018
1255.54296875 2.2230410000000003 1.453041 -0.77
1256.26953125 2.278267 1.524756 -0.753511
1256.95703125 2.303913 1.478953 -0.82496
1257.65234375 2.342327 1.391791 -0.950536
1258.3359375 2.244798 1.344687 -0.900111
1259.03515625 2.32013 1.475916 -0.844214
1259.7421875 2.293012 1.417504 -0.875508
1260.44140625 2.239842 1.41285 -0.826992
1261.125 2.1625389999999998 1.3 -0.862539
1261.83203125 2.221951 1.357022 -0.864929
1262.54296875 2.303039 1.489323 -0.813716
1263.26171875 2.321098 1.478904 -0.842194
1263.85546875 2.273094 1.419925 -0.853169
1264.57421875 2.195828 1.322378 -0.87345
1265.33984375 2.222563 1.417769 -0.804794
1266.02734375 2.222737 1.437737 -0.785
1266.7578125 2.343478 1.471887 -0.871591
1267.46875 2.316949 1.413879 -0.90307
1268.1640625 2.2328539999999997 1.40207 -0.830784
1268.84765625 2.319196 1.485434 -0.833762
1269.578125 2.26367 1.441258 -0.822412
1270.28125 2.23984 1.366537 -0.873303
1270.96875 2.222295 1.314303 -0.907992
1271.65625 2.327504 1.42858 -0.898924
1272.3359375 2.328461 1.489273 -0.839188
1273.0234375 2.327372 1.482811 -0.844561
1273.71484375 2.24586 1.417348 -0.828512
1274.3984375 2.185241 1.381572 -0.803669
1275.08203125 2.2804830000000003 1.53553 -0.744953
1275.75390625 2.3329269999999998 1.531167 -0.80176
1276.4765625 2.346749 1.566749 -0.78
1277.16796875 2.345468 1.518886 -0.826582
1277.8359375 2.208301 1.434927 -0.773374
1278.5390625 2.188115 1.459448 -0.728667
1279.2265625 2.2603169999999997 1.500317 -0.76
1279.9375 2.3133999999999997 1.553707 -0.759693
1280.64453125 2.389231 1.579871 -0.80936
1281.33203125 2.325898 1.515923 -0.809975
1282.0078125 2.354594 1.556808 -0.797786
1282.71875 2.330857 1.566188 -0.764669
1283.4375 2.371926 1.587593 -0.784333
1284.1484375 2.34788 1.518377 -0.829503
1284.83203125 2.348397 1.480472 -0.867925
1285.55078125 2.419663 1.540086 -0.879577
1286.25 2.38 1.555 -0.825
1286.953125 2.387629 1.498629 -0.889
1287.63671875 2.3768979999999997 1.511599 -0.865299
1288.31640625 2.266624 1.373718 -0.892906
1288.9921875 2.368611 1.54871 -0.819901
1289.69921875 2.425871 1.563155 -0.862716
1290.3828125 2.474487 1.571887 -0.9026
1291.0625 2.344392 1.446989 -0.897403
1291.5859375 2.189204 1.329929 -0.859275
1292.35546875 2.432735 1.644887 -0.787848
1292.84375 1.5152839999999999 0.284641 -1.230643
1293.69921875 2.328098 1.495903 -0.832195
1294.18359375 1.575154 0.254883 -1.320271
1295.19921875 2.352886 1.547352 -0.805534
1295.6796875 1.516421 0.267375 -1.249046
1296.6328125 2.284108 1.459108 -0.825
1297.11328125 1.5173999999999999 0.233728 -1.283672
1298.04296875 2.221924 1.443348 -0.778576
1298.51171875 1.7283590000000002 0.253359 -1.475
1299.44921875 2.280617 1.487372 -0.793245
1299.921875 1.485468 0.189807 -1.295661
1300.859375 2.2523239999999998 1.382963 -0.869361
1301.33203125 1.546825 0.106825 -1.44
1302.234375 2.247658 1.406463 -0.841195
1302.73828125 1.456148 0.186669 -1.269479
1303.66015625 2.210845 1.39 -0.820845
1304.140625 1.627531 0.17892 -1.448611
1305.05078125 2.2732270000000003 1.478738 -0.794489
1305.55078125 1.525034 0.192274 -1.33276
1306.47265625 2.3016240000000003 1.409655 -0.891969
1306.96484375 1.4418890000000002 0.158864 -1.283025
1307.8828125 2.237386 1.361374 -0.876012
1308.3515625 1.616801 0.211523 -1.405278
1309.24609375 2.233686 1.348393 -0.885293
1309.7578125 1.396581 0.165 -1.231581
1310.640625 2.216395 1.321518 -0.894877
1311.1015625 1.634449 0.144449 -1.49
1311.98828125 2.2273199999999997 1.408771 -0.818549
1312.48046875 1.41496 0.17 -1.24496
1313.3671875 2.2610550000000003 1.373428 -0.887627
1313.86328125 1.41988 0.139222 -1.280658
1314.76171875 2.262997 1.370761 -0.892236
1315.22265625 1.534217 0.26 -1.274217
1316.125 2.17 1.425 -0.745
1316.625 1.412592 0.25 -1.162592
1317.42578125 2.166001 1.333187 -0.832814
1317.88671875 1.7012520000000002 0.186635 -1.514617
1318.8828125 2.266972 1.489048 -0.777924
1319.37890625 1.466889 0.194585 -1.272304
1320.31640625 2.375054 1.534484 -0.84057
1320.8203125 1.560384 0.172489 -1.387895
1321.72265625 2.349494 1.498398 -0.851096
1322.20703125 1.494916 0.244916 -1.25
1323.125 2.285 1.48 -0.805
1323.609375 1.469855 0.245 -1.224855
1324.49609375 2.175287 1.36 -0.815287
1324.9609375 1.654977 0.264977 -1.39
1325.8671875 2.260614 1.49566 -0.764954
1326.3515625 1.513845 0.303889 -1.209956
1327.25390625 2.078199 1.393199 -0.685
1327.73828125 1.495813 0.151726 -1.344087
1328.6171875 2.2590760000000003 1.488401 -0.770675
1329.109375 1.412528 0.223274 -1.189254
1330.01171875 2.287248 1.438457 -0.848791
1330.50390625 1.492591 0.205 -1.287591
1331.38671875 2.291557 1.456874 -0.834683
1331.8671875 1.599742 0.27433 -1.325412
1332.76953125 2.247109 1.436043 -0.811066
1333.26171875 1.511675 0.26 -1.251675
1334.17578125 2.228868 1.40993 -0.818938
1334.65625 1.710672 0.234167 -1.476505
1335.546875 2.3503439999999998 1.53 -0.820344
1336.03515625 1.462355 0.252355 -1.21
1336.953125 2.362219 1.507165 -0.855054
1337.4375 1.470613 0.243611 -1.227002
1338.296875 2.242875 1.437875 -0.805
1338.77734375 1.631243 0.206355 -1.424888
1339.68359375 2.323589 1.523589 -0.8
1340.17578125 1.464108 0.232233 -1.231875
1341.1015625 2.19239 1.388355 -0.804035
1341.57421875 1.340977 0.012007 -1.32897
1342.44921875 2.190356 1.321479 -0.868877
1342.9609375 1.583973 0.289962 -1.294011
1343.89453125 2.283628 1.439824 -0.843804
1344.37890625 1.438772 0.244241 -1.194531
1345.23828125 2.187084 1.37343 -0.813654
1345.71484375 1.590536 0.220969 -1.369567
1346.453125 2.200039 1.378599 -0.82144
1346.98046875 2.099188 1.294858 -0.80433
1347.83203125 2.286029 1.501062 -0.784967
1348.328125 1.57059 0.233544 -1.337046
1349.25 2.239347 1.445 -0.794347
1349.7421875 1.493303 0.278303 -1.215
1350.69140625 2.292338 1.489574 -0.802764
1351.18359375 1.406384 0.225 -1.181384
1352.0625 2.1762360000000003 1.331641 -0.844595
1352.546875 1.574918 0.179519 -1.395399
1353.4453125 2.1494280000000003 1.385026 -0.764402
1353.96484375 1.463177 0.238624 -1.224553
1354.87109375 2.205 1.42 -0.785
1355.36328125 1.5177669999999999 0.227817 -1.28995
1356.26953125 2.211766 1.364924 -0.846842
1356.76953125 1.610016 0.269659 -1.340357
1357.703125 2.33937 1.476485 -0.862885
1358.1953125 1.422183 0.19946 -1.222723
1359.08984375 2.255733 1.38994 -0.865793
1359.56640625 1.6234110000000002 0.195 -1.428411
1360.4765625 2.317847 1.542847 -0.775
1360.9609375 1.4714010000000002 0.244949 -1.226452
1361.87109375 2.2024939999999997 1.407516 -0.794978
1362.35546875 1.539637 0.184904 -1.354733
1363.2578125 2.2216650000000002 1.397647 -0.824018
1363.765625 1.5338889999999998 0.214171 -1.319718
1364.67578125 2.268911 1.404546 -0.864365
1365.17578125 1.484275 0.159075 -1.3252
1366.05078125 2.147689 1.281597 -0.866092
1366.55859375 1.5668730000000002 0.159515 -1.407358
1367.4609375 2.237829 1.379118 -0.858711
1367.98828125 1.416462 0.128862 -1.2876
1368.875 2.156317 1.315 -0.841317
1369.359375 1.5453780000000001 0.070529 -1.474849
1370.30078125 2.2667260000000002 1.428191 -0.838535
1370.81640625 1.480302 0.169532 -1.31077
1371.703125 2.36549 1.388874 -0.976616
1372.1953125 1.417331 0.122331 -1.295
1373.0859375 2.127534 1.222891 -0.904643
1373.5546875 1.62421 0.126626 -1.497584
1374.4921875 2.249781 1.379803 -0.869978
1374.98046875 1.46491 0.15991 -1.305
1375.8828125 2.276887 1.417079 -0.859808
1376.359375 1.554463 0.094766 -1.459697
1377.296875 2.382076 1.50972 -0.872356
1377.79296875 1.443148 0.153148 -1.29
1378.65234375 2.233053 1.346251 -0.886802
1379.1484375 1.527053 0.082104 -1.444949
1380.01953125 2.244039 1.394188 -0.849851
1380.5234375 1.52145 0.176559 -1.344891
1381.37890625 2.269295 1.437092 -0.832203
1381.875 1.51 0.15 -1.36
1382.73046875 2.181962 1.339968 -0.841994
1383.21875 1.485521 0.18707 -1.298451
1384.1171875 2.290263 1.354772 -0.935491
1384.60546875 1.4172449999999999 0.12 -1.297245
1385.45703125 2.124793 1.279793 -0.845
1385.921875 1.618836 0.164242 -1.454594
1386.80859375 2.2682789999999997 1.443279 -0.825
1387.3046875 1.4411720000000001 0.147426 -1.293746
1388.12890625 2.212151 1.369151 -0.843
1388.60546875 1.549736 0.074736 -1.475
1389.54296875 2.189369 1.315031 -0.874338
1390.0390625 1.513484 0.219746 -1.293738
1390.98046875 2.299935 1.409867 -0.890068
1391.4765625 1.430329 0.14537 -1.284959
1392.3515625 2.167977 1.331129 -0.836848
1392.8359375 1.564916 0.209916 -1.355
1393.734375 2.191554 1.377157 -0.814397
1394.2265625 1.423156 0.191835 -1.231321
1395.1015625 2.253519 1.428519 -0.825
1395.57421875 1.61598 0.244541 -1.371439
1396.4609375 2.261104 1.502184 -0.75892
1396.953125 1.522096 0.304007 -1.218089
1397.8203125 2.296644 1.555971 -0.740673
1398.30859375 1.564251 0.24976 -1.314491
1399.15625 2.320628 1.623563 -0.697065
1399.671875 1.491745 0.329909 -1.161836
1400.515625 2.392581 1.570955 -0.821626
1400.9921875 1.706345 0.303745 -1.4026
1401.8671875 2.4377560000000003 1.705321 -0.732435
1402.35546875 1.556222 0.34994 -1.206282
1403.203125 2.379595 1.543945 -0.83565
1403.7109375 1.598906 0.299976 -1.29893
1404.5703125 2.319194 1.576058 -0.743136
1405.05859375 1.5131489999999999 0.28334 -1.229809
1405.91015625 2.328839 1.455714 -0.873125
1406.43359375 1.493173 0.2235 -1.269673
1407.28125 2.366442 1.427641 -0.938801
1407.765625 1.651143 0.264199 -1.386944
1408.6640625 2.45844 1.599349 -0.859091
1409.140625 1.419888 0.203262 -1.216626
1410.00390625 2.282663 1.438034 -0.844629
1410.51953125 1.4802140000000001 0.244987 -1.235227
1411.40234375 2.300804 1.47182 -0.828984
1411.86328125 1.564146 0.263908 -1.300238
1412.75 2.295973 1.465 -0.830973
1413.25 1.411737 0.175 -1.236737
1414.16015625 2.362466 1.528072 -0.834394
1414.65234375 1.5841880000000002 0.259653 -1.324535
1415.5390625 2.800331 1.960331 -0.84
1416.03515625 1.509012 0.279859 -1.229153
1416.8828125 2.318515 1.454374 -0.864141
1417.41796875 1.464623 0.225 -1.239623
1418.2734375 2.204992 1.387967 -0.817025
1418.7421875 1.476776 0.2371 -1.239676
1419.6328125 2.736098 1.883992 -0.852106
1420.1171875 1.406206 0.231206 -1.175
1421.015625 2.266558 1.478047 -0.788511
1421.5234375 1.45377 0.278953 -1.174817
1422.390625 2.297054 1.549792 -0.747262
1422.88671875 1.433336 0.283336 -1.15
1423.765625 2.291547 1.506667 -0.78488
1424.29296875 1.073078 0.286307 -0.786771
1425.1640625 2.351564 1.519397 -0.832167
1425.6484375 1.467843 0.243187 -1.224656
1426.55859375 2.219838 1.443847 -0.775991
1427.04296875 1.411281 0.228131 -1.18315
1427.9765625 2.24338 1.40838 -0.835
1428.4921875 1.4151349999999998 0.238498 -1.176637
1429.38671875 2.309846 1.438469 -0.871377
1429.87109375 1.404411 0.254633 -1.149778
1430.7890625 2.3094 1.5144 -0.795
1431.30078125 1.239155 0.269561 -0.969594
1432.19140625 2.38612 1.512996 -0.873124
1432.66796875 1.099996 0.261407 -0.838589
1433.58203125 2.282338 1.455238 -0.8271
1434.0625 1.4344890000000001 0.205446 -1.229043
1434.984375 2.244374 1.389997 -0.854377
1435.48828125 1.4335069999999999 0.193976 -1.239531
1436.3515625 2.30801 1.40801 -0.9
1436.8359375 1.339609 0.254817 -1.084792
1437.76171875 2.146019 1.337654 -0.808365
1438.265625 1.375384 0.155605 -1.219779
1439.12890625 2.12663 1.30818 -0.81845
1439.6171875 1.596615 0.232592 -1.364023
1440.5390625 2.2678890000000003 1.492995 -0.774894
1441.03125 1.416835 0.192879 -1.223956
1441.95703125 2.366313 1.552393 -0.81392
1442.4375 1.591282 0.23 -1.361282
1443.375 3.0271369999999997 -0.265 -3.292137
1443.796875 1.606397 0.524678 -1.081719
1444.75 2.263923 1.44 -0.823923
1445.23828125 1.609784 0.213181 -1.396603
1446.11328125 2.1587069999999997 1.377506 -0.781201
1446.609375 1.608717 0.312435 -1.296282
1447.50390625 2.232263 1.414148 -0.818115
1448.0 1.524819 0.235 -1.289819
1448.92578125 2.223269 1.396324 -0.826945
1449.61328125 2.280963 1.509016 -0.771947
1450.1328125 3.401174 1.788545 -1.612629
1450.9765625 2.359823 1.471659 -0.888164
1451.671875 2.208686 1.264222 -0.944464
1452.34765625 2.327212 1.382212 -0.945
1453.0078125 2.3546300000000002 1.447775 -0.906855
1453.6875 2.275147 1.447206 -0.827941
1454.3515625 2.2786929999999996 1.438956 -0.839737
1455.0390625 2.345949 1.389855 -0.956094
1455.7265625 2.358157 1.428157 -0.93
1456.40234375 2.445158 1.559565 -0.885593
1457.0546875 2.35231 1.467647 -0.884663
1457.73828125 2.377777 1.543532 -0.834245
1458.42578125 2.2731019999999997 1.426062 -0.84704
1459.109375 2.405001 1.573158 -0.831843
1459.75390625 2.330915 1.569196 -0.761719
1460.421875 2.273599 1.511141 -0.762458
1461.09375 2.323504 1.51439 -0.809114
1461.77734375 2.341056 1.59132 -0.749736
1462.45703125 2.345824 1.635199 -0.710625
1463.15625 2.358263 1.583954 -0.774309
1463.82421875 2.2209209999999997 1.504095 -0.716826
1464.53515625 2.242667 1.478619 -0.764048
1465.22265625 2.4024 1.609589 -0.792811
1465.90625 2.439744 1.554321 -0.885423
1466.59375 2.391389 1.473924 -0.917465
1467.2734375 2.442716 1.538452 -0.904264
1467.9609375 2.272491 1.414465 -0.858026
1468.66796875 2.357856 1.409898 -0.947958
1469.33203125 2.359678 1.432506 -0.927172
1470.00390625 2.355239 1.371615 -0.983624
1470.69921875 2.438626 1.443962 -0.994664
1471.41015625 2.4487699999999997 1.57377 -0.875
1472.09765625 2.4144360000000002 1.536807 -0.877629
1472.765625 2.439362 1.619362 -0.82
1473.453125 2.387911 1.597923 -0.789988
1474.13671875 2.381243 1.522104 -0.859139
1474.83984375 2.391024 1.594095 -0.796929
1475.55078125 2.4921379999999997 1.675131 -0.817007
1476.2265625 2.221202 1.466202 -0.755
1476.89453125 2.394587 1.649995 -0.744592
1477.609375 2.499026 1.646379 -0.852647
1478.3203125 2.456102 1.654459 -0.801643
1479.0234375 2.4609360000000002 1.617364 -0.843572
1479.6875 2.474549 1.635 -0.839549
1480.40625 2.450369 1.620885 -0.829484
1481.08203125 2.484507 1.594552 -0.889955
1481.80078125 2.195248 1.463887 -0.731361
1482.49609375 2.358145 1.548193 -0.809952
1483.1796875 2.367476 1.604052 -0.763424
1483.88671875 2.495618 1.647862 -0.847756
1484.625 2.501155 1.71 -0.791155
1485.34375 2.483308 1.659563 -0.823745
1486.02734375 2.338989 1.623115 -0.715874
1486.7578125 2.471765 1.682984 -0.788781
1487.46875 2.296549 1.567676 -0.728873
1488.01953125 2.446959 1.594977 -0.851982
1488.81640625 2.406422 1.595904 -0.810518
1489.3203125 1.601307 0.317426 -1.283881
1489.98828125 1.6786759999999998 -0.068224 -1.7469
1491.05078125 2.432248 1.576767 -0.855481
1491.5625 1.501698 0.282778 -1.21892
1492.33203125 1.5775290000000002 -0.015 -1.592529
1493.15234375 2.147137 1.337137 -0.81
1493.85546875 2.2453 1.4153 -0.83
1494.55078125 2.296169 1.462634 -0.833535
1495.2578125 2.353044 1.513857 -0.839187
1495.73828125 2.128475 1.203687 -0.924788
1496.50390625 2.358127 1.464247 -0.89388
1496.984375 1.689804 0.282884 -1.40692
1497.7421875 1.320654 -0.035 -1.355654
1498.66796875 2.472625 1.420087 -1.052538
1499.359375 2.46116 1.758567 -0.702593
1500.0546875 2.3562030000000003 2.603104 0.246901
1500.74609375 2.479169 2.369196 -0.109973
1501.4296875 2.581525 2.179754 -0.401771
1502.14453125 2.585925 1.984859 -0.601066
1502.80859375 2.6558 1.855845 -0.799955
1503.44921875 2.2806509999999998 1.619211 -0.66144
1504.125 2.379717 1.48 -0.899717
1504.8203125 2.508826 1.588067 -0.920759
1505.484375 2.636835 1.707238 -0.929597
1506.12109375 2.455841 1.572124 -0.883717
1506.8046875 2.429896 1.618199 -0.811697
1507.4375 2.583876 1.679208 -0.904668
1508.16015625 2.595473 1.540916 -1.054557
1508.85546875 2.478427 1.344803 -1.133624
1509.5 2.974888 1.88 -1.094888
1510.203125 2.742577 1.58954 -1.153037
1510.90234375 2.725976 1.506409 -1.219567
1511.6015625 2.733381 1.548381 -1.185
1512.2734375 2.558197 1.500479 -1.057718
1512.91796875 3.056241 2.072219 -0.984022
1513.625 2.778326 1.69 -1.088326
1514.1640625 2.758959 1.604103 -1.154856
1514.9296875 2.704447 1.698319 -1.006128
1515.4296875 1.96518 0.270862 -1.694318
1516.078125 1.8956719999999998 -0.105 -2.000672
1517.05078125 2.726613 1.637192 -1.089421
1517.76171875 2.637636 1.672264 -0.965372
1518.3359375 2.9547600000000003 2.00476 -0.95
1519.14453125 2.763707 1.894977 -0.86873
1519.8125 2.725162 1.850817 -0.874345
1520.4375 2.7270000000000003 1.767014 -0.959986
1521.171875 2.72256 1.785339 -0.937221
1521.87890625 2.643108 1.735364 -0.907744
1522.57421875 2.6757649999999997 1.959399 -0.716366
1523.27734375 2.633648 1.759723 -0.873925
1523.9375 2.608469 1.783469 -0.825
1524.62890625 2.625741 1.786901 -0.83884
1525.3515625 2.6196070000000002 1.824607 -0.795
1525.953125 2.760407 1.951076 -0.809331
1526.70703125 2.6711869999999998 1.898501 -0.772686
1527.40234375 2.7598599999999998 1.826875 -0.932985
1527.95703125 2.752189 1.864507 -0.887682
1528.78125 2.640833 1.801317 -0.839516
1529.46875 2.641262 1.712156 -0.929106
1529.984375 2.946316 2.025807 -0.920509
1530.80859375 2.609537 1.559404 -1.050133
1531.33203125 1.688506 0.178506 -1.51
1531.98828125 1.7484330000000001 -0.251638 -2.000071
1533.0625 2.668437 1.6695 -0.998937
1533.57421875 1.689557 0.299557 -1.39
1535.31640625 2.637555 1.763375 -0.87418
1536.08203125 2.5981560000000004 1.753899 -0.844257
1536.78125 2.590973 1.74859 -0.842383
1537.4921875 2.623444 1.918659 -0.704785
1538.20703125 2.574385 1.741422 -0.832963
1538.92578125 2.582355 1.798807 -0.783548
1539.6171875 2.587848 1.790723 -0.797125
1540.296875 2.47891 1.749473 -0.729437
1540.99609375 2.444994 1.76 -0.684994
1541.68359375 2.4084399999999997 1.798727 -0.609713
1542.21484375 2.8409809999999998 2.0776 -0.763381
1543.10546875 2.619876 1.829808 -0.790068
1543.8125 2.492655 1.749211 -0.743444
1544.31640625 2.774784 2.021347 -0.753437
1545.23046875 2.484699 1.804891 -0.679808
1545.94140625 2.443633 1.725871 -0.717762
1546.3984375 2.898243 2.193243 -0.705
1547.3515625 2.456652 1.736652 -0.72
1547.859375 1.5441669999999998 0.38 -1.164167
1548.59765625 1.526212 0.061218 -1.464994
1549.55078125 2.486496 1.868617 -0.617879
1550.21875 2.7369709999999996 2.097237 -0.639734
1550.75390625 2.319045 1.739827 -0.579218
1551.4609375 2.632617 1.939758 -0.692859
1551.98828125 1.544659 0.419719 -1.12494
1552.640625 2.893301 1.968317 -0.924984
1553.125 1.7720249999999997 0.58 -1.192025
1553.734375 2.963017 2.07 -0.893017
1554.83984375 2.657518 1.952729 -0.704789
1555.76171875 2.51746 1.812566 -0.704894
1556.33203125 2.908394 2.0568 -0.851594
1557.32421875 2.629133 1.769133 -0.86
1558.07421875 2.625912 1.831387 -0.794525
1558.61328125 2.633996 1.822773 -0.811223
1559.5703125 2.589488 1.805251 -0.784237
1560.26953125 2.539214 1.60497 -0.934244
1560.79296875 2.973859 2.073487 -0.900372
1561.69921875 2.5745780000000003 1.751745 -0.822833
1562.41796875 2.4208559999999997 1.636456 -0.7844
1562.96875 2.9776040000000004 1.981429 -0.996175
1563.80859375 2.688656 1.6948 -0.993856
1564.48828125 2.676349 1.869456 -0.806893
1565.03515625 2.847439 1.882439 -0.965
1565.8671875 2.621795 1.759818 -0.861977
1566.5625 2.657273 1.697273 -0.96
1567.09765625 3.060869 2.159306 -0.901563
1567.91796875 2.619465 1.789821 -0.829644
1568.62109375 2.477472 1.660368 -0.817104
1569.140625 2.794002 1.886016 -0.907986
1569.79296875 2.558678 1.715 -0.843678
1570.58203125 2.714433 1.945859 -0.768574
1571.31640625 2.676827 1.823731 -0.853096
1572.046875 2.554821 1.769821 -0.785
1572.73828125 2.633312 1.83527 -0.798042
1573.40234375 2.5273 1.772564 -0.754736
1574.08203125 2.30805 1.493851 -0.814199
1574.75 2.579262 1.72 -0.859262
1575.42578125 2.672983 1.877983 -0.795
1576.125 2.610973 1.785 -0.825973
1576.765625 2.566652 1.726734 -0.839918
1577.41796875 2.65965 1.780199 -0.879451
1578.1015625 2.5515179999999997 1.791518 -0.76
1578.796875 2.516094 1.711984 -0.80411
1579.45703125 2.595435 1.625558 -0.969877
1580.10546875 2.530251 1.619869 -0.910382
1580.76953125 2.54941 1.684858 -0.864552
1581.4375 2.57191 1.672283 -0.899627
1582.10546875 2.622377 1.71947 -0.902907
1582.80859375 2.541099 1.677699 -0.8634
1583.47265625 2.472593 1.589535 -0.883058
1584.1328125 2.524774 1.578573 -0.946201
1584.828125 2.598967 1.721086 -0.877881
1585.53125 2.663204 1.724883 -0.938321
1586.234375 2.711317 1.77562 -0.935697
1586.8984375 2.622916 1.793363 -0.829553
1587.5859375 2.607227 1.669155 -0.938072
1588.2734375 2.47454 1.581822 -0.892718
1588.97265625 2.534722 1.63459 -0.900132
1589.6640625 2.612578 1.774578 -0.838
1590.36328125 2.614996 1.792446 -0.82255
1591.0390625 2.696398 1.839486 -0.856912
1591.73828125 2.641634 1.831649 -0.809985
1592.4375 2.6384100000000004 1.7895 -0.84891
1593.12890625 2.653456 1.765969 -0.887487
1593.8125 2.549803 1.835152 -0.714651
1594.51171875 2.54688 1.691824 -0.855056
1595.21875 2.463656 1.807537 -0.656119
1595.9453125 2.548917 1.761761 -0.787156
1596.65234375 2.635334 1.797845 -0.837489
1597.36328125 2.5910260000000003 1.74817 -0.842856
1598.09375 2.637769 1.854668 -0.783101
1598.8515625 2.6694240000000002 1.884424 -0.785
1599.45703125 2.666688 1.856735 -0.809953
1600.0859375 2.482055 1.629955 -0.8521
1600.99609375 2.483763 1.593199 -0.890564
1601.61328125 2.170122 1.166878 -1.003244
1602.51171875 2.353505 1.603505 -0.75
1603.0234375 1.416226 0.209121 -1.207105
1603.703125 1.634014 0.016035 -1.617979
1604.72265625 2.473854 1.739726 -0.734128
1605.4765625 2.230952 1.455952 -0.775
1606.18359375 2.244066 1.499208 -0.744858
1606.89453125 2.38172 1.624794 -0.756926
1607.59765625 2.392307 1.6307 -0.761607
1608.3046875 2.5228729999999997 1.659276 -0.863597
1609.00390625 2.529621 1.619621 -0.91
1609.734375 2.571657 1.632719 -0.938938
1610.41796875 2.590578 1.680988 -0.90959
1611.10546875 2.620604 1.71984 -0.900764
1611.83203125 2.546049 1.704983 -0.841066
1612.53125 2.44741 1.582614 -0.864796
1613.1796875 2.432571 1.533453 -0.899118
1613.8984375 2.445651 1.594486 -0.851165
1614.6171875 2.521598 1.584621 -0.936977
1615.3046875 2.5821899999999998 1.722283 -0.859907
1616.01171875 2.605156 1.625156 -0.98
1616.70703125 2.627806 1.612951 -1.014855
1617.4140625 2.592713 1.609882 -0.982831
1618.08984375 2.5398 1.576873 -0.962927
1618.828125 2.534617 1.729635 -0.804982
1619.53125 2.459989 1.581154 -0.878835
1620.21875 2.4758050000000003 1.568173 -0.907632
1620.90625 2.486234 1.54415 -0.942084
1621.60546875 2.527364 1.609514 -0.91785
1622.30078125 2.578792 1.72482 -0.853972
1622.9921875 2.545461 1.688484 -0.856977
1623.6640625 2.545493 1.684445 -0.861048
1624.34765625 2.557981 1.59856 -0.959421
1625.015625 2.546301 1.591761 -0.95454
1625.7265625 2.586326 1.786326 -0.8
1626.41796875 2.6559049999999997 1.767407 -0.888498
1627.0859375 2.6261520000000003 1.804902 -0.82125
1627.7734375 2.475737 1.662224 -0.813513
1628.4765625 2.573807 1.729766 -0.844041
1629.17578125 2.667278 1.88233 -0.784948
1629.87890625 2.632308 1.782746 -0.849562
1630.37890625 2.51809 1.736554 -0.781536
1631.15625 2.5393220000000003 1.783584 -0.755738
1631.64453125 1.724962 0.349962 -1.375
1632.33984375 1.745645 0.045 -1.700645
1633.3203125 2.6446129999999997 1.820199 -0.824414
1634.00390625 2.511707 1.650397 -0.86131
1634.69921875 2.493534 1.669542 -0.823992
1635.3828125 2.455596 1.599104 -0.856492
1636.09765625 2.509544 1.720416 -0.789128
1636.79296875 2.53966 1.649997 -0.889663
1637.46875 2.4214160000000002 1.603328 -0.818088
1638.13671875 2.435136 1.585187 -0.849949
1638.83984375 2.429419 1.575615 -0.853804
1639.5234375 2.550841 1.784486 -0.766355
1640.203125 2.534144 1.719177 -0.814967
1640.6875 2.39969 1.552831 -0.846859
1641.4375 2.393032 1.549138 -0.843894
1641.91796875 1.654184 0.256151 -1.398033
1642.61328125 1.749415 -0.040585 -1.79
1643.55859375 2.53662 1.693997 -0.842623
1644.25 2.425 1.635 -0.79
1644.9140625 2.440214 1.567995 -0.872219
1645.53515625 2.350159 1.555823 -0.794336
1646.27734375 2.467966 1.761403 -0.706563
1646.98828125 2.488608 1.642275 -0.846333
1647.66015625 2.447298 1.589272 -0.858026
1648.3359375 2.4378770000000003 1.5699 -0.867977
1649.0 2.457898 1.53 -0.927898
1649.6875 2.402832 1.552548 -0.850284
1650.390625 2.474916 1.625 -0.849916
1651.0703125 2.473294 1.598147 -0.875147
1651.578125 2.481833 1.616906 -0.864927
1652.37890625 2.4175820000000003 1.637582 -0.78
1652.890625 1.5049489999999999 0.305 -1.199949
1653.5234375 1.487873 -0.050992 -1.538865
1654.53515625 2.454888 1.625 -0.829888
1655.0703125 1.496833 0.322167 -1.174666
1655.87890625 1.616641 -0.073177 -1.689818
1656.3984375 1.682664 0.348141 -1.334523
1657.375 2.4848619999999997 1.66 -0.824862
1657.84375 1.571505 0.213641 -1.357864
1658.78125 2.4342550000000003 1.659783 -0.774472
1659.27734375 1.406645 0.188877 -1.217768
1660.1875 2.230774 1.460875 -0.769899
1660.6484375 1.3613199999999999 0.146437 -1.214883
1661.5390625 2.3563289999999997 1.489067 -0.867262
1662.00390625 1.615283 0.213762 -1.401521
1662.9140625 2.459682 1.61985 -0.839832
1663.4140625 1.478629 0.20969 -1.268939
1664.296875 2.508512 1.582849 -0.925663
1664.7578125 1.492453 0.164105 -1.328348
1665.6875 2.4836169999999997 1.630857 -0.85276
1666.17578125 1.645145 0.271317 -1.373828
1667.1015625 2.5338950000000002 1.593895 -0.94
1667.58203125 1.445125 0.20779 -1.237335
1668.4765625 2.566717 1.584333 -0.982384
1668.953125 1.701865 0.231865 -1.47
1669.87890625 2.618731 1.789993 -0.828738
1670.359375 1.472157 0.225824 -1.246333
1671.2265625 2.521599 1.631599 -0.89
1671.71875 1.566087 0.192117 -1.37397
1672.65234375 2.483387 1.585 -0.898387
1673.1328125 1.608798 0.279275 -1.329523
1674.01953125 2.496874 1.604902 -0.891972
1674.5078125 1.457448 0.20334 -1.254108
1675.390625 2.467705 1.523047 -0.944658
1675.8828125 1.7603019999999998 0.267 -1.493302
1676.7890625 2.599276 1.732758 -0.866518
1677.26953125 1.453536 0.219994 -1.233542
1678.1171875 2.5129159999999997 1.662955 -0.849961
1678.62109375 1.61879 0.246936 -1.371854
1679.51171875 2.478528 1.613591 -0.864937
1680.01171875 1.554589 0.333229 -1.22136
1680.8671875 2.36425 1.483151 -0.881099
1681.35546875 1.508203 0.244994 -1.263209
1682.22265625 2.456849 1.646849 -0.81
1682.703125 1.6509049999999998 0.227798 -1.423107
1683.59375 2.595673 1.790673 -0.805
1684.0859375 1.469167 0.274951 -1.194216
1684.93359375 2.3705730000000003 1.537131 -0.833442
1685.4140625 1.57694 0.234674 -1.342266
1686.3046875 2.433788 1.592017 -0.841771
1686.80859375 1.598118 0.334304 -1.263814
1687.66796875 2.4837949999999998 1.639143 -0.844652
1688.1640625 1.472145 0.224701 -1.247444
1689.05078125 2.446994 1.516927 -0.930067
1689.53125 1.6244859999999999 0.235658 -1.388828
1690.44140625 2.479425 1.684013 -0.795412
1690.94140625 1.420563 0.284888 -1.135675
1691.796875 2.237148 1.494913 -0.742235
1692.30859375 1.451738 0.280829 -1.170909
1693.19140625 2.399179 1.599179 -0.8
1693.68359375 1.6397950000000001 0.38155 -1.258245
1694.5390625 2.4730469999999998 1.724411 -0.748636
1695.046875 1.3848989999999999 0.324798 -1.060101
1695.9296875 2.457316 1.706186 -0.75113
1696.43359375 1.4985810000000002 0.32946 -1.169121
1697.3046875 2.472326 1.738958 -0.733368
1697.80078125 1.586774 0.436774 -1.15
1698.6875 2.382914 1.649764 -0.73315
1699.203125 1.568932 0.235933 -1.332999
1700.0390625 2.424095 1.614242 -0.809853
1700.54296875 1.739782 0.37 -1.369782
1701.40234375 2.49527 1.737306 -0.757964
1701.9140625 1.535489 0.390544 -1.144945
1702.81640625 2.505869 1.665869 -0.84
1703.32421875 1.526968 0.329188 -1.19778
1704.17578125 2.448514 1.616518 -0.831996
1704.66796875 1.713772 0.31 -1.403772
1705.5390625 2.5610910000000002 1.699294 -0.861797
1706.05859375 1.484864 0.279877 -1.204987
1706.9140625 2.431007 1.5645 -0.866507
1707.3984375 1.610161 0.264883 -1.345278
1708.24609375 2.405907 1.545354 -0.860553
1708.7421875 1.6419279999999998 0.373287 -1.268641
1709.59765625 2.532699 1.648471 -0.884228
1710.10546875 1.484631 0.299978 -1.184653
1710.98046875 2.4914870000000002 1.654811 -0.836676
1711.44921875 1.646655 0.324034 -1.322621
1712.34765625 2.5179650000000002 1.787965 -0.73
1713.66015625 2.429974 1.620776 -0.809198
1714.39453125 2.396243 1.678958 -0.717285
1715.09375 2.481745 1.640108 -0.841637
1715.7734375 2.498771 1.71078 -0.787991
1716.4609375 2.599307 1.769307 -0.83
1717.1875 2.574178 1.749412 -0.824766
1717.86328125 2.577774 1.793532 -0.784242
1718.4140625 2.39182 1.614909 -0.776911
1719.203125 2.483437 1.63397 -0.849467
1719.96875 2.509384 1.654384 -0.855
1720.67578125 2.547286 1.725688 -0.821598
1721.3671875 2.498967 1.661057 -0.83791
1722.0546875 2.487939 1.709052 -0.778887
1722.5546875 2.470181 1.625743 -0.844438
1723.15625 1.636335 0.003281 -1.633054
1724.10546875 2.591995 1.714961 -0.877034
1724.8203125 2.534459 1.613967 -0.920492
1725.51171875 2.4231160000000003 1.631788 -0.791328
1726.234375 2.397992 1.501797 -0.896195
1726.953125 2.385379 1.537115 -0.848264
1727.65234375 2.498982 1.656631 -0.842351
1728.328125 2.419186 1.558452 -0.860734
1729.02734375 2.3961230000000002 1.567394 -0.828729
1729.72265625 2.419891 1.535985 -0.883906
1730.41015625 2.3546050000000003 1.528259 -0.826346
1731.11328125 2.433253 1.615343 -0.81791
1731.8046875 2.422642 1.538993 -0.883649
1732.48828125 2.45029 1.622671 -0.827619
1733.20703125 2.445608 1.585626 -0.859982
1733.91015625 2.452785 1.616421 -0.836364
1734.59765625 2.499738 1.660658 -0.83908
1735.28515625 2.42818 1.696135 -0.732045
1735.98828125 2.364963 1.583493 -0.78147
1736.6875 2.456846 1.667292 -0.789554
1737.40625 2.4984599999999997 1.69111 -0.80735
1738.09765625 2.495314 1.710314 -0.785
1738.78515625 2.496581 1.761135 -0.735446
1739.5078125 2.421775 1.676537 -0.745238
1740.22265625 2.414059 1.648951 -0.765108
1740.9296875 2.4724530000000002 1.660743 -0.81171
1741.4453125 2.35256 1.495038 -0.857522
1742.2265625 2.481621 1.721621 -0.76
1742.70703125 1.519438 0.314438 -1.205
1743.3515625 1.527339 -0.052631 -1.57997
1744.390625 2.477581 1.61267 -0.864911
1744.8828125 1.714345 0.309792 -1.404553
1745.63671875 1.922311 0.159124 -1.763187
1746.5078125 2.3742229999999998 1.549594 -0.824629
1747.203125 2.430376 1.541964 -0.888412
1747.87890625 2.4363 1.528162 -0.908138
1748.56640625 2.433224 1.554644 -0.87858
1749.24609375 2.383746 1.573821 -0.809925
1749.94140625 2.348724 1.558974 -0.78975
1750.65234375 2.497204 1.565348 -0.931856
1751.32421875 2.484525 1.58 -0.904525
1751.9921875 2.561564 1.741643 -0.819921
1752.6953125 2.523086 1.687568 -0.835518
1753.3984375 2.468604 1.648892 -0.819712
1754.08984375 2.4692499999999997 1.60367 -0.86558
1754.76953125 2.373133 1.559863 -0.81327
1755.47265625 2.461603 1.716175 -0.745428
1756.15625 2.4968909999999997 1.703488 -0.793403
1756.84765625 2.485852 1.741554 -0.744298
1757.546875 2.573073 1.784256 -0.788817
1758.08203125 2.364129 1.584293 -0.779836
1758.8515625 2.443372 1.623372 -0.82
1759.3671875 1.667418 0.383374 -1.284044
1760.0234375 1.5813599999999999 0.001523 -1.579837
1761.01171875 2.4441990000000002 1.63008 -0.814119
1761.69921875 2.3729620000000002 1.584106 -0.788856
1762.265625 2.380567 1.57094 -0.809627
1763.09765625 2.437262 1.657262 -0.78
1763.62890625 1.552858 0.43872 -1.114138
1764.2890625 1.531581 -0.045 -1.576581
1765.20703125 2.487395 1.631959 -0.855436
1765.9296875 2.4261660000000003 1.552569 -0.873597
1766.640625 2.399455 1.552829 -0.846626
1767.3515625 2.50038 1.65038 -0.85
1768.03125 2.455498 1.624207 -0.831291
1768.71484375 2.3631130000000002 1.468981 -0.894132
1769.390625 2.337028 1.477159 -0.859869
1770.09765625 2.303331 1.463331 -0.84
1770.78125 2.345093 1.416089 -0.929004
1771.453125 2.445882 1.629066 -0.816816
1772.140625 2.442921 1.617921 -0.825
1772.83203125 2.478973 1.629076 -0.849897
1773.52734375 2.5189079999999997 1.662418 -0.85649
1774.22265625 2.6200710000000003 1.668268 -0.951803
1774.9140625 2.536303 1.669854 -0.866449
1775.62109375 2.423161 1.593199 -0.829962
1776.31640625 2.067856 1.329172 -0.738684
1777.03515625 2.211557 1.456669 -0.754888
1777.734375 2.357965 1.532965 -0.825
1778.41796875 2.525857 1.662699 -0.863158
1779.1328125 2.667497 1.757843 -0.909654
1779.8515625 2.563951 1.703951 -0.86
1780.546875 2.615728 1.677253 -0.938475
1781.22265625 2.556251 1.715103 -0.841148
1781.94140625 2.408918 1.613918 -0.795
1782.63671875 2.435661 1.630774 -0.804887
1783.35546875 2.51688 1.694944 -0.821936
1784.07421875 2.590072 1.745766 -0.844306
1784.78125 2.520127 1.631609 -0.888518
1785.46484375 2.459859 1.663622 -0.796237
1786.1796875 2.57079 1.72319 -0.8476
1786.890625 2.548416 1.648468 -0.899948
1787.578125 2.590696 1.659918 -0.930778
1788.265625 2.5777330000000003 1.658001 -0.919732
1788.97265625 2.58106 1.756003 -0.825057
1789.6796875 2.589136 1.744136 -0.845
1790.37109375 2.493461 1.673091 -0.82037
1791.0703125 2.5489379999999997 1.699274 -0.849664
1791.75390625 2.639321 1.769333 -0.869988
1792.44140625 2.447386 1.713904 -0.733482
1793.15625 2.531899 1.700852 -0.831047
1793.72265625 1.633641 0.869664 -0.763977
1794.53125 2.348565 1.600918 -0.747647
1795.02734375 1.467743 0.404673 -1.06307
1795.65625 1.525488 0.003641 -1.521847
1796.65234375 2.364604 1.617902 -0.746702
1797.1796875 1.521271 0.309377 -1.211894
1797.94140625 1.989946 0.134946 -1.855
1798.7890625 2.623019 1.788068 -0.834951
1799.5 2.46 1.67 -0.79
1800.21875 2.4874709999999998 1.664942 -0.822529
1800.93359375 2.535693 1.702849 -0.832844
1801.6328125 2.493751 1.724601 -0.76915
1802.3359375 2.509178 1.744979 -0.764199
1803.03515625 2.387787 1.642787 -0.745
1803.75 2.440012 1.615 -0.825012
1804.4453125 2.445139 1.611891 -0.833248
