150 
479 
774 
1089 
1393 
1724 
2028 
2338 
2641 
2942 
3244 
3553 
3858 
4166 
4481 
4784 
5097 
5405 
5718 
6023 
6333 
6632 
6951 
7244 
7559 
7862 
8167 
8477 
8794 
9089 
9399 
9708 
10005 
10308 
10637 
10942 
11260 
11580 
11910 
12210 
12536 
12842 
13160 
13476 
13785 
14107 
14425 
14758 
15070 
15382 
15690 
16010 
16324 
16642 
16980 
17301 
17625 
17943 
18245 
18553 
18851 
19145 
19460 
19784 
20086 
20405 
20699 
21017 
21327 
21631 
21952 
22250 
22567 
22882 
23191 
23513 
23813 
24125 
24438 
24755 
25064 
25357 
25669 
26003 
26312 
26631 
26954 
27263 
27588 
27908 
28220 
28554 
28875 
29195 
29506 
29816 
30114 
30438 
30733 
31040 
31354 
31663 
31968 
32287 
32591 
32901 
33219 
33521 
33841 
34152 
34469 
34780 
35069 
35387 
35684 
36001 
36297 
36614 
36929 
37236 
37552 
37842 
38140 
38453 
38765 
39074 
39370 
39681 
39997 
40314 
40614 
40926 
41243 
41532 
41843 
42143 
42455 
42759 
43070 
43371 
43662 
43980 
44279 
44596 
44886 
45196 
45495 
45788 
46105 
46404 
46715 
47016 
47332 
47633 
47939 
48256 
48562 
48877 
49186 
49487 
49813 
50120 
50437 
50739 
51055 
51375 
51686 
51990 
52304 
52604 
52907 
53225 
53529 
53844 
54165 
54502 
54807 
55121 
55443 
55754 
56065 
56376 
56710 
57029 
57348 
57673 
57977 
58302 
58604 
58923 
59224 
59532 
59859 
60163 
60490 
60788 
61095 
61416 
61718 
62024 
62333 
62660 
62964 
63282 
63593 
63894 
64214 
64518 
64817 
65131 
65437 
65737 
66062 
66365 
66671 
66970 
67275 
67580 
67875 
68165 
68458 
68776 
69058 
69373 
69667 
69970 
70257 
70553 
70829 
71129 
71398 
71687 
71946 
72216 
72485 
72749 
73012 
73270 
73524 
73775 
74033 
74279 
74530 
74770 
75010 
75247 
75489 
75724 
75969 
76206 
76450 
76696 
76917 
77193 
77449 
77695 
77844 
78126 
78383 
78629 
78888 
79142 
79404 
79678 
79947 
80210 
80467 
80727 
80988 
81253 
81516 
81786 
82052 
82316 
82595 
82864 
83139 
83409 
83684 
83968 
84245 
84544 
84822 
85110 
85384 
85649 
85926 
86195 
86470 
86746 
87022 
87295 
87561 
87830 
88107 
88390 
88666 
88948 
89212 
89486 
89756 
90031 
90306 
90572 
90848 
91120 
91390 
91667 
91939 
92207 
92478 
92746 
93019 
93288 
93560 
93846 
94119 
94406 
94676 
94959 
95234 
95526 
95804 
96101 
96386 
96669 
96960 
97245 
97533 
97807 
98087 
98370 
98652 
98933 
99206 
99471 
99755 
100039 
100326 
100610 
100890 
101176 
101451 
101743 
102025 
102321 
102609 
102914 
103205 
103499 
103782 
104085 
104374 
104675 
104956 
105249 
105525 
105815 
106091 
106377 
106658 
106947 
107252 
107540 
107825 
108107 
108389 
108661 
108934 
109209 
109488 
109761 
110044 
110320 
110609 
110889 
111182 
111472 
111756 
112035 
112328 
112617 
112908 
113191 
113474 
113764 
114011 
114344 
114643 
114939 
115235 
115529 
115820 
116109 
116392 
116685 
116967 
117265 
117551 
117853 
118158 
118461 
118761 
119066 
119353 
119656 
119944 
120256 
120545 
120847 
121136 
121435 
121722 
122023 
122311 
122603 
122888 
123179 
123460 
123741 
124022 
124302 
124586 
124859 
125139 
125410 
125685 
125962 
126247 
126534 
126830 
127130 
127422 
127717 
128012 
128316 
128623 
128925 
129218 
129530 
129826 
130140 
130446 
130757 
131061 
131375 
131683 
131996 
132300 
132605 
132900 
133196 
133493 
133805 
134101 
134421 
134726 
135019 
135323 
135607 
135896 
136163 
136439 
136742 
137021 
137314 
137596 
137880 
138155 
138407 
138685 
138950 
139210 
139481 
139741 
140010 
140275 
140532 
140795 
141083 
141331 
141596 
141867 
142114 
142373 
142623 
142885 
143160 
143452 
143721 
144021 
144303 
144579 
144876 
145164 
145446 
145745 
146026 
146321 
146612 
146902 
147197 
147472 
147765 
148044 
148341 
148616 
148912 
149182 
149485 
149759 
150054 
150339 
150616 
150907 
151179 
151468 
151731 
152012 
152303 
152585 
152871 
153154 
153424 
153713 
153993 
154278 
154551 
154832 
155115 
155392 
155682 
155948 
156224 
156429 
156774 
157043 
157329 
157521 
157857 
158132 
158422 
158698 
158972 
159242 
159534 
159800 
160089 
160364 
160644 
160924 
161210 
161503 
161785 
162067 
162348 
162640 
162934 
163226 
163501 
163799 
164065 
164352 
164631 
164903 
165184 
165466 
165750 
166024 
166301 
166574 
166860 
167148 
167425 
167703 
167983 
168263 
168550 
168838 
169113 
169398 
169684 
169973 
170258 
170542 
170838 
171130 
171423 
171711 
172007 
172312 
172603 
172908 
173191 
173497 
173804 
174109 
174400 
174693 
174991 
175271 
175559 
175823 
176104 
176386 
176654 
176948 
177227 
177504 
177797 
178071 
178370 
178638 
178911 
179192 
179462 
179749 
180015 
180302 
180579 
180872 
181150 
181436 
181707 
181987 
182264 
182553 
182833 
183131 
183416 
183709 
184003 
184309 
184587 
184887 
185179 
185464 
185752 
186030 
186329 
186606 
186906 
187174 
187467 
187742 
188037 
188316 
188605 
188889 
189196 
189472 
189759 
190033 
190320 
190612 
190887 
191186 
191467 
191763 
192045 
192335 
192634 
192918 
193207 
193499 
193792 
194085 
194369 
194657 
194956 
195243 
195555 
195835 
196135 
196420 
196710 
197000 
197297 
197577 
197877 
198154 
198458 
198731 
199028 
199301 
199589 
199869 
200148 
200435 
200723 
201014 
201307 
201594 
201884 
202189 
202471 
202777 
203051 
203349 
203646 
203935 
204222 
204535 
204850 
205134 
205435 
205716 
206009 
206292 
206585 
206878 
207178 
207453 
207758 
208048 
208364 
208645 
208937 
209214 
209521 
209812 
210112 
210394 
210617 
210988 
211275 
211578 
211874 
212163 
212452 
212731 
213023 
213324 
213605 
213922 
214216 
214521 
214819 
215116 
215408 
215699 
215984 
216262 
216539 
216821 
217104 
217383 
217682 
217965 
218273 
218560 
218842 
219136 
219439 
219727 
220020 
220301 
220607 
220899 
221209 
221488 
221780 
222069 
222369 
222666 
222955 
223246 
223549 
223849 
224146 
224437 
224745 
225034 
225338 
225639 
225932 
226236 
226529 
226837 
227134 
227430 
227728 
228026 
228323 
228612 
228916 
229204 
229513 
229800 
230103 
230403 
230700 
231001 
231303 
231595 
231897 
232194 
232504 
232799 
233096 
233389 
233693 
233984 
234266 
234560 
234844 
235146 
235418 
235700 
235974 
236264 
236550 
236843 
237106 
237389 
237674 
237972 
238261 
238560 
238850 
239147 
239440 
239743 
240025 
240283 
240614 
240917 
241216 
241532 
241848 
242141 
242449 
242737 
243038 
243326 
243625 
243911 
244216 
244502 
244801 
245097 
245404 
245704 
246001 
246293 
246591 
246880 
247179 
247474 
247770 
248071 
248361 
248650 
248950 
249249 
249549 
249848 
250147 
250442 
250756 
251067 
251372 
251685 
251974 
252285 
252570 
252866 
253156 
253458 
253751 
254061 
254351 
254656 
254950 
255246 
255439 
255810 
256093 
256407 
256701 
257000 
257297 
257600 
257888 
258185 
258479 
258781 
259053 
259351 
259627 
259929 
260217 
260515 
260813 
261126 
261414 
261718 
262023 
262324 
262610 
262915 
263225 
263528 
263828 
264131 
264426 
264721 
265020 
265316 
265603 
265919 
266219 
266526 
266808 
267118 
267342 
267704 
267980 
268221 
268572 
268856 
269121 
269467 
269753 
269972 
270341 
270636 
270925 
271223 
271497 
271732 
271998 
272247 
272501 
272761 
273150 
273391 
273733 
274014 
274311 
274596 
274923 
275213 
275508 
275803 
276102 
276401 
276706 
276984 
277289 
277583 
277903 
278199 
278524 
278849 
279154 
279456 
279747 
280038 
280336 
280639 
280941 
281236 
281542 
281845 
282134 
282429 
282715 
283012 
283306 
283597 
283885 
284187 
284473 
284784 
285059 
285368 
285674 
285976 
286277 
286586 
286882 
287190 
287501 
287816 
288111 
288412 
288715 
289037 
289323 
289622 
289923 
290231 
290530 
290834 
291142 
291454 
291767 
292077 
292386 
292705 
293005 
293326 
293625 
293926 
294223 
294512 
294826 
295121 
295422 
295716 
296022 
296324 
296619 
296910 
297207 
297496 
297788 
298070 
298362 
298657 
298942 
299237 
299512 
299811 
300093 
300407 
300698 
301009 
301302 
301604 
301910 
302226 
302516 
302829 
303129 
303433 
303727 
304044 
304336 
304651 
304934 
305230 
305524 
305817 
306108 
306407 
306686 
306983 
307275 
307567 
307841 
308125 
308414 
308715 
309016 
309303 
309605 
309899 
310199 
310497 
310799 
311098 
311392 
311688 
311985 
312158 
312504 
312805 
313118 
313415 
313723 
314014 
314314 
314610 
314912 
315191 
315495 
315789 
316109 
316389 
316689 
316985 
317299 
317575 
317874 
318181 
318473 
318775 
319071 
319357 
319663 
319956 
320250 
320545 
320824 
321124 
321403 
321703 
321983 
322283 
322569 
322875 
323161 
323461 
323742 
324049 
324337 
324645 
324931 
325238 
325532 
325848 
326132 
326437 
326721 
327030 
327328 
327638 
327937 
328244 
328547 
328851 
329146 
329449 
329743 
330040 
330336 
330638 
330950 
331248 
331564 
331853 
332152 
332448 
332763 
333054 
333351 
333640 
333944 
334227 
334529 
334811 
335114 
335398 
335701 
335982 
336269 
336554 
336843 
337124 
337385 
337640 
337887 
338146 
338410 
338667 
338927 
339191 
339457 
339729 
340001 
340268 
340552 
340827 
341100 
341376 
341655 
341931 
342217 
342501 
342797 
343096 
343385 
343693 
343979 
344275 
344552 
344833 
345107 
345384 
345662 
345943 
346212 
346497 
346767 
347046 
347331 
347602 
347893 
348166 
348461 
348735 
349019 
349305 
349580 
349862 
350142 
350418 
350693 
350966 
351247 
351531 
351812 
352103 
352384 
352666 
352959 
353241 
353537 
353810 
354097 
354366 
354646 
354926 
355204 
355484 
355759 
356036 
356309 
356582 
356855 
357126 
357391 
357656 
357924 
358190 
358464 
358734 
359004 
359287 
359510 
359840 
360106 
360293 
360638 
360905 
361116 
361464 
361727 
361982 
362275 
362553 
362816 
363087 
363353 
363628 
363899 
364173 
364444 
364724 
364997 
365279 
365551 
365819 
366080 
366355 
366622 
366902 
367166 
367436 
367708 
367980 
368253 
368523 
368784 
369057 
369312 
369587 
369845 
370118 
370390 
370665 
370943 
371214 
371487 
371753 
372024 
372298 
372571 
372841 
373111 
373388 
373666 
373944 
374216 
374483 
374758 
375020 
375290 
375551 
375819 
376096 
376369 
376648 
376918 
377191 
377467 
377741 
378016 
378284 
378548 
378814 
379091 
379364 
379645 
379918 
380183 
380457 
380729 
381007 
381276 
381533 
381804 
382059 
382333 
382592 
382860 
383120 
383385 
383654 
383917 
384167 
384416 
384683 
384946 
385206 
385456 
385710 
385974 
386225 
386444 
386706 
386955 
387208 
387474 
387730 
387986 
388229 
388479 
388735 
388989 
389248 
389518 
389788 
390062 
390349 
390635 
390920 
391196 
391480 
391767 
392064 
392356 
392643 
392928 
393221 
393508 
393791 
394064 
394345 
394624 
394909 
395197 
395469 
395749 
396023 
396304 
396584 
396852 
397127 
397392 
397662 
397936 
398209 
398478 
398755 
399017 
399292 
399570 
399844 
400125 
400392 
400673 
400944 
401218 
401499 
401770 
401966 
402326 
402609 
402896 
403168 
403451 
403717 
403992 
404264 
404540 
404816 
405089 
405360 
405623 
405882 
406133 
406392 
406644 
406902 
407185 
407467 
407759 
408035 
408303 
408586 
408850 
409128 
409384 
409649 
409916 
410170 
410433 
410685 
410946 
411217 
411490 
411762 
412024 
412280 
412548 
412814 
413074 
413350 
413612 
413887 
414154 
414430 
414707 
414979 
415239 
415503 
415758 
416018 
416283 
416537 
416787 
417056 
417313 
417581 
417830 
418092 
418349 
418605 
418869 
419130 
419403 
419671 
419949 
420218 
420489 
420773 
421042 
421323 
421587 
421870 
422134 
422397 
422665 
422925 
423189 
423437 
423702 
423958 
424212 
424465 
424709 
424958 
425191 
425446 
425691 
425946 
426111 
426403 
426667 
426932 
427178 
427427 
427655 
427898 
428145 
428382 
428631 
428872 
429118 
429368 
429624 
429873 
430123 
430375 
430626 
430880 
431137 
431388 
431650 
431905 
432154 
432412 
432662 
432914 
433167 
433402 
433646 
433904 
434150 
434399 
434643 
434892 
435131 
435380 
435619 
435863 
436104 
436357 
436600 
436849 
437092 
437342 
437590 
437832 
438083 
438324 
438483 
438796 
439054 
439304 
439548 
439793 
440046 
440291 
440529 
440766 
441015 
441259 
441513 
441776 
442030 
442291 
442556 
442814 
443078 
443332 
443596 
443848 
444099 
444376 
444636 
444886 
445155 
445413 
445677 
445928 
446188 
446460 
446732 
447018 
447310 
447605 
447911 
448193 
448491 
448773 
449056 
449339 
449616 
449907 
450174 
450452 
450738 
451002 
451281 
451558 
451829 
452104 
452362 
452630 
452891 
453153 
453415 
453679 
453932 
454213 
454474 
454728 
454988 
455256 
455525 
455778 
456037 
456295 
456553 
456827 
457088 
457341 
457606 
457876 
458133 
458402 
458674 
458936 
459197 
459465 
459748 
460012 
460284 
460556 
460817 
461081 
461345 
461601 
461860 
462120 
