4.1171875 2.407826 1.821661 -0.586165
4.3828125 0.44428 0.129077 -0.315203
4.984375 2.425968 1.831934 -0.594034
5.91015625 2.318495 1.758495 -0.56
6.7890625 2.3916370000000002 1.824537 -0.5671
7.625 2.44225 1.855 -0.58725
8.45703125 2.3808939999999996 1.830712 -0.550182
9.296875 2.30515 1.792868 -0.512282
10.1328125 2.383795 1.789304 -0.594491
10.984375 2.181296 1.601618 -0.579678
11.8984375 2.390756 1.754802 -0.635954
12.8046875 2.400194 1.737395 -0.662799
13.71875 2.408952 1.821679 -0.587273
14.59765625 2.353275 1.888993 -0.464282
15.5 2.248738 1.645 -0.603738
16.3671875 2.343826 1.619188 -0.724638
17.26953125 2.443013 1.684877 -0.758136
18.203125 2.30062 1.63272 -0.6679
19.09375 2.475569 1.835921 -0.639648
19.94140625 2.442575 1.859015 -0.58356
20.78515625 2.276621 1.758532 -0.518089
21.61328125 2.481449 1.957654 -0.523795
22.4921875 2.442843 1.893065 -0.549778
23.3828125 2.343327 1.801768 -0.541559
24.27734375 2.2132430000000003 1.729869 -0.483374
25.16796875 2.47588 1.954108 -0.521772
26.00390625 2.470459 1.945459 -0.525
26.84375 2.354653 1.863103 -0.49155
27.67578125 2.324001 1.849078 -0.474923
28.5546875 2.429491 1.924491 -0.505
29.4375 2.410911 1.863125 -0.547786
30.30859375 2.237877 1.728969 -0.508908
31.17578125 2.315751 1.807401 -0.50835
32.00390625 2.427332 1.894126 -0.533206
32.7890625 2.503893 1.939572 -0.564321
33.6015625 2.277859 1.762911 -0.514948
34.43359375 2.342199 1.832199 -0.51
35.2734375 2.459173 1.891325 -0.567848
36.11328125 2.372032 1.842983 -0.529049
36.9453125 2.254946 1.815105 -0.439841
37.7734375 2.491798 1.942009 -0.549789
38.57421875 2.549154 1.934855 -0.614299
39.359375 2.439787 1.830108 -0.609679
40.171875 2.2974550000000002 1.729255 -0.5682
41.02734375 2.52596 1.931415 -0.594545
41.89453125 2.5096290000000003 1.949915 -0.559714
42.73046875 2.408307 1.829835 -0.578472
43.56640625 2.399296 1.834953 -0.564343
44.3828125 2.558861 1.964816 -0.594045
45.19140625 2.602705 2.043078 -0.559627
46.04296875 2.331646 1.853543 -0.478103
46.90625 2.3965389999999998 1.98596 -0.410579
47.83203125 2.450536 1.997001 -0.453535
48.7109375 2.373038 1.904238 -0.4688
49.55078125 2.449546 1.945099 -0.504447
50.40625 2.487387 1.927387 -0.56
51.23828125 2.436709 1.879218 -0.557491
52.0546875 2.3661 1.842177 -0.523923
52.9140625 2.492051 1.959006 -0.533045
53.796875 2.463941 1.893556 -0.570385
54.69140625 2.40552 1.849661 -0.555859
55.53125 2.430862 1.840862 -0.59
56.3515625 2.506449 1.887146 -0.619303
57.20703125 2.438606 1.820158 -0.618448
58.0390625 2.3779000000000003 1.814496 -0.563404
58.890625 2.5129409999999996 1.908 -0.604941
59.76953125 2.45083 1.8611 -0.58973
60.66015625 2.320986 1.730986 -0.59
61.4921875 2.343541 1.765751 -0.57779
62.2890625 2.381577 1.773591 -0.607986
63.1328125 2.342654 1.732389 -0.610265
63.96484375 2.260814 1.723534 -0.53728
64.796875 2.448782 1.867422 -0.58136
65.6640625 2.433807 1.857222 -0.576585
66.54296875 2.33294 1.76026 -0.57268
67.4140625 2.323441 1.803441 -0.52
68.2265625 2.427562 1.877562 -0.55
69.0546875 2.375228 1.796936 -0.578292
69.90625 2.312453 1.742453 -0.57
70.73828125 2.43447 1.847294 -0.587176
71.59375 2.433409 1.833523 -0.599886
72.453125 2.267175 1.731068 -0.536107
73.3046875 2.460862 1.880868 -0.579994
74.125 2.50706 1.885 -0.62206
74.9296875 2.4217180000000003 1.790397 -0.631321
75.7578125 2.299658 1.716052 -0.583606
76.59765625 2.428517 1.872688 -0.555829
77.4296875 2.364232 1.869496 -0.494736
78.296875 2.295739 1.764726 -0.531013
79.14453125 2.247632 1.634839 -0.612793
79.95703125 2.265 1.645 -0.62
80.734375 2.350083 1.735578 -0.614505
81.51171875 2.354145 1.729202 -0.624943
82.36328125 2.2549010000000003 1.613866 -0.641035
83.2109375 2.343121 1.687747 -0.655374
84.0546875 2.44935 1.810817 -0.638533
84.9296875 2.398384 1.793384 -0.605
85.77734375 2.323992 1.763992 -0.56
86.6171875 2.482804 1.883287 -0.599517
87.44140625 2.347246 1.74473 -0.602516
88.3125 2.32299 1.73316 -0.58983
89.21484375 2.340018 1.790018 -0.55
90.1015625 2.465461 1.892959 -0.572502
90.99609375 2.33796 1.808202 -0.529758
91.8515625 2.284449 1.819962 -0.464487
92.70703125 2.451918 1.916234 -0.535684
93.55078125 2.322113 1.73141 -0.590703
94.390625 2.258872 1.705498 -0.553374
95.30078125 2.4590490000000003 1.859078 -0.599971
96.1953125 2.380946 1.811168 -0.569778
97.05078125 2.2923679999999997 1.727368 -0.565
97.88671875 2.516 1.901012 -0.614988
98.7265625 2.445526 1.87112 -0.574406
99.57421875 2.347118 1.798649 -0.548469
100.4296875 2.381821 1.838518 -0.543303
101.32421875 2.492699 1.932723 -0.559976
102.234375 2.374485 1.802995 -0.57149
103.09765625 2.258568 1.704744 -0.553824
103.94140625 2.453719 1.864098 -0.589621
104.7734375 2.430129 1.866518 -0.563611
105.62890625 2.3172740000000003 1.774671 -0.542603
106.48046875 2.399508 1.899955 -0.499553
107.35546875 2.503938 1.904967 -0.598971
108.26171875 2.344806 1.784883 -0.559923
109.12109375 2.313898 1.91516 -0.398738
109.94140625 2.321136 1.912539 -0.408597
110.76171875 2.2039750000000002 1.69399 -0.509985
111.60546875 2.359075 1.744887 -0.614188
112.44921875 2.3761989999999997 1.7119 -0.664299
113.30078125 2.320997 1.721017 -0.59998
114.18359375 2.494494 1.923119 -0.571375
115.0390625 2.483624 1.904182 -0.579442
115.8515625 2.3545879999999997 1.802074 -0.552514
116.65625 2.370357 1.835357 -0.535
117.4609375 2.501201 1.954313 -0.546888
118.3125 2.400061 1.85914 -0.540921
119.171875 2.334951 1.758493 -0.576458
120.0078125 2.45029 1.838632 -0.611658
120.89453125 2.496097 1.86483 -0.631267
121.7421875 2.448651 1.794413 -0.654238
122.5390625 2.383378 1.774633 -0.608745
123.34375 2.535993 1.926557 -0.609436
124.1796875 2.540077 1.957383 -0.582694
125.04296875 2.462482 1.86349 -0.598992
125.8984375 2.360602 1.771657 -0.588945
126.74609375 2.503313 1.894015 -0.609298
127.58203125 2.521884 1.901884 -0.62
128.37890625 2.381663 1.813528 -0.568135
129.1640625 2.31825 1.804063 -0.514187
129.95703125 2.506936 1.953011 -0.553925
130.80859375 2.536464 1.929954 -0.60651
131.640625 2.421832 1.794732 -0.6271
132.453125 2.260237 1.706136 -0.554101
133.2734375 2.409636 1.908092 -0.501544
134.0625 2.4663839999999997 1.892361 -0.574023
134.8359375 2.348001 1.693416 -0.654585
135.62890625 2.293102 1.639298 -0.653804
136.4296875 2.385046 1.76 -0.625046
137.28515625 2.467802 1.817802 -0.65
138.1328125 2.463747 1.803588 -0.660159
138.95703125 2.326169 1.693913 -0.632256
139.79296875 2.3996440000000003 1.772644 -0.627
140.60546875 2.488693 1.829806 -0.658887
141.41015625 2.519934 1.86114 -0.658794
142.25 2.37707 1.73 -0.64707
143.109375 2.374197 1.764534 -0.609663
144.00390625 2.467577 1.825913 -0.641664
144.85546875 2.374203 1.789765 -0.584438
145.6875 2.292117 1.724412 -0.567705
146.52734375 2.4463790000000003 1.880397 -0.565982
147.34765625 2.478972 1.864597 -0.614375
148.15625 2.333614 1.743614 -0.59
149.00390625 2.2757519999999998 1.712314 -0.563438
149.8671875 2.4102230000000002 1.840378 -0.569845
150.7109375 2.4884269999999997 1.974173 -0.514254
151.53125 2.354518 1.854518 -0.5
152.3359375 2.3145540000000002 1.769554 -0.545
153.12890625 2.458854 1.872387 -0.586467
153.91796875 2.497125 1.871619 -0.625506
154.73828125 2.3571020000000003 1.781225 -0.575877
155.5703125 2.224209 1.687399 -0.53681
156.40234375 2.400951 1.861162 -0.539789
157.1953125 2.3693679999999997 1.894491 -0.474877
157.95703125 2.410555 1.887255 -0.5233
158.7421875 2.421584 1.776663 -0.644921
159.5546875 2.328953 1.648953 -0.68
160.3828125 2.466375 1.82 -0.646375
161.26171875 2.466793 1.93531 -0.531483
162.15625 2.432553 1.891974 -0.540579
163.0625 2.342326 1.752696 -0.58963
163.95703125 2.497357 1.877542 -0.619815
164.84375 2.457766 1.872266 -0.5855
165.72265625 2.393871 1.874278 -0.519593
166.60546875 2.354947 1.759947 -0.595
167.48828125 2.508537 1.813537 -0.695
168.3984375 2.385743 1.812532 -0.573211
169.28515625 2.445762 1.851177 -0.594585
170.12890625 2.394106 1.822153 -0.571953
170.94140625 2.544848 1.999848 -0.545
171.796875 2.483983 1.978872 -0.505111
172.66796875 2.387788 1.89521 -0.492578
173.5390625 2.343009 1.869371 -0.473638
174.42578125 2.514148 1.999478 -0.51467
175.296875 2.434733 1.894733 -0.54
176.1484375 2.296331 1.807029 -0.489302
176.97265625 2.480145 1.946113 -0.534032
177.84375 2.431376 1.896376 -0.535
178.76953125 2.320463 1.834902 -0.485561
179.67578125 2.450822 1.930868 -0.519954
180.59375 2.363362 1.841844 -0.521518
181.46484375 2.31498 1.78998 -0.525
182.33203125 2.597003 2.055513 -0.54149
183.16796875 2.62573 2.082806 -0.542924
184.0 2.51998 1.98 -0.53998
184.92578125 2.510952 1.954592 -0.55636
185.82421875 2.622492 1.994702 -0.62779
186.6953125 2.433866 1.828918 -0.604948
187.56640625 2.449903 1.832838 -0.617065
188.421875 2.59582 1.97225 -0.62357
189.26953125 2.579746 2.004746 -0.575
190.1171875 2.458762 1.908762 -0.55
191.03515625 2.590701 2.005701 -0.585
191.953125 2.500923 1.891125 -0.609798
192.85546875 2.5899330000000003 1.974933 -0.615
193.72265625 2.557937 1.943485 -0.614452
194.58984375 2.543087 1.97367 -0.569417
195.45703125 2.493537 1.890624 -0.602913
196.33203125 2.492799 1.853277 -0.639522
197.25 2.43751 1.815 -0.62251
198.18359375 2.4754110000000003 1.909056 -0.566355
199.0859375 2.541154 1.969562 -0.571592
199.94921875 2.5259929999999997 1.941371 -0.584622
200.796875 2.581971 1.992576 -0.589395
201.6640625 2.433193 1.833389 -0.599804
202.51953125 2.522292 1.944814 -0.577478
203.4140625 2.510765 1.873976 -0.636789
204.33203125 2.360703 1.766669 -0.594034
205.1875 2.441948 1.843006 -0.598942
206.015625 2.507389 1.871604 -0.635785
206.83203125 2.340841 1.776784 -0.564057
207.68359375 2.235522 1.715817 -0.519705
208.53515625 2.470091 1.925091 -0.545
209.38671875 2.3760529999999997 1.84953 -0.526523
210.28515625 2.214957 1.729957 -0.485
211.14453125 2.475615 1.969892 -0.505723
211.9453125 2.502746 1.932982 -0.569764
212.76171875 2.332339 1.809218 -0.523121
213.5859375 2.234277 1.724238 -0.510039
214.42578125 2.513232 1.948253 -0.564979
215.28125 2.485 1.885 -0.6
216.1484375 2.322763 1.785 -0.537763
217.015625 2.3806249999999998 1.836175 -0.54445
217.8203125 2.49339 1.917391 -0.575999
218.60546875 2.4080909999999998 1.818398 -0.589693
219.40625 2.311059 1.775282 -0.535777
220.25 2.422723 1.845 -0.577723
221.09765625 2.443606 1.857772 -0.585834
221.93359375 2.33417 1.779852 -0.554318
222.796875 2.32874 1.854368 -0.474372
223.62890625 2.4204879999999998 1.907092 -0.513396
224.42578125 2.360833 1.740618 -0.620215
225.23828125 2.360681 1.808345 -0.552336
226.0390625 2.321138 1.901138 -0.42
226.9140625 2.184018 1.819018 -0.365
227.765625 2.3243 1.792991 -0.531309
228.58984375 2.384179 1.730938 -0.653241
229.4609375 2.357738 1.704731 -0.653007
230.2890625 2.365057 1.758666 -0.606391
231.078125 2.557048 1.943904 -0.613144
231.90234375 2.427307 1.817794 -0.609513
232.74609375 2.349797 1.797136 -0.552661
233.62109375 2.498364 1.928579 -0.569785
234.45703125 2.32711 1.784587 -0.542523
235.2734375 2.349504 1.780335 -0.569169
236.08984375 2.466139 1.847806 -0.618333
236.875 2.495 1.88 -0.615
237.6328125 2.329193 1.753928 -0.575265
238.43359375 2.412411 1.798324 -0.614087
239.26953125 2.33599 1.691575 -0.644415
240.11328125 2.48577 1.827529 -0.658241
240.9296875 2.395326 1.742645 -0.652681
241.734375 2.475095 1.781498 -0.693597
242.53125 2.337903 1.715 -0.622903
243.30859375 2.4462099999999998 1.819067 -0.627143
244.08984375 2.478002 1.837802 -0.6402
244.90625 2.356575 1.726575 -0.63
245.75 2.37225 1.77 -0.60225
246.58203125 2.4604150000000002 1.840146 -0.620269
247.37890625 2.51609 1.9 -0.61609
248.16796875 2.34314 1.74125 -0.60189
248.96875 2.2270209999999997 1.680726 -0.546295
249.74609375 2.45388 1.846132 -0.607748
250.54296875 2.489346 1.862402 -0.626944
251.37890625 2.363396 1.78 -0.583396
252.23046875 2.442421 1.86085 -0.581571
253.06640625 2.514728 1.889728 -0.625
253.85546875 2.453489 1.854796 -0.598693
254.65234375 2.302876 1.764728 -0.538148
255.4609375 2.502383 1.92909 -0.573293
256.2578125 2.353795 1.86851 -0.485285
257.0859375 2.218961 1.699979 -0.518982
257.921875 2.271096 1.642279 -0.628817
258.7578125 2.4309469999999997 1.758969 -0.671978
259.55859375 2.4714400000000003 1.81644 -0.655
260.33203125 2.287885 1.703815 -0.58407
261.125 2.323822 1.76 -0.563822
261.9140625 2.532523 1.998122 -0.534401
262.7109375 2.487267 2.019636 -0.467631
263.54296875 2.30747 1.768795 -0.538675
264.34765625 2.266063 1.589273 -0.67679
265.15625 2.484353 1.782928 -0.701425
265.8984375 2.4819370000000003 1.822616 -0.659321
266.60546875 2.429341 1.714769 -0.714572
267.328125 2.30567 1.546942 -0.758728
268.0859375 2.494989 1.78 -0.714989
268.86328125 2.624482 1.999482 -0.625
269.6640625 2.507969 1.9938 -0.514169
270.48828125 2.282547 1.888955 -0.393592
271.31640625 2.329351 1.964846 -0.364505
272.140625 2.4912129999999997 2.108014 -0.383199
272.93359375 2.472442 2.104375 -0.368067
273.76953125 2.281024 1.909938 -0.371086
274.67578125 2.273975 1.893975 -0.38
275.5234375 2.365286 1.92638 -0.438906
276.375 2.318527 1.865 -0.453527
277.23828125 2.197419 1.71906 -0.478359
278.078125 2.333055 1.834285 -0.49877
278.89453125 2.476854 1.959964 -0.51689
279.6953125 2.378807 1.893959 -0.484848
280.56640625 2.234063 1.759709 -0.474354
281.46484375 2.327271 1.84494 -0.482331
282.33984375 2.337965 1.858157 -0.479808
283.22265625 2.342496 1.838398 -0.504098
284.08984375 2.193262 1.732905 -0.460357
284.9453125 2.1832450000000003 1.752779 -0.430466
285.79296875 2.2592529999999997 1.744514 -0.514739
286.671875 2.248584 1.68402 -0.564564
287.578125 2.227912 1.668138 -0.559774
288.46484375 2.3421760000000003 1.752731 -0.589445
289.3515625 2.312186 1.672699 -0.639487
290.2109375 2.217887 1.656157 -0.56173
291.0859375 2.418263 1.841713 -0.57655
291.93359375 2.408786 1.86951 -0.539276
292.8203125 2.312306 1.802592 -0.509714
293.7734375 2.442838 1.918526 -0.524312
294.67578125 2.29789 1.812936 -0.484954
295.55078125 2.1887600000000003 1.728811 -0.459949
296.40625 2.3456040000000002 1.915604 -0.43
297.27734375 2.20933 1.848237 -0.361093
298.15625 2.183488 1.741983 -0.441505
299.03515625 2.393039 1.756483 -0.636556
299.984375 2.343922 1.66165 -0.682272
300.890625 2.271678 1.633006 -0.638672
301.71875 2.4325419999999998 1.797542 -0.635
302.5625 2.4199640000000002 1.755714 -0.66425
303.4140625 2.329871 1.686126 -0.643745
304.2734375 2.2424749999999998 1.604957 -0.637518
305.13671875 2.390815 1.780815 -0.61
306.03515625 2.383416 1.873416 -0.51
306.9140625 2.327358 1.782554 -0.544804
307.7578125 2.236773 1.603286 -0.633487
308.58203125 2.273992 1.554009 -0.719983
309.4140625 2.529239 1.834909 -0.69433
310.29296875 2.497118 1.872118 -0.625
311.171875 2.338616 1.759417 -0.579199
312.0546875 2.245972 1.716749 -0.529223
312.94140625 2.467362 1.932778 -0.534584
313.78125 2.462471 1.915625 -0.546846
314.60546875 2.410546 1.839781 -0.570765
315.44140625 2.309484 1.764243 -0.545241
316.32421875 2.451699 1.912895 -0.538804
317.23046875 2.323271 1.833723 -0.489548
318.12890625 2.204123 1.751202 -0.452921
319.0546875 2.439599 1.944612 -0.494987
319.93359375 2.421337 1.912845 -0.508492
320.76953125 2.3126040000000003 1.829924 -0.48268
321.6171875 2.30186 1.82715 -0.47471
322.48828125 2.430065 1.933999 -0.496066
323.3828125 2.421342 1.888428 -0.532914
324.265625 2.24273 1.727838 -0.514892
325.14453125 2.339983 1.779983 -0.56
325.99609375 2.473563 1.874209 -0.599354
326.828125 2.437092 1.832408 -0.604684
327.66796875 2.254631 1.705608 -0.549023
328.53515625 2.293998 1.779053 -0.514945
329.4375 2.434453 1.905597 -0.528856
330.3203125 2.416511 1.911648 -0.504863
331.1953125 2.293844 1.823785 -0.470059
332.05859375 2.393265 1.913699 -0.479566
332.8828125 2.4852440000000002 1.945313 -0.539931
333.70703125 2.348424 1.853867 -0.494557
334.5546875 2.203788 1.72428 -0.479508
335.44140625 2.424522 1.899901 -0.524621
336.32421875 2.4362630000000003 1.832508 -0.603755
337.1640625 2.383604 1.754859 -0.628745
337.99609375 2.242044 1.647236 -0.594808
338.8125 2.450869 1.8352 -0.615669
339.61328125 2.50357 1.86857 -0.635
340.45703125 2.324985 1.746486 -0.578499
341.31640625 2.287851 1.692851 -0.595
342.19140625 2.397602 1.808961 -0.588641
343.03125 2.444335 1.814335 -0.63
343.82421875 2.393487 1.76 -0.633487
344.6484375 2.284607 1.67004 -0.614567
345.44921875 2.38238 1.787478 -0.594902
346.2421875 2.519498 1.854579 -0.664919
347.08203125 2.442125 1.764242 -0.677883
347.93359375 2.124181 1.564905 -0.559276
348.78125 2.3099119999999997 1.734912 -0.575
349.59375 2.423522 1.783571 -0.639951
350.3984375 2.429357 1.711634 -0.717723
351.23828125 2.330799 1.656995 -0.673804
352.0859375 2.408448 1.70425 -0.704198
352.953125 2.338225 1.665192 -0.673033
353.84375 2.3958180000000002 1.816818 -0.579
354.76171875 2.429382 1.789225 -0.640157
355.63671875 2.34829 1.688347 -0.659943
356.46484375 2.362779 1.730674 -0.632105
357.328125 2.4038329999999997 1.754039 -0.649794
358.1953125 2.273088 1.605055 -0.668033
359.078125 2.411908 1.769804 -0.642104
359.9609375 2.349404 1.759317 -0.590087
360.8359375 2.274617 1.758094 -0.516523
361.69140625 2.4521300000000004 1.812245 -0.639885
362.5 2.378585 1.805 -0.573585
363.31640625 2.329473 1.689828 -0.639645
364.1796875 2.29054 1.591831 -0.698709
365.02734375 2.5503080000000002 1.81091 -0.739398
365.875 2.499953 1.83 -0.669953
366.7421875 2.40355 1.78374 -0.61981
367.60546875 2.334352 1.784795 -0.549557
368.41796875 2.545253 1.96053 -0.584723
369.21875 2.490198 1.900251 -0.589947
370.05078125 2.41826 1.820835 -0.597425
370.8828125 2.237851 1.737851 -0.5
371.69140625 2.415232 1.832512 -0.58272
372.47265625 2.493824 1.87504 -0.618784
373.24609375 2.449776 1.831287 -0.618489
374.03125 2.302788 1.697788 -0.605
374.8125 2.394853 1.806025 -0.588828
375.63671875 2.5300130000000003 1.905019 -0.624994
376.546875 2.47289 1.864391 -0.608499
377.5 2.227441 1.69 -0.537441
378.421875 2.32555 1.817991 -0.507559
379.34375 2.456602 1.898576 -0.558026
380.265625 2.357177 1.807635 -0.549542
381.171875 2.242606 1.661808 -0.580798
382.0625 2.462308 1.877308 -0.585
383.0390625 2.507796 1.909882 -0.597914
383.984375 2.228345 1.633547 -0.594798
384.88671875 2.286857 1.732315 -0.554542
385.76171875 2.386852 1.811908 -0.574944
386.640625 2.310222 1.734617 -0.575605
387.51953125 2.245964 1.664965 -0.580999
388.38671875 2.318006 1.790019 -0.527987
389.3203125 2.435739 1.850739 -0.585
390.25 2.41435 1.85 -0.56435
391.12890625 2.284268 1.715164 -0.569104
391.98828125 2.4093839999999997 1.9 -0.509384
392.84765625 2.430353 1.871405 -0.558948
393.71875 2.3706899999999997 1.807224 -0.563466
394.58203125 2.2942649999999998 1.892661 -0.401604
395.48828125 2.277961 1.823277 -0.454684
396.39453125 2.2791069999999998 1.723873 -0.555234
397.25390625 2.193091 1.587279 -0.605812
398.09375 2.346856 1.625189 -0.721667
398.9296875 2.4289709999999998 1.675 -0.753971
399.78125 2.348261 1.613261 -0.735
400.61328125 2.287064 1.605293 -0.681771
401.46875 2.455299 1.795049 -0.66025
402.3671875 2.498163 1.818577 -0.679586
403.21484375 2.316742 1.705212 -0.61153
404.03515625 2.238321 1.65825 -0.580071
404.83984375 2.454244 1.869391 -0.584853
405.68359375 2.487708 1.883177 -0.604531
406.5546875 2.382159 1.837159 -0.545
407.42578125 2.25858 1.743674 -0.514906
408.31640625 2.455141 1.864032 -0.591109
409.21484375 2.472955 1.867955 -0.605
410.0546875 2.323864 1.774919 -0.548945
410.90234375 2.4491449999999997 1.892278 -0.556867
411.7578125 2.442305 1.88273 -0.559575
412.66015625 2.408949 1.82323 -0.585719
413.5546875 2.259502 1.718985 -0.540517
414.4375 2.451651 1.879215 -0.572436
415.34765625 2.511513 1.917353 -0.59416
416.19921875 2.295236 1.714237 -0.580999
417.02734375 2.396392 1.803546 -0.592846
417.88671875 2.552759 1.911349 -0.64141
418.7890625 2.437198 1.80424 -0.632958
419.68359375 2.275195 1.698847 -0.576348
420.5546875 2.496937 1.90198 -0.594957
421.4375 2.447667 1.876667 -0.571
422.265625 2.317296 1.763097 -0.554199
423.078125 2.288402 1.720179 -0.568223
423.890625 2.532884 1.905161 -0.627723
424.76171875 2.512229 1.847275 -0.664954
425.6796875 2.38783 1.79246 -0.59537
426.56640625 2.309919 1.800875 -0.509044
427.44921875 2.393886 1.919587 -0.474299
428.30859375 2.466951 2.003074 -0.463877
429.14453125 2.466028 1.989916 -0.476112
430.015625 2.3250290000000002 1.917828 -0.407201
430.90234375 2.426968 1.973865 -0.453103
431.828125 2.506269 2.008159 -0.49811
432.71875 2.3093 1.804492 -0.504808
433.5546875 2.351217 1.891481 -0.459736
434.421875 2.46217 1.96217 -0.5
435.25390625 2.34628 1.819721 -0.526559
436.08203125 2.306349 1.745581 -0.560768
436.9609375 2.371177 1.78473 -0.586447
437.87109375 2.383476 1.838526 -0.54495
438.74609375 2.402219 1.852265 -0.549954
439.5859375 2.302167 1.761975 -0.540192
440.42578125 2.304193 1.711154 -0.593039
441.24609375 2.377517 1.777616 -0.599901
442.06640625 2.359989 1.758786 -0.601203
442.94140625 2.388048 1.774271 -0.613777
443.84375 2.4845610000000002 1.905472 -0.579089
444.7578125 2.40287 1.900761 -0.502109
445.6171875 2.280281 1.829812 -0.450469
446.484375 2.307515 1.78441 -0.523105
447.3671875 2.378394 1.8371 -0.541294
448.23828125 2.326458 1.779522 -0.546936
449.1484375 2.295231 1.771564 -0.523667
450.06640625 2.300107 1.750485 -0.549622
451.00390625 2.317432 1.742432 -0.575
451.87890625 2.381301 1.821301 -0.56
452.71875 2.2592239999999997 1.726333 -0.532891
453.58984375 2.207531 1.620678 -0.586853
454.44140625 2.424305 1.884599 -0.539706
455.296875 2.397851 1.837226 -0.560625
456.17578125 2.232656 1.689162 -0.543494
457.04296875 2.20283 1.682001 -0.520829
457.859375 2.431121 1.896897 -0.534224
458.66015625 2.331099 1.79693 -0.534169
459.4921875 2.220881 1.692526 -0.528355
460.3359375 2.363747 1.792197 -0.57155
461.19140625 2.348103 1.764239 -0.583864
462.0703125 2.43605 1.817186 -0.618864
462.94921875 2.290048 1.687445 -0.602603
463.79296875 2.214612 1.588767 -0.625845
464.59765625 2.404771 1.785474 -0.619297
465.41015625 2.41107 1.793077 -0.617993
466.28515625 2.191394 1.561586 -0.629808
467.15234375 2.373103 1.76925 -0.603853
468.01171875 2.410965 1.832246 -0.578719
468.87109375 2.278331 1.695723 -0.582608
469.73828125 2.198337 1.598894 -0.599443
470.58203125 2.410895 1.81268 -0.598215
471.40625 2.396144 1.799171 -0.596973
472.28515625 2.213508 1.658508 -0.555
473.19140625 2.303752 1.837888 -0.465864
474.0703125 2.332397 1.78758 -0.544817
474.9609375 2.297706 1.714444 -0.583262
475.80859375 2.213153 1.614856 -0.598297
476.64453125 2.391304 1.774995 -0.616309
477.46484375 2.452597 1.8108 -0.641797
478.3046875 2.344484 1.725951 -0.618533
479.22265625 2.368052 1.756194 -0.611858
480.1015625 2.534449 1.941918 -0.592531
480.953125 2.51813 1.909295 -0.608835
481.8203125 2.464896 1.890076 -0.57482
482.6796875 2.560441 1.99147 -0.568971
483.5234375 2.619475 2.044741 -0.574734
484.36328125 2.438543 1.844113 -0.59443
485.26953125 2.3749890000000002 1.769989 -0.605
486.15234375 2.6052530000000003 1.941489 -0.663764
487.00390625 2.59387 1.925664 -0.668206
487.8359375 2.444619 1.82467 -0.619949
488.65234375 2.496318 1.876697 -0.619621
489.4765625 2.6380120000000002 2.004468 -0.633544
490.30078125 2.5332149999999998 1.883236 -0.649979
491.1640625 2.472621 1.879628 -0.592993
492.046875 2.584914 2.015246 -0.569668
492.8984375 2.6293360000000003 2.033704 -0.595632
493.71875 2.518588 1.914952 -0.603636
494.51953125 2.395467 1.815296 -0.580171
495.328125 2.5525029999999997 1.992503 -0.56
496.13671875 2.5572470000000003 2.017275 -0.539972
496.953125 2.51607 1.967216 -0.548854
497.81640625 2.426129 1.824848 -0.601281
498.68359375 2.455508 1.835508 -0.62
499.50390625 2.590322 1.958648 -0.631674
500.3359375 2.500918 1.908587 -0.592331
501.18359375 2.400509 1.861367 -0.539142
502.05078125 2.441252 1.906264 -0.534988
502.94140625 2.478349 1.924404 -0.553945
503.83203125 2.348862 1.773905 -0.574957
504.76171875 2.302366 1.776942 -0.525424
505.6328125 2.464277 1.944289 -0.519988
506.4609375 2.384416 1.869979 -0.514437
507.31640625 2.249248 1.764875 -0.484373
508.19140625 2.4397539999999998 1.974165 -0.465589
509.06640625 2.4869969999999997 1.963318 -0.523679
509.94140625 2.392553 1.857553 -0.535
510.85546875 2.274048 1.729943 -0.544105
511.6953125 2.3800160000000004 1.8501 -0.529916
512.51171875 2.398055 1.855659 -0.542396
513.34765625 2.290746 1.749018 -0.541728
514.19921875 2.375699 1.839688 -0.536011
515.09765625 2.438022 1.863073 -0.574949
515.97265625 2.3696900000000003 1.794739 -0.574951
516.84375 2.260863 1.707879 -0.552984
517.703125 2.50177 1.907935 -0.593835
518.5234375 2.477968 1.873679 -0.604289
519.37109375 2.327927 1.778023 -0.549904
520.2265625 2.322641 1.812966 -0.509675
521.12890625 2.480959 1.918254 -0.562705
522.01953125 2.345835 1.770835 -0.575
522.8828125 2.258422 1.709814 -0.548608
523.75390625 2.447002 1.857684 -0.589318
524.5859375 2.533846 1.884471 -0.649375
525.39453125 2.3187420000000003 1.694978 -0.623764
526.25 2.350295 1.76 -0.590295
527.140625 2.479679 1.889659 -0.59002
528.02734375 2.48733 1.891571 -0.595759
528.8984375 2.2859160000000003 1.679728 -0.606188
529.7734375 2.346728 1.762407 -0.584321
530.62890625 2.425236 1.819236 -0.606
531.484375 2.334494 1.734823 -0.599671
532.36328125 2.295971 1.712188 -0.583783
533.265625 2.355353 1.880413 -0.47494
534.2109375 2.3816230000000003 1.869121 -0.512502
535.09375 2.313256 1.7189 -0.594356
535.953125 2.475178 1.820759 -0.654419
536.82421875 2.481715 1.818682 -0.663033
537.6875 2.354318 1.65625 -0.698068
538.5859375 2.3730539999999998 1.689695 -0.683359
539.50390625 2.4047330000000002 1.707159 -0.697574
540.44921875 2.3735299999999997 1.683671 -0.689859
541.34765625 2.261223 1.613641 -0.647582
542.1953125 2.424972 1.800089 -0.624883
543.09765625 2.485211 1.825 -0.660211
543.97265625 2.3987439999999998 1.716124 -0.68262
544.8671875 2.302347 1.657498 -0.644849
545.7890625 2.491042 1.882924 -0.608118
546.71484375 2.491879 1.8805 -0.611379
547.59765625 2.3439259999999997 1.753129 -0.590797
548.4375 2.30205 1.694189 -0.607861
549.3046875 2.502884 1.908951 -0.593933
550.171875 2.504572 1.904066 -0.600506
551.03515625 2.294092 1.715127 -0.578965
551.9296875 2.402645 1.832645 -0.57
552.8203125 2.4349749999999997 1.830053 -0.604922
553.671875 2.324335 1.709431 -0.614904
554.49609375 2.335035 1.76016 -0.574875
555.33984375 2.482284 1.857797 -0.624487
556.19921875 2.333879 1.728963 -0.604916
557.08203125 2.310065 1.74153 -0.568535
557.9765625 2.448065 1.833685 -0.61438
558.8515625 2.363715 1.795645 -0.56807
559.7265625 2.375577 1.851606 -0.523971
560.5546875 2.431572 1.859096 -0.572476
561.390625 2.262665 1.703882 -0.558783
562.28515625 2.41237 1.848293 -0.564077
563.16796875 2.371538 1.738871 -0.632667
564.05859375 2.248401 1.623826 -0.624575
564.93359375 2.418974 1.833974 -0.585
565.8046875 2.388093 1.783105 -0.604988
566.63671875 2.301425 1.745491 -0.555934
567.4375 2.267322 1.764978 -0.502344
568.2890625 2.429589 1.929589 -0.5
569.1796875 2.3519959999999998 1.812034 -0.539962
570.046875 2.288005 1.739824 -0.548181
570.91015625 2.474672 1.891624 -0.583048
571.7734375 2.483105 1.883784 -0.599321
572.625 2.418665 1.84 -0.578665
573.48046875 2.296142 1.781142 -0.515
574.34765625 2.475076 1.932909 -0.542167
575.25 2.325379 1.84 -0.485379
576.1328125 2.447898 1.943622 -0.504276
577.0 2.4598079999999998 1.875 -0.584808
577.83984375 2.432582 1.792582 -0.64
578.6875 2.565058 1.912353 -0.652705
579.5 2.499808 1.865 -0.634808
580.328125 2.404211 1.799645 -0.604566
581.23046875 2.428737 1.86492 -0.563817
582.09375 2.562599 2.005484 -0.557115
582.93359375 2.431723 1.883117 -0.548606
583.75390625 2.449671 1.854671 -0.595
584.55859375 2.5929159999999998 1.9927 -0.600216
585.37890625 2.515949 1.902093 -0.613856
586.1953125 2.335366 1.790634 -0.544732
587.015625 2.521152 1.982348 -0.538804
587.87890625 2.568633 2.041284 -0.527349
588.69921875 2.463981 1.960249 -0.503732
589.484375 2.345291 1.801006 -0.544285
590.26171875 2.546646 1.986658 -0.559988
591.04296875 2.5998390000000002 2.026276 -0.573563
591.84375 2.478675 1.956413 -0.522262
592.66015625 2.343554 1.824468 -0.519086
593.5078125 2.544496 2.034815 -0.509681
594.37109375 2.598953 2.0682 -0.530753
595.19921875 2.448199 1.954467 -0.493732
596.00390625 2.313086 1.774879 -0.538207
596.8125 2.433182 1.905298 -0.527884
597.6484375 2.52104 1.941154 -0.579886
598.4921875 2.3540080000000003 1.822758 -0.53125
599.3515625 2.499815 1.990145 -0.50967
600.26171875 2.347327 1.90217 -0.445157
601.125 2.335 1.93 -0.405
601.953125 2.333549 1.898295 -0.435254
602.77734375 2.4232650000000002 1.965777 -0.457488
603.61328125 2.308856 1.828228 -0.480628
604.49609375 2.255049 1.785174 -0.469875
605.37109375 2.448379 1.985078 -0.463301
606.26171875 2.447753 1.902759 -0.544994
607.1640625 2.333028 1.809958 -0.52307
607.98828125 2.470509 1.945735 -0.524774
608.8125 2.468965 1.940789 -0.528176
609.64453125 2.368986 1.849764 -0.519222
610.515625 2.273904 1.773387 -0.500517
611.390625 2.465954 1.950995 -0.514959
612.2421875 2.457022 1.911471 -0.545551
613.13671875 2.38312 1.851683 -0.531437
613.98046875 2.335 1.845 -0.49
614.7734375 2.495895 2.010418 -0.485477
615.6015625 2.4115670000000002 1.911904 -0.499663
616.46875 2.293454 1.810329 -0.483125
617.3515625 2.406296 1.897464 -0.508832
618.22265625 2.476905 1.922764 -0.554141
619.109375 2.388101 1.863405 -0.524696
619.95703125 2.296656 1.827402 -0.469254
620.77734375 2.463369 1.943369 -0.52
621.61328125 2.492667 1.93378 -0.558887
622.46484375 2.368288 1.835272 -0.533016
623.375 2.375215 1.85 -0.525215
624.25 2.488262 1.935 -0.553262
625.1015625 2.424224 1.852464 -0.57176
625.96875 2.273073 1.740226 -0.532847
626.78515625 2.431971 1.908022 -0.523949
627.59375 2.494769 1.936115 -0.558654
628.43359375 2.352108 1.792247 -0.559861
629.3046875 2.2335789999999998 1.690046 -0.543533
630.16796875 2.458228 1.846471 -0.611757
630.99609375 2.467695 1.852298 -0.615397
631.80859375 2.36325 1.7298 -0.63345
632.640625 2.287717 1.655 -0.632717
633.4296875 2.329538 1.725867 -0.603671
634.2265625 2.419473 1.791369 -0.628104
635.0859375 2.429182 1.797692 -0.63149
635.9765625 2.289878 1.685352 -0.604526
636.8515625 2.245481 1.640481 -0.605
637.671875 2.441278 1.869432 -0.571846
638.5078125 2.50964 1.939617 -0.570023
639.34375 2.359004 1.774124 -0.58488
640.16015625 2.235725 1.620466 -0.615259
641.00390625 2.452801 1.857339 -0.595462
641.86328125 2.473531 1.893877 -0.579654
642.72265625 2.348252 1.768872 -0.57938
643.5390625 2.2622780000000002 1.64169 -0.620588
644.34375 2.424294 1.794607 -0.629687
645.1796875 2.5089639999999997 1.848152 -0.660812
646.0078125 2.345072 1.720085 -0.624987
646.875 2.435589 1.92 -0.515589
647.78125 2.431067 1.901067 -0.53
648.68359375 2.442936 1.899001 -0.543935
649.59765625 2.3667100000000003 1.81 -0.55671
650.42578125 2.35039 1.800411 -0.549979
651.30078125 2.264833 1.776829 -0.488004
652.1796875 2.4373050000000003 1.942401 -0.494904
653.05859375 2.428403 1.923308 -0.505095
653.953125 2.259807 1.775097 -0.48471
654.82421875 2.449116 1.973709 -0.475407
655.69140625 2.485709 2.00474 -0.480969
656.515625 2.318163 1.834162 -0.484001
657.34375 2.230683 1.757092 -0.473591
658.2109375 2.45582 1.972243 -0.483577
659.078125 2.482418 1.974548 -0.50787
659.94921875 2.34421 1.848654 -0.495556
660.8203125 2.286848 1.797194 -0.489654
661.671875 2.415112 2.016753 -0.398359
662.484375 2.389359 1.945565 -0.443794
663.2890625 2.202037 1.719045 -0.482992
664.16015625 2.1927339999999997 1.652782 -0.539952
665.03515625 2.3971929999999997 1.832193 -0.565
665.89453125 2.39932 1.8711 -0.52822
666.76171875 2.217986 1.718762 -0.499224
667.625 2.231289 1.775 -0.456289
668.45703125 2.337526 1.881365 -0.456161
669.2734375 2.409081 1.894792 -0.514289
670.1328125 2.280156 1.785511 -0.494645
671.02734375 2.250422 1.765422 -0.485
671.9140625 2.379362 1.869828 -0.509534
672.80859375 2.290706 1.752403 -0.538303
673.65625 2.167556 1.663951 -0.503605
674.49609375 2.290763 1.810809 -0.479954
675.3046875 2.362496 1.829165 -0.533331
676.12109375 2.229471 1.744412 -0.485059
677.01171875 2.26214 1.74 -0.52214
677.890625 2.36445 1.784863 -0.579587
678.734375 2.386944 1.772636 -0.614308
679.5859375 2.279814 1.694878 -0.584936
680.4296875 2.233198 1.720235 -0.512963
681.265625 2.402307 1.873202 -0.529105
682.11328125 2.2842219999999998 1.760765 -0.523457
683.00390625 2.208311 1.678793 -0.529518
683.91015625 2.2810989999999998 1.777907 -0.503192
684.78125 2.463443 1.927724 -0.535719
685.625 2.393426 1.855 -0.538426
686.44921875 2.2717460000000003 1.770437 -0.501309
687.2890625 2.4625440000000003 1.933869 -0.528675
688.109375 2.473779 1.874237 -0.599542
688.97265625 2.286317 1.71452 -0.571797
689.890625 2.258367 1.690961 -0.567406
690.765625 2.444455 1.866769 -0.577686
691.609375 2.446074 1.841164 -0.60491
692.453125 2.320634 1.736362 -0.584272
693.3203125 2.384952 1.845 -0.539952
694.2109375 2.478926 1.899507 -0.579419
695.1015625 2.273387 1.693387 -0.58
696.0390625 2.352077 1.811123 -0.540954
696.94921875 2.404965 1.849216 -0.555749
697.796875 2.348535 1.778684 -0.569851
698.63671875 2.271883 1.712499 -0.559384
699.48046875 2.442213 1.889941 -0.552272
700.35546875 2.5265 1.919848 -0.606652
701.25 2.395238 1.84 -0.555238
702.16015625 2.3058 1.7908 -0.515
703.05859375 2.508409 1.988878 -0.519531
703.90234375 2.438214 1.894423 -0.543791
704.734375 2.302074 1.762995 -0.539079
705.58203125 2.4179340000000002 1.878853 -0.539081
706.453125 2.457672 1.84815 -0.609522
707.32421875 2.372907 1.781082 -0.591825
708.19921875 2.284793 1.776362 -0.508431
709.09765625 2.4843789999999997 1.959566 -0.524813
709.921875 2.522701 1.964526 -0.558175
710.73828125 2.352134 1.802566 -0.549568
711.56640625 2.273103 1.718328 -0.554775
712.44140625 2.386619 1.829083 -0.557536
713.328125 2.438103 1.844216 -0.593887
714.21484375 2.2763489999999997 1.718279 -0.55807
715.11328125 2.340618 1.805709 -0.534909
715.97265625 2.4809520000000003 1.926069 -0.554883
716.80078125 2.46192 1.901979 -0.559941
717.66796875 2.252579 1.726841 -0.525738
718.53125 2.343613 1.85679 -0.486823
719.43359375 2.424815 1.894954 -0.529861
720.31640625 2.25015 1.786724 -0.463426
721.171875 2.128799 1.726568 -0.402231
722.03515625 2.354345 1.825377 -0.528968
722.859375 2.389104 1.755077 -0.634027
723.6796875 2.290024 1.624929 -0.665095
724.54296875 2.213159 1.590666 -0.622493
725.44140625 2.426087 1.783396 -0.642691
726.32421875 2.481568 1.847399 -0.634169
727.1796875 2.249747 1.674479 -0.575268
728.04296875 2.253315 1.653542 -0.599773
728.85546875 2.496306 1.894816 -0.60149
729.66796875 2.482184 1.927046 -0.555138
730.515625 2.35795 1.801641 -0.556309
731.3984375 2.2691850000000002 1.732852 -0.536333
732.2890625 2.445646 1.902722 -0.542924
733.13671875 2.445868 1.855898 -0.58997
733.9765625 2.3590079999999998 1.789008 -0.57
734.82421875 2.216061 1.689216 -0.526845
735.66015625 2.464283 1.929981 -0.534302
736.51953125 2.494989 1.949989 -0.545
737.421875 2.323998 1.843147 -0.480851
738.34765625 2.214579 1.755925 -0.458654
739.22265625 2.38316 1.84328 -0.53988
740.0546875 2.4242239999999997 1.768946 -0.655278
740.9296875 2.281742 1.608105 -0.673637
741.76171875 2.372941 1.735131 -0.63781
742.59765625 2.4919029999999998 1.832396 -0.659507
743.47265625 2.3597 1.730044 -0.629656
744.359375 2.281565 1.668314 -0.613251
745.2265625 2.4922779999999998 1.862833 -0.629445
746.046875 2.526736 1.869918 -0.656818
746.8671875 2.3852320000000002 1.725378 -0.659854
747.703125 2.297077 1.712925 -0.584152
748.5234375 2.45855 1.87375 -0.5848
749.38671875 2.518527 1.889582 -0.628945
750.26171875 2.395108 1.766888 -0.62822
751.14453125 2.359325 1.709642 -0.649683
751.95703125 2.477391 1.861448 -0.615943
752.75390625 2.517833 1.864227 -0.653606
753.60546875 2.414948 1.779948 -0.635
754.45703125 2.347439 1.754513 -0.592926
755.3125 2.462989 1.838333 -0.624656
756.18359375 2.502822 1.844562 -0.65826
757.05859375 2.391244 1.772999 -0.618245
757.90234375 2.349151 1.73106 -0.618091
758.71484375 2.498642 1.853392 -0.64525
759.55859375 2.493709 1.849905 -0.643804
760.43359375 2.355898 1.694569 -0.661329
761.30859375 2.4161010000000003 1.778723 -0.637378
762.2109375 2.462359 1.844289 -0.61807
763.10546875 2.420219 1.801402 -0.618817
763.98046875 2.326657 1.731657 -0.595
764.80859375 2.448313 1.871704 -0.576609
765.640625 2.488742 1.875179 -0.613563
766.5625 2.354069 1.750625 -0.603444
767.48046875 2.3653 1.7803 -0.585
768.328125 2.494449 1.854918 -0.639531
769.1796875 2.430251 1.800092 -0.630159
770.015625 2.31796 1.799659 -0.518301
770.8046875 2.263295 1.734548 -0.528747
771.58984375 2.463759 1.893759 -0.57
772.44140625 2.504387 1.90909 -0.595297
773.32421875 2.367456 1.786402 -0.581054
774.21484375 2.317518 1.688714 -0.628804
775.09375 2.434093 1.863309 -0.570784
775.953125 2.511905 1.87309 -0.638815
776.828125 2.473723 1.894648 -0.579075
777.6875 2.32385 1.76125 -0.5626
778.609375 2.225049 1.646942 -0.578107
779.55078125 2.4068 1.834375 -0.572425
780.4609375 2.439979 1.839979 -0.6
781.37109375 2.274886 1.664946 -0.60994
782.2421875 2.283817 1.683248 -0.600569
783.125 2.418182 1.89 -0.528182
784.0078125 2.415012 1.951461 -0.463551
784.9140625 2.25685 1.764683 -0.492167
785.86328125 2.198276 1.626915 -0.571361
786.7578125 2.358053 1.785867 -0.572186
787.640625 2.420121 1.82501 -0.595111
788.51171875 2.331142 1.749072 -0.58207
789.39453125 2.301777 1.749818 -0.551959
790.265625 2.410998 1.867675 -0.543323
791.17578125 2.501846 1.916907 -0.584939
792.1171875 2.3013890000000004 1.744023 -0.557366
793.01953125 2.2245679999999997 1.674802 -0.549766
793.87109375 2.3620389999999998 1.846472 -0.515567
794.73046875 2.3861239999999997 1.886124 -0.5
795.6171875 2.270021 1.770021 -0.5
796.5 2.2402699999999998 1.74 -0.50027
797.3984375 2.414423 1.949846 -0.464577
798.34375 2.472611 1.982758 -0.489853
799.22265625 2.328438 1.823489 -0.504949
800.07421875 2.2457409999999998 1.736999 -0.508742
800.92578125 2.363479 1.893525 -0.469954
801.8125 2.439373 1.925949 -0.513424
802.71484375 2.3779339999999998 1.853259 -0.524675
803.625 2.284598 1.765 -0.519598
804.5703125 2.3642760000000003 1.891229 -0.473047
805.44921875 2.472807 1.969972 -0.502835
806.2890625 2.427408 1.94315 -0.484258
807.140625 2.3065629999999997 1.809278 -0.497285
807.99609375 2.266475 1.736472 -0.530003
808.88671875 2.464251 1.943986 -0.520265
809.78125 2.464933 1.919933 -0.545
810.6796875 2.2749059999999997 1.840094 -0.434812
811.56640625 2.309209 1.894604 -0.414605
812.390625 2.4370209999999997 1.888159 -0.548862
813.23046875 2.410797 1.789832 -0.620965
814.10546875 2.3499030000000003 1.704903 -0.645
815.0234375 2.371705 1.698186 -0.673519
815.921875 2.537277 1.865424 -0.671853
816.8046875 2.494932 1.864408 -0.630524
817.69140625 2.382879 1.773219 -0.60966
818.51953125 2.2794090000000002 1.671364 -0.608045
819.33203125 2.4692610000000004 1.846348 -0.622913
820.17578125 2.425641 1.830449 -0.595192
821.08203125 2.350483 1.760581 -0.589902
821.96484375 2.226615 1.642765 -0.58385
822.82421875 2.435267 1.83986 -0.595407
823.703125 2.543247 1.934737 -0.60851
824.546875 2.512041 1.916416 -0.595625
825.3671875 2.338492 1.773803 -0.564689
826.22265625 2.208172 1.655009 -0.553163
827.10546875 2.487012 1.914756 -0.572256
828.01953125 2.549937 1.969937 -0.58
828.91015625 2.378857 1.80079 -0.578067
829.765625 2.227881 1.72565 -0.502231
830.62890625 2.414615 1.904448 -0.510167
831.4609375 2.4637789999999997 1.839162 -0.624617
832.34375 2.297807 1.69293 -0.604877
833.25390625 2.42213 1.869786 -0.552344
834.171875 2.4674709999999997 1.952486 -0.514985
835.05078125 2.402165 1.747255 -0.65491
835.90234375 2.292646 1.613484 -0.679162
836.765625 2.461712 1.823512 -0.6382
837.60546875 2.543583 1.924836 -0.618747
838.453125 2.4088089999999998 1.824782 -0.584027
839.34765625 2.3775180000000002 1.849871 -0.527647
840.2734375 2.474421 1.910752 -0.563669
841.1484375 2.360423 1.781678 -0.578745
841.9921875 2.439581 1.819724 -0.619857
842.87109375 2.492263 1.832568 -0.659695
843.7265625 2.389357 1.740069 -0.649288
844.5859375 2.5479789999999998 1.944162 -0.603817
845.484375 2.414112 1.830053 -0.584059
846.40234375 2.351706 1.803636 -0.54807
847.296875 2.421325 1.935371 -0.485954
848.140625 2.405237 1.911963 -0.493274
849.01171875 2.403288 1.893324 -0.509964
849.90234375 2.305523 1.832484 -0.473039
850.796875 2.373681 1.904609 -0.469072
851.73046875 2.450098 1.969989 -0.480109
852.65234375 2.3695079999999997 1.893554 -0.475954
853.55859375 2.249284 1.776694 -0.47259
854.390625 2.319609 1.852283 -0.467326
855.2265625 2.309762 1.92363 -0.386132
856.1015625 2.3413340000000002 1.923264 -0.41807
856.9765625 2.27 1.77 -0.5
857.8671875 2.222314 1.69775 -0.524564
858.75390625 2.4061690000000002 1.908195 -0.497974
859.63671875 2.40381 1.935006 -0.468804
860.47265625 2.328179 1.806707 -0.521472
861.3203125 2.230057 1.69801 -0.532047
862.22265625 2.3780140000000003 1.87219 -0.505824
863.125 2.466989 1.895 -0.571989
864.03515625 2.325936 1.792249 -0.533687
864.9453125 2.233897 1.757306 -0.476591
865.84375 2.41258 1.914247 -0.498333
866.72265625 2.356153 1.847038 -0.509115
867.57421875 2.242638 1.767937 -0.474701
868.5 2.205706 1.645 -0.560706
869.40625 2.385363 1.710363 -0.675
870.3203125 2.354092 1.611734 -0.742358
871.28515625 2.331085 1.681085 -0.65
872.203125 2.436541 1.848047 -0.588494
873.09765625 2.39112 1.796394 -0.594726
873.97265625 2.3222430000000003 1.768145 -0.554098
874.91796875 2.454075 1.951759 -0.502316
875.84765625 2.498377 1.9638 -0.534577
876.75390625 2.370084 1.845403 -0.524681
877.65625 2.305219 1.793513 -0.511706
878.53515625 2.478791 1.948791 -0.53
879.37890625 2.451777 1.898486 -0.553291
880.265625 2.300548 1.765874 -0.534674
881.21484375 2.4455340000000003 1.913159 -0.532375
882.15234375 2.4924969999999997 1.97131 -0.521187
883.0625 2.250318 1.821077 -0.429241
883.94921875 2.293142 1.829228 -0.463914
884.859375 2.401773 1.827722 -0.574051
885.75 2.32428 1.715 -0.60928
886.62890625 2.299748 1.714042 -0.585706
887.578125 2.519863 1.921394 -0.598469
888.484375 2.3903559999999997 1.815678 -0.574678
889.3671875 2.2641400000000003 1.679413 -0.584727
890.2265625 2.425761 1.853386 -0.572375
891.1015625 2.509343 1.907833 -0.60151
891.98828125 2.393605 1.792529 -0.601076
892.8828125 2.27365 1.689392 -0.584258
893.8359375 2.44677 1.862222 -0.584548
894.75390625 2.463862 1.82 -0.643862
895.61328125 2.361452 1.73087 -0.630582
896.47265625 2.2841519999999997 1.669152 -0.615
897.33203125 2.385 1.8 -0.585
898.20703125 2.547823 1.888965 -0.658858
899.11328125 2.415679 1.810741 -0.604938
900.05859375 2.2412270000000003 1.714852 -0.526375
900.9765625 2.352156 1.845481 -0.506675
901.828125 2.514516 1.948418 -0.566098
902.66015625 2.374094 1.8822 -0.491894
903.5078125 2.2323530000000003 1.753297 -0.479056
904.34765625 2.314644 1.765238 -0.549406
905.16796875 2.528865 1.830923 -0.697942
906.0 2.524808 1.85 -0.674808
906.8515625 2.404094 1.714568 -0.689526
907.66015625 2.253745 1.602965 -0.65078
908.453125 2.519419 1.859039 -0.66038
909.2734375 2.519113 1.915057 -0.604056
910.140625 2.42438 1.874487 -0.549893
911.046875 2.265764 1.730764 -0.535
911.94140625 2.339382 1.829796 -0.509586
912.875 2.495969 1.985 -0.510969
913.7734375 2.4319420000000003 1.946269 -0.485673
914.6328125 2.277139 1.788702 -0.488437
915.50390625 2.199225 1.737419 -0.461806
916.3984375 2.374641 1.93228 -0.442361
917.3359375 2.386702 1.89425 -0.492452
918.23828125 2.2213130000000003 1.66917 -0.552143
919.12109375 2.1142510000000003 1.544272 -0.569979
919.9765625 2.3470269999999998 1.83321 -0.513817
920.76953125 2.339633 1.795 -0.544633
921.58984375 2.250357 1.657223 -0.593134
922.4375 2.20745 1.572708 -0.634742
923.328125 2.3260490000000003 1.699224 -0.626825
924.21484375 2.440443 1.807373 -0.63307
925.08984375 2.467476 1.813278 -0.654198
925.98046875 2.304855 1.714855 -0.59
926.828125 2.206731 1.566864 -0.639867
927.671875 2.376876 1.781148 -0.595728
928.55078125 2.3982069999999998 1.783254 -0.614953
929.48046875 2.353107 1.76 -0.593107
930.36328125 2.188021 1.612228 -0.575793
931.19921875 2.346963 1.777692 -0.569271
932.06640625 2.349824 1.831699 -0.518125
932.8984375 2.330994 1.847293 -0.483701
933.73828125 2.209333 1.608886 -0.600447
934.62109375 2.273381 1.585229 -0.688152
935.5234375 2.3675420000000003 1.732815 -0.634727
936.4453125 2.266219 1.723558 -0.542661
937.31640625 2.15735 1.572989 -0.584361
938.1796875 2.437428 1.812461 -0.624967
939.046875 2.545944 1.850944 -0.695
939.91015625 2.414407 1.754407 -0.66
940.8359375 2.519494 1.954494 -0.565
941.7578125 2.4886749999999997 1.998675 -0.49
942.69140625 2.4092189999999998 1.91 -0.499219
943.60546875 2.3182720000000003 1.714811 -0.603461
944.4921875 2.476947 1.792062 -0.684885
945.4140625 2.5550450000000002 1.784091 -0.770954
946.328125 2.454687 1.65708 -0.797607
947.26171875 2.476468 1.773048 -0.70342
948.19921875 2.629867 2.030022 -0.599845
949.140625 2.41556 1.927439 -0.488121
950.0078125 2.314207 1.896837 -0.41737
950.8984375 2.551533 2.1494 -0.402133
951.79296875 2.4637179999999996 2.063995 -0.399723
952.703125 2.356835 1.92 -0.436835
953.6328125 2.529107 2.085293 -0.443814
954.55078125 2.6012589999999998 2.111264 -0.489995
955.46484375 2.499031 2.030231 -0.4688
956.328125 2.320025 1.865881 -0.454144
957.19140625 2.564637 2.060876 -0.503761
958.0625 2.56626 2.056639 -0.509621
958.94140625 2.433467 1.88438 -0.549087
959.8515625 2.295083 1.75286 -0.542223
960.73828125 2.55312 1.926829 -0.626291
961.61328125 2.560237 1.919681 -0.640556
962.44921875 2.4863239999999998 1.834148 -0.652176
963.2734375 2.319969 1.681236 -0.638733
964.1484375 2.519401 1.92 -0.599401
965.05078125 2.597011 1.977704 -0.619307
965.94921875 2.4561830000000002 1.852667 -0.603516
966.87890625 2.4260990000000002 1.827314 -0.598785
967.8125 2.534688 1.965382 -0.569306
968.703125 2.4183019999999997 1.918618 -0.499684
969.58984375 2.353818 1.950802 -0.403016
970.53125 2.213862 1.776429 -0.437433
971.4609375 2.444229 1.794292 -0.649937
972.38671875 2.372987 1.606313 -0.766674
973.28515625 2.28023 1.550533 -0.729697
974.16015625 2.48443 1.855792 -0.628638
975.01171875 2.574897 1.98496 -0.589937
975.84765625 2.413332 1.909035 -0.504297
976.7734375 2.3296270000000003 1.827557 -0.50207
977.6640625 2.523723 1.993183 -0.53054
978.53515625 2.4900900000000004 2.017002 -0.473088
979.40234375 2.353638 1.759732 -0.593906
980.25390625 2.429722 1.666326 -0.763396
981.09375 2.541122 1.712935 -0.828187
981.9296875 2.4242280000000003 1.664287 -0.759941
982.81640625 2.387922 1.69859 -0.689332
983.73046875 2.529946 1.823701 -0.706245
984.625 2.437588 1.79 -0.647588
985.49609375 2.261406 1.706842 -0.554564
986.3359375 2.489941 1.784854 -0.705087
987.18359375 2.531662 1.683266 -0.848396
988.02734375 2.353789 1.607093 -0.746696
988.90625 2.423887 1.773887 -0.65
989.82421875 2.6384600000000002 1.984725 -0.653735
990.71875 2.499832 1.916645 -0.583187
991.58203125 2.295477 1.798684 -0.496793
992.4140625 2.503537 2.012729 -0.490808
993.2890625 2.553935 2.064539 -0.489396
994.140625 2.39783 1.89791 -0.49992
995.015625 2.246724 1.731774 -0.51495
995.95703125 2.448995 1.930013 -0.518982
996.84375 2.4618919999999997 1.925362 -0.53653
997.70703125 2.3669409999999997 1.797408 -0.569533
998.546875 2.283257 1.702046 -0.581211
999.40625 2.4940990000000003 1.862065 -0.632034
1000.27734375 2.396751 1.792666 -0.604085
1001.15625 2.3116120000000002 1.771612 -0.54
1002.08984375 2.403212 1.894164 -0.509048
1003.0 2.407143 1.905 -0.502143
1003.875 2.274641 1.81 -0.464641
1004.73828125 2.383174 1.87975 -0.503424
1005.59765625 2.442994 1.868962 -0.574032
1006.51171875 2.325412 1.755481 -0.569931
1007.421875 2.411277 1.873951 -0.537326
1008.33984375 2.4788769999999998 1.877367 -0.60151
1009.26171875 2.370142 1.804871 -0.565271
1010.1328125 2.35152 1.834997 -0.516523
1010.9921875 2.45629 1.932009 -0.524281
1011.8828125 2.322057 1.788091 -0.533966
1012.8046875 2.311762 1.791801 -0.519961
1013.7109375 2.431111 1.842977 -0.588134
1014.6484375 2.337154 1.724381 -0.612773
1015.55859375 2.378682 1.738682 -0.64
1016.40625 2.510947 1.905947 -0.605
1017.265625 2.413742 1.835842 -0.5779
1018.15234375 2.3251660000000003 1.857088 -0.468078
1019.0625 2.424803 1.897353 -0.52745
1019.9453125 2.461815 1.937065 -0.52475
1020.828125 2.305624 1.834517 -0.471107
1021.69921875 2.234736 1.637128 -0.597608
1022.5 2.483641 1.75 -0.733641
1023.31640625 2.4840079999999998 1.738039 -0.745969
1024.16796875 2.344773 1.64205 -0.702723
1025.0625 2.292097 1.637097 -0.655
1025.9375 2.477456 1.827597 -0.649859
1026.80078125 2.465153 1.825221 -0.639932
1027.68359375 2.315057 1.700379 -0.614678
1028.51953125 2.308169 1.724931 -0.583238
1029.32421875 2.488248 1.918682 -0.569566
1030.171875 2.474562 1.922744 -0.551818
1031.08984375 2.306843 1.79939 -0.507453
1032.0 2.11644 1.79 -0.32644
1032.8984375 2.33147 1.948039 -0.383431
1033.7890625 2.288659 1.764909 -0.52375
1034.65234375 2.210309 1.66178 -0.548529
1035.484375 2.344396 1.81 -0.534396
1036.34375 2.274234 1.715484 -0.55875
1037.23828125 2.246765 1.695 -0.551765
1038.14453125 2.509882 1.939882 -0.57
1038.99609375 2.4313029999999998 1.879247 -0.552056
1039.84765625 2.226817 1.716817 -0.51
1040.70703125 2.288196 1.719225 -0.568971
1041.5234375 2.437961 1.856285 -0.581676
1042.37109375 2.305487 1.765893 -0.539594
1043.26953125 2.236186 1.719895 -0.516291
1044.171875 2.394286 1.909286 -0.485
1045.046875 2.3932 1.8782 -0.515
1045.890625 2.300862 1.748878 -0.551984
1046.76953125 2.255922 1.729811 -0.526111
1047.6171875 2.389859 1.859044 -0.530815
1048.46484375 2.434866 1.870569 -0.564297
1049.3671875 2.349117 1.794818 -0.554299
1050.29296875 2.251655 1.701948 -0.549707
1051.17578125 2.358938 1.808984 -0.549954
1052.0234375 2.404659 1.844659 -0.56
1052.89453125 2.276079 1.716079 -0.56
1053.7734375 2.269674 1.717585 -0.552089
1054.6484375 2.391914 1.888213 -0.503701
1055.5546875 2.265352 1.755352 -0.51
1056.47265625 2.250635 1.73594 -0.514695
1057.37109375 2.37891 1.878924 -0.499986
1058.203125 2.48524 1.931145 -0.554095
1059.0546875 2.3246759999999997 1.857128 -0.467548
1059.91015625 2.205782 1.902808 -0.302974
1060.7578125 2.389615 2.159615 -0.23
1061.6484375 2.372836 2.028578 -0.344258
1062.53125 2.320011 1.800011 -0.52
1063.4140625 2.269796 1.74 -0.529796
1064.25 2.350493 1.92 -0.430493
1065.05859375 2.442904 1.909197 -0.533707
1065.9453125 2.458691 1.864521 -0.59417
1066.83203125 2.315848 1.696853 -0.618995
1067.7265625 2.241856 1.57791 -0.663946
1068.6328125 2.364079 1.609227 -0.754852
1069.5390625 2.400491 1.593768 -0.806723
1070.40234375 2.293874 1.55587 -0.738004
1071.2421875 2.343299 1.558299 -0.785
1072.12890625 2.499598 1.682074 -0.817524
1073.03125 2.465658 1.679676 -0.785982
1073.9140625 2.284562 1.564003 -0.720559
1074.78125 2.4294770000000003 1.754477 -0.675
1075.64453125 2.476903 1.784905 -0.691998
1076.48828125 2.394187 1.740849 -0.653338
1077.30859375 2.268919 1.66825 -0.600669
1078.17578125 2.403728 1.813812 -0.589916
1079.078125 2.264067 1.789159 -0.474908
1079.96484375 2.279292 1.805161 -0.474131
1080.8671875 2.365936 1.81 -0.555936
1081.7421875 2.318783 1.753232 -0.565551
1082.609375 2.29312 1.828994 -0.464126
1083.43359375 2.382295 1.977483 -0.404812
1084.28515625 2.4035159999999998 1.833516 -0.57
1085.21484375 2.319081 1.686706 -0.632375
1086.09375 2.274168 1.654368 -0.6198
1086.94921875 2.472002 1.910895 -0.561107
1087.78515625 2.462965 1.893398 -0.569567
1088.60546875 2.372774 1.814891 -0.557883
1089.42578125 2.282078 1.705673 -0.576405
1090.21484375 3.167446 0.582339 -2.585107
1091.0234375 3.026095 1.04801 -1.978085
1091.8203125 2.29509 0.610109 -1.684981
1092.5703125 3.004454 2.111772 -0.892682
1093.28515625 3.1423300000000003 3.093519 -0.048811
1093.9765625 1.5269789999999999 0.442956 -1.084023
1097.40625 1.237518 1.056757 -0.180761
1098.109375 1.9782760000000001 2.074008 0.095732
1098.80078125 2.155796 2.553652 0.397856
1099.45703125 1.816623 2.28174 0.465117
1100.10546875 1.872401 1.879956 0.007555
1100.76171875 1.9061370000000002 1.986479 0.080342
1101.44140625 2.158627 2.419954 0.261327
1102.1171875 2.4475029999999998 2.608097 0.160594
1102.81640625 2.501967 2.547271 0.045304
1103.57421875 2.484082 2.417058 -0.067024
1104.359375 2.220117 2.082426 -0.137691
1105.12890625 1.963112 1.750945 -0.212167
1105.8671875 2.249341 1.956848 -0.292493
1106.62890625 2.284688 1.829715 -0.454973
1107.421875 2.190712 1.679162 -0.51155
1108.25 2.0899590000000003 1.455 -0.634959
1109.09765625 1.960882 1.256084 -0.704798
1109.96875 2.118998 1.428998 -0.69
1110.8671875 2.157716 1.451397 -0.706319
1111.71875 2.048082 1.303082 -0.745
1112.5625 1.93194 1.153514 -0.778426
1113.4140625 2.071408 1.352584 -0.718824
1114.328125 2.202502 1.480249 -0.722253
1115.24609375 2.133982 1.421472 -0.71251
1116.19140625 2.005604 1.302488 -0.703116
1117.125 2.139959 1.505 -0.634959
1118.00390625 2.187753 1.605 -0.582753
1118.8984375 2.258592 1.599084 -0.659508
1119.8125 2.010194 1.579349 -0.430845
1120.765625 2.0521439999999997 1.975825 -0.076319
1121.6953125 2.248536 2.105518 -0.143018
1122.640625 2.338996 1.810947 -0.528049
1123.56640625 2.216949 1.561712 -0.655237
1124.42578125 2.146737 1.586759 -0.559978
1125.28125 2.306803 1.708799 -0.598004
1126.125 2.399901 1.625 -0.774901
1127.015625 2.1653029999999998 1.355303 -0.81
1127.90234375 2.113089 1.149062 -0.964027
1128.7734375 2.223644 1.076797 -1.146847
1129.68359375 2.444694 1.217317 -1.227377
1130.5390625 2.3606879999999997 1.189234 -1.171454
1131.3984375 2.201459 0.966749 -1.23471
1132.30078125 2.107579 0.875646 -1.231933
1133.20703125 2.2885470000000003 1.183718 -1.104829
1134.12890625 2.2650829999999997 1.220133 -1.04495
1135.04296875 2.052546 0.986039 -1.066507
1135.9375 2.002518 0.935747 -1.066771
1136.75 2.2490110000000003 1.435 -0.814011
1137.55859375 2.380059 1.537612 -0.842447
1138.421875 2.1661520000000003 1.376152 -0.79
1139.37109375 1.971558 1.206343 -0.765215
1140.26953125 2.179622 1.505 -0.674622
1141.16015625 2.308941 1.608631 -0.70031
1142.05859375 2.202205 1.417859 -0.784346
1142.9296875 1.988406 1.215122 -0.773284
1143.765625 2.1160360000000003 1.505935 -0.610101
1144.63671875 2.22582 1.594216 -0.631604
1145.5625 2.185566 1.47051 -0.715056
1146.4765625 2.006793 1.226793 -0.78
1147.28515625 2.111015 1.457182 -0.653833
1148.05859375 2.625112 1.526688 -1.098424
1148.8203125 2.626168 1.608864 -1.017304
1149.546875 2.369381 2.514381 0.145
1150.2578125 2.931761 2.394177 -0.537584
1151.00390625 2.59037 1.628688 -0.961682
1151.75390625 2.287531 1.458165 -0.829366
1152.5078125 2.609775 2.006472 -0.603303
1153.2421875 2.630153 2.171381 -0.458772
1153.94921875 2.307657 1.990712 -0.316945
1154.6875 2.184319 1.892831 -0.291488
1155.421875 2.587357 2.308564 -0.278793
1156.15625 2.62678 2.418806 -0.207974
1156.9453125 2.338066 2.137823 -0.200243
1157.75 2.473681 2.16 -0.313681
1158.58984375 2.522009 2.083044 -0.438965
1159.42578125 2.2932889999999997 1.981593 -0.311696
1160.25 2.101191 1.77 -0.331191
1161.10546875 2.225584 1.850584 -0.375
1161.875 2.208393 1.745 -0.463393
1162.8828125 2.2717549999999997 1.8191 -0.452655
1163.8203125 2.244337 1.732335 -0.512002
1164.73828125 2.31299 1.733748 -0.579242
1165.6328125 2.308159 1.649183 -0.658976
1166.4765625 2.308811 1.733089 -0.575722
1167.359375 2.144999 1.60409 -0.540909
1168.26171875 2.292066 1.619746 -0.67232
1169.15234375 2.291694 1.579725 -0.711969
1170.09375 2.367634 1.743998 -0.623636
1171.01171875 2.273603 1.738609 -0.534994
1171.89453125 2.3207839999999997 1.815 -0.505784
1172.7578125 2.351492 1.843675 -0.507817
1173.6484375 2.375038 1.786702 -0.588336
1174.56640625 2.3642760000000003 1.829641 -0.534635
1175.48046875 2.339474 1.700584 -0.63889
1176.42578125 2.393941 1.769016 -0.624925
1177.33984375 2.3528200000000004 1.663145 -0.689675
1178.22265625 2.404741 1.861401 -0.54334
1179.07421875 2.339942 1.739065 -0.600877
1179.9453125 2.281753 1.611718 -0.670035
1180.8359375 2.414274 1.839274 -0.575
1181.72265625 2.422546 1.728015 -0.694531
1182.61328125 2.433191 1.688191 -0.745
1183.484375 2.435935 1.783314 -0.652621
1184.35546875 2.469033 1.839976 -0.629057
1185.21484375 2.4142419999999998 1.710353 -0.703889
1186.10546875 2.3489269999999998 1.764857 -0.58407
1187.0703125 2.398482 1.632177 -0.766305
1187.99609375 2.4437379999999997 1.639144 -0.804594
1188.9453125 2.41685 1.706389 -0.710461
1189.84765625 2.366174 1.907841 -0.458333
1190.73828125 2.424619 1.869935 -0.554684
1191.62109375 2.412603 1.727362 -0.685241
1192.546875 2.411752 1.794386 -0.617366
1193.53125 2.3589949999999997 1.959933 -0.399062
1194.4453125 2.382526 1.80755 -0.574976
1195.37109375 2.467197 1.710336 -0.756861
1196.26171875 2.4277699999999998 2.02777 -0.4
1197.1484375 2.333152 2.063152 -0.27
1198.01953125 2.384879 1.744879 -0.64
1198.9375 2.347195 1.604274 -0.742921
1199.88671875 2.342872 1.852777 -0.490095
1200.7890625 2.281886 1.902584 -0.379302
1201.62890625 2.5333040000000002 1.964148 -0.569156
1202.41015625 2.820556 1.40588 -1.414676
1203.1640625 2.8233819999999996 1.369063 -1.454319
1203.90625 2.760102 2.070453 -0.689649
1204.64453125 2.289522 1.994728 -0.294794
1205.44140625 2.2434830000000003 1.584745 -0.658738
1206.23828125 2.6986749999999997 2.208675 -0.49
1207.02734375 2.235976 2.296965 0.060989
1207.80078125 2.181768 1.799652 -0.382116
1208.55859375 2.5357710000000004 2.179438 -0.356333
1209.33203125 2.6253610000000003 2.435426 -0.189935
1210.1015625 2.8246420000000003 2.184642 -0.64
1210.8671875 2.692536 1.643294 -1.049242
1211.66015625 2.170898 1.71069 -0.460208
1212.45703125 2.200485 2.220576 0.020091
1213.19921875 2.391521 1.903143 -0.488378
1213.8984375 2.205494 1.363324 -0.84217
1214.6015625 1.9069530000000001 1.052942 -0.854011
1215.3125 1.9874770000000002 1.527803 -0.459674
1216.04296875 2.271691 1.602012 -0.669679
1216.7734375 2.190905 1.406822 -0.784083
1217.515625 1.760855 1.300877 -0.459978
1218.3046875 2.15983 1.39483 -0.765
1219.07421875 2.326242 1.697937 -0.628305
1219.81640625 2.098145 1.50909 -0.589055
1220.5703125 1.787823 1.555267 -0.232556
1221.34375 2.213874 1.462278 -0.751596
1222.16015625 2.211973 1.478493 -0.73348
1222.98046875 2.01398 1.374881 -0.639099
1223.8125 1.88429 1.254719 -0.629571
1224.70703125 2.145839 1.355561 -0.790278
1225.5625 2.228729 1.598163 -0.630566
1226.40625 2.035187 1.665585 -0.369602
1227.2578125 2.073779 1.539385 -0.534394
1228.15625 2.147093 1.51741 -0.629683
1229.10546875 2.154891 1.654498 -0.500393
1230.03515625 2.04042 1.515542 -0.524878
1230.98046875 2.117649 1.434836 -0.682813
1231.88671875 2.154377 1.497415 -0.656962
1232.7421875 2.139517 1.622395 -0.517122
1233.61328125 2.0791340000000003 1.485 -0.594134
1234.53515625 2.039658 1.297766 -0.741892
1235.484375 2.161501 1.462466 -0.699035
1236.40625 2.269394 1.521734 -0.74766
1237.359375 2.21236 1.38909 -0.82327
1238.26953125 2.259845 1.514929 -0.744916
1239.125 2.359946 1.545 -0.814946
1240.01953125 2.319341 1.534711 -0.78463
1240.95703125 2.088704 1.358421 -0.730283
1241.87890625 2.230405 1.403019 -0.827386
1242.79296875 2.278471 1.443518 -0.834953
1243.7109375 2.324145 1.554306 -0.769839
1244.578125 2.237441 1.558103 -0.679338
1245.4296875 2.259366 1.533376 -0.72599
1246.3125 2.254382 1.614703 -0.639679
1247.23828125 2.292774 1.555293 -0.737481
1248.15234375 2.282605 1.605273 -0.677332
1249.03515625 2.149861 1.562811 -0.58705
1249.91796875 2.173012 1.534336 -0.638676
1250.76953125 2.284733 1.639964 -0.644769
1251.60546875 2.319947 1.689947 -0.63
1252.484375 2.180553 1.536696 -0.643857
1253.37109375 2.118688 1.427869 -0.690819
1254.265625 2.39548 1.756523 -0.638957
1255.12890625 2.442557 1.830145 -0.612412
1255.953125 2.308763 1.721047 -0.587716
1256.80859375 2.183726 1.563933 -0.619793
1257.62890625 2.2664679999999997 1.603198 -0.66327
1258.43359375 2.370254 1.726697 -0.643557
1259.30078125 2.4494160000000003 1.800661 -0.648755
1260.203125 2.311651 1.687762 -0.623889
1261.06640625 2.170197 1.60829 -0.561907
1261.8828125 2.362381 1.748465 -0.613916
1262.734375 2.460864 1.757695 -0.703169
1263.5859375 2.3446759999999998 1.654787 -0.689889
1264.4375 2.242521 1.527729 -0.714792
1265.32421875 2.431299 1.838163 -0.593136
1266.234375 2.403828 1.803828 -0.6
1267.1484375 2.358793 1.843377 -0.515416
1268.00390625 2.206533 1.631667 -0.574866
1268.88671875 2.293129 1.755279 -0.53785
1269.76953125 2.379829 1.749884 -0.629945
1270.6796875 2.378528 1.83487 -0.543658
1271.6328125 2.202517 1.574814 -0.627703
1272.55078125 2.200916 1.494645 -0.706271
1273.4765625 2.423977 1.698977 -0.725
1274.36328125 2.381455 1.753735 -0.62772
1275.25390625 2.1792540000000002 1.544254 -0.635
1276.1640625 2.3034790000000003 1.639431 -0.664048
1277.09765625 2.384537 1.717662 -0.666875
1278.05078125 2.371227 1.786701 -0.584526
1278.9921875 2.235062 1.706653 -0.528409
1279.8984375 2.287989 1.602992 -0.684997
1280.7734375 2.413908 1.725 -0.688908
1281.67578125 2.38662 1.706531 -0.680089
1282.60546875 2.302931 1.609813 -0.693118
1283.5078125 2.157282 1.413938 -0.743344
1284.41015625 2.2652 1.526861 -0.738339
1285.3125 2.286771 1.565 -0.721771
1286.203125 2.237146 1.587473 -0.649673
1287.0625 2.192411 1.53224 -0.660171
1287.96875 2.32636 1.714308 -0.612052
1288.90234375 2.30904 1.650356 -0.658684
1289.8359375 2.246128 1.569878 -0.67625
1290.75390625 2.162272 1.480906 -0.681366
1291.63671875 2.368365 1.708724 -0.659641
1292.4921875 2.394234 1.803326 -0.590908
1293.3203125 2.312189 1.737595 -0.574594
1294.203125 2.1620749999999997 1.594209 -0.567866
1295.1015625 2.275217 1.685217 -0.59
1295.984375 2.309654 1.674272 -0.635382
1296.875 2.344887 1.8 -0.544887
1297.72265625 2.290878 1.726407 -0.564471
1298.5546875 2.126376 1.473547 -0.652829
1299.35546875 2.354874 1.679874 -0.675
1300.1640625 2.352202 1.737937 -0.614265
1301.046875 2.366899 1.777224 -0.589675
1301.93359375 2.215442 1.682432 -0.53301
1302.7734375 2.0919540000000003 1.511729 -0.580225
1303.60546875 2.270818 1.674456 -0.596362
1304.46484375 2.352542 1.751292 -0.60125
1305.30859375 2.30381 1.639568 -0.664242
1306.16796875 2.132722 1.503013 -0.629709
1307.1171875 2.229335 1.556972 -0.672363
1308.05859375 2.3130129999999998 1.638447 -0.674566
1308.94921875 2.236831 1.612162 -0.624669
1309.8203125 2.099309 1.456492 -0.642817
1310.6796875 2.230795 1.594211 -0.636584
1311.5390625 2.26229 1.639911 -0.622379
1312.39453125 2.180516 1.600573 -0.579943
1313.3125 2.098383 1.458431 -0.639952
1314.203125 2.229172 1.529918 -0.699254
1315.0390625 2.2821819999999997 1.682685 -0.599497
1315.875 2.22996 1.705 -0.52496
1316.70703125 2.1206829999999997 1.515683 -0.605
1317.546875 2.241669 1.472061 -0.769608
1318.375 2.279885 1.53 -0.749885
1319.2265625 2.151265 1.527842 -0.623423
1320.1328125 2.111052 1.516396 -0.594656
1321.00390625 2.221729 1.646634 -0.575095
1321.8203125 2.238398 1.66755 -0.570848
1322.66796875 2.208882 1.552437 -0.656445
1323.57421875 2.17765 1.53765 -0.64
1324.4140625 2.168135 1.469468 -0.698667
1325.22265625 1.8470650000000002 1.220207 -0.626858
1326.05078125 2.070068 1.406784 -0.663284
1326.84375 2.184043 1.43 -0.754043
1327.58984375 2.428388 1.671263 -0.757125
1328.31640625 1.9689330000000003 1.413933 -0.555
1329.03125 2.08043 1.496565 -0.583865
1329.7734375 2.053478 1.619809 -0.433669
1330.52734375 1.9624219999999999 1.544074 -0.418348
1331.2734375 2.038002 1.42188 -0.616122
1332.046875 2.3711010000000003 1.351156 -1.019945
1332.8515625 2.0048 1.253229 -0.751571
1333.609375 2.14787 1.385729 -0.762141
1334.35546875 2.4019139999999997 1.661914 -0.74
1335.14453125 2.338636 1.674888 -0.663748
1335.96875 2.0915090000000003 1.506509 -0.585
1336.83203125 2.2259599999999997 1.580979 -0.644981
1337.71484375 2.310609 1.710841 -0.599768
1338.63671875 2.260561 1.71094 -0.549621
1339.546875 2.063481 1.598922 -0.464559
1340.3984375 2.2563269999999997 1.721155 -0.535172
1341.28515625 2.2545159999999997 1.610545 -0.643971
1342.18359375 2.070543 1.517433 -0.55311
1343.1015625 2.14426 1.63926 -0.505
1344.02734375 2.25443 1.721697 -0.532733
1344.95703125 2.222481 1.689905 -0.532576
1345.86328125 2.087378 1.64906 -0.438318
1346.72265625 2.213215 1.77 -0.443215
1347.58203125 2.307235 1.743943 -0.563292
1348.44921875 2.2405939999999998 1.645927 -0.594667
1349.375 2.150663 1.685 -0.465663
1350.265625 2.361649 1.875969 -0.48568
1351.17578125 2.355436 1.749556 -0.60588
1352.078125 2.2270339999999997 1.59733 -0.629704
1352.9375 2.3142300000000002 1.675 -0.63923
1353.83984375 2.367059 1.85069 -0.516369
1354.78125 2.297523 1.694329 -0.603194
1355.75390625 2.200286 1.519126 -0.68116
1356.6875 2.290968 1.595968 -0.695
1357.6171875 2.367441 1.643418 -0.724023
1358.51953125 2.384551 1.59471 -0.789841
1359.3828125 2.385284 1.517634 -0.86765
1360.11328125 2.548849 1.550745 -0.998104
1361.2265625 2.349633 1.654234 -0.695399
1362.2109375 2.2811 1.73116 -0.54994
1363.1328125 2.327938 1.718695 -0.609243
1364.03515625 2.337246 1.716409 -0.620837
1364.93359375 2.382361 1.708212 -0.674149
1365.8203125 2.208558 1.624808 -0.58375
1366.71875 2.393631 1.687812 -0.705819
1367.625 2.4298469999999996 1.64 -0.789847
1368.55078125 2.354761 1.667281 -0.68748
1369.40234375 2.205429 1.527356 -0.678073
1370.23828125 2.356026 1.642542 -0.713484
1371.08984375 2.398435 1.493171 -0.905264
1371.93359375 2.314107 1.655628 -0.658479
1372.828125 2.12865 1.527207 -0.601443
1373.73046875 2.20587 1.43087 -0.775
1374.65625 2.331533 1.586533 -0.745
1375.54296875 2.2556950000000002 1.797401 -0.458294
1376.3984375 2.126594 1.496988 -0.629606
1377.2734375 2.2343070000000003 1.502726 -0.731581
1378.1328125 2.301209 1.633722 -0.667487
1379.046875 2.145701 1.702631 -0.44307
1379.98046875 1.9583529999999998 1.359867 -0.598486
1380.8984375 2.220683 1.555511 -0.665172
1381.76171875 2.248531 1.623502 -0.625029
1382.61328125 2.2025959999999998 1.544748 -0.657848
1383.484375 2.093598 1.467372 -0.626226
1384.33984375 2.1851380000000002 1.533759 -0.651379
1385.2109375 2.299567 1.694725 -0.604842
1386.11328125 2.264009 1.555007 -0.709002
1387.046875 2.108198 1.396333 -0.711865
1387.90625 2.267511 1.800325 -0.467186
1388.75 2.284951 1.92 -0.364951
1389.65625 2.0738630000000002 1.586607 -0.487256
1390.54296875 2.0849919999999997 1.401325 -0.683667
1391.43359375 2.211467 1.677048 -0.534419
1392.328125 2.23989 1.795028 -0.444862
1393.2421875 2.165839 1.443253 -0.722586
1394.1171875 2.185906 1.47257 -0.713336
1394.96484375 2.249875 1.802189 -0.447686
1395.89453125 2.314739 1.774796 -0.539943
1396.84375 2.147917 1.441711 -0.706206
1397.7578125 2.0626990000000003 1.46347 -0.599229
1398.6796875 2.187633 1.787748 -0.399885
1399.6015625 2.154936 1.648919 -0.506017
1400.484375 2.166944 1.443753 -0.723191
1401.359375 2.124353 1.269544 -0.854809
1402.27734375 2.29019 1.797088 -0.493102
1403.21484375 2.2103729999999997 1.666532 -0.543841
1404.1328125 2.149476 1.476195 -0.673281
1405.046875 2.0998989999999997 1.448877 -0.651022
1405.94140625 2.273324 1.803736 -0.469588
1406.8046875 2.221238 1.657835 -0.563403
1407.68359375 2.16514 1.489018 -0.676122
1408.609375 2.137727 1.447695 -0.690032
1409.52734375 2.2680040000000004 1.699418 -0.568586
1410.421875 2.193993 1.51 -0.683993
1411.30078125 2.1422179999999997 1.429652 -0.712566
1412.16796875 2.1502730000000003 1.508871 -0.641402
1413.0 2.314889 1.79 -0.524889
1413.81640625 2.2893660000000002 1.644458 -0.644908
1414.703125 2.146134 1.456134 -0.69
1415.59765625 2.228028 1.534383 -0.693645
1416.47265625 2.288003 1.750281 -0.537722
1417.37109375 2.311197 1.684289 -0.626908
1418.234375 2.132928 1.435025 -0.697903
1419.10546875 2.223637 1.578637 -0.645
1419.984375 2.299672 1.649395 -0.650277
1420.91796875 2.233375 1.51208 -0.721295
1421.8671875 2.08312 1.347311 -0.735809
1422.75390625 2.160097 1.57625 -0.583847
1423.625 2.269908 1.635 -0.634908
1424.46484375 2.22149 1.484672 -0.736818
1425.3125 2.053447 1.339386 -0.714061
1426.1171875 2.1048169999999997 1.419212 -0.685605
1426.93359375 2.29748 1.632809 -0.664671
1427.78515625 2.287389 1.629937 -0.657452
1428.63671875 2.133808 1.483808 -0.65
1429.46484375 2.084913 1.415474 -0.669439
1430.3046875 2.261223 1.718105 -0.543118
1431.20703125 2.177886 1.568268 -0.609618
1432.1171875 2.009378 1.359114 -0.650264
1433.046875 2.1345270000000003 1.445 -0.689527
1434.05859375 2.193458 1.595866 -0.597592
1435.03515625 2.094446 1.492396 -0.60205
1435.9296875 2.0281540000000002 1.315109 -0.713045
1436.8125 2.165814 1.420814 -0.745
1437.7421875 2.225299 1.596716 -0.628583
1438.66796875 2.067766 1.462997 -0.604769
1439.58984375 2.174149 1.523136 -0.651013
1440.54296875 2.266839 1.596339 -0.6705
1441.44140625 2.144774 1.599901 -0.544873
1442.2890625 2.150042 1.509203 -0.640839
1443.15234375 2.229649 1.524732 -0.704917
1444.05078125 2.1801019999999998 1.57003 -0.610072
1444.95703125 2.11251 1.472225 -0.640285
1445.859375 2.150789 1.473715 -0.677074
1446.80859375 2.283244 1.509249 -0.773995
1447.68359375 2.159031 1.584009 -0.575022
1448.52734375 2.097014 1.49293 -0.604084
1449.37890625 2.2211369999999997 1.542093 -0.679044
1450.27734375 2.259324 1.489585 -0.769739
1451.171875 2.174798 1.521812 -0.652986
1452.02734375 2.098272 1.434724 -0.663548
1452.90625 2.286322 1.544136 -0.742186
1453.7265625 2.321383 1.484059 -0.837324
1454.5234375 2.2475709999999998 1.498956 -0.748615
1455.33984375 2.123964 1.447384 -0.67658
1456.16796875 2.317943 1.643549 -0.674394
1457.07421875 2.341533 1.594154 -0.747379
1457.98046875 2.234816 1.599816 -0.635
1458.88671875 2.0743340000000003 1.491783 -0.582551
1459.75390625 2.231821 1.583098 -0.648723
1460.57421875 2.317225 1.543163 -0.774062
1461.4296875 2.195225 1.531001 -0.664224
1462.328125 2.109276 1.441537 -0.667739
1463.24609375 2.342484 1.623945 -0.718539
1464.1640625 2.3880369999999997 1.665587 -0.72245
1465.078125 2.254764 1.687 -0.567764
1465.97265625 2.213787 1.604008 -0.609779
1466.78515625 2.365266 1.687509 -0.677757
1467.625 2.329671 1.67 -0.659671
1468.49609375 2.276483 1.682482 -0.594001
1469.4296875 2.200432 1.532395 -0.668037
1470.33203125 2.383545 1.668557 -0.714988
1471.234375 2.41738 1.763025 -0.654355
1472.16015625 2.419473 1.692345 -0.727128
1473.0390625 2.304052 1.509351 -0.794701
1473.91015625 2.347748 1.665 -0.682748
1474.828125 2.417274 1.797809 -0.619465
1475.796875 2.3582170000000002 1.698789 -0.659428
1476.72265625 2.212949 1.558249 -0.6547
1477.61328125 2.314257 1.740944 -0.573313
1478.53125 2.369366 1.731677 -0.637689
1479.4140625 2.334403 1.608756 -0.725647
1480.30859375 2.2136080000000002 1.567457 -0.646151
1481.25390625 2.377424 1.828019 -0.549405
1482.22265625 2.345964 1.757981 -0.587983
1483.15625 2.130173 1.507812 -0.622361
1484.0390625 2.189254 1.579431 -0.609823
1484.9453125 2.356496 1.702407 -0.654089
1485.8125 2.306624 1.641042 -0.665582
1486.7109375 2.114885 1.504242 -0.610643
1487.62890625 2.1514949999999997 1.593033 -0.558462
1488.53125 2.329185 1.756594 -0.572591
1489.37890625 2.347943 1.706168 -0.641775
1490.2265625 2.219958 1.570812 -0.649146
1491.1171875 2.157564 1.48448 -0.673084
1492.0 2.424987 1.78 -0.644987
1492.9296875 2.360774 1.741428 -0.619346
1493.83203125 2.211431 1.606431 -0.605
1494.7265625 2.115256 1.510256 -0.605
1495.5546875 2.193793 1.595145 -0.598648
1496.33203125 2.32446 1.673565 -0.650895
1497.15625 2.155253 1.535253 -0.62
1497.95703125 2.057189 1.533367 -0.523822
1498.7734375 2.2999870000000002 1.819617 -0.48037
1499.64453125 2.374919 1.844971 -0.529948
1500.546875 2.188174 1.599826 -0.588348
1501.4375 2.199595 1.627174 -0.572421
1502.296875 2.303961 1.753961 -0.55
1503.17578125 2.146083 1.661083 -0.485
1504.09375 2.0390800000000002 1.502205 -0.536875
1505.01171875 2.25696 1.68696 -0.57
1505.95703125 2.266109 1.753704 -0.512405
1506.89453125 2.154737 1.599811 -0.554926
1507.79296875 2.178556 1.59509 -0.583466
1508.65234375 2.303753 1.721017 -0.582736
1509.54296875 2.296741 1.692703 -0.604038
1510.4375 2.127113 1.541562 -0.585551
1511.33984375 2.163888 1.565173 -0.598715
1512.2578125 2.296877 1.706203 -0.590674
1513.16015625 2.346495 1.764914 -0.581581
1514.02734375 2.21657 1.598479 -0.618091
1514.87890625 2.249516 1.617093 -0.632423
1515.75390625 2.330383 1.741321 -0.589062
1516.67578125 2.3328569999999997 1.765005 -0.567852
1517.58984375 2.19903 1.5743 -0.62473
1518.5234375 2.207271 1.586179 -0.621092
1519.4140625 2.3147349999999998 1.674909 -0.639826
1520.3046875 2.300853 1.646038 -0.654815
1521.171875 2.18045 1.531159 -0.649291
1522.04296875 2.2021129999999998 1.572271 -0.629842
1522.97265625 2.366924 1.714292 -0.652632
1523.875 2.293292 1.715 -0.578292
1524.76953125 2.186243 1.626043 -0.5602
1525.65234375 2.3625369999999997 1.748554 -0.613983
1526.5390625 2.351156 1.713906 -0.63725
1527.38671875 2.3908139999999998 1.690636 -0.700178
1528.2578125 2.2179130000000002 1.560882 -0.657031
1529.1875 2.2750250000000003 1.630025 -0.645
1530.1015625 2.275976 1.61957 -0.656406
1531.00390625 2.230207 1.606343 -0.623864
1531.859375 2.137618 1.464237 -0.673381
1532.72265625 2.283864 1.642617 -0.641247
1533.56640625 2.328013 1.738176 -0.589837
1534.4296875 2.259691 1.642117 -0.617574
1535.36328125 2.133702 1.487219 -0.646483
1536.2421875 2.191149 1.622264 -0.568885
1537.109375 2.27216 1.670937 -0.601223
1537.953125 2.194102 1.47055 -0.723552
1538.79296875 2.201869 1.46288 -0.738989
1539.6328125 2.335036 1.701606 -0.63343
1540.4921875 2.321755 1.732809 -0.588946
1541.4296875 2.2419599999999997 1.647578 -0.594382
1542.33203125 2.137038 1.53205 -0.604988
1543.1796875 2.318812 1.716038 -0.602774
1544.02734375 2.271461 1.696461 -0.575
1544.890625 2.227599 1.643016 -0.584583
1545.76953125 2.104671 1.474752 -0.629919
1546.66015625 2.254417 1.635688 -0.618729
1547.61328125 2.256404 1.653458 -0.602946
1548.5625 2.181565 1.538949 -0.642616
1549.48046875 2.068732 1.423732 -0.645
1550.3671875 2.240982 1.669812 -0.57117
1551.28125 2.3294639999999998 1.720117 -0.609347
1552.19921875 2.099224 1.457513 -0.641711
1553.1015625 2.1833270000000002 1.568327 -0.615
1554.0703125 2.251814 1.647534 -0.60428
1554.99609375 2.252091 1.589145 -0.662946
1555.8515625 2.097206 1.432074 -0.665132
1556.6796875 2.20301 1.537251 -0.665759
1557.53125 2.309247 1.655 -0.654247
1558.42578125 2.291912 1.629652 -0.66226
1559.32421875 2.09162 1.446947 -0.644673
1560.23046875 2.199912 1.569912 -0.63
1561.1328125 2.33817 1.723436 -0.614734
1561.984375 2.302963 1.626981 -0.675982
1562.8359375 2.213484 1.509094 -0.70439
1563.6875 2.290025 1.60371 -0.686315
1564.5546875 2.350585 1.623158 -0.727427
1565.44140625 2.3039709999999998 1.559175 -0.744796
1566.33984375 2.109692 1.426152 -0.68354
1567.2265625 2.275471 1.634734 -0.640737
1568.078125 2.303566 1.707809 -0.595757
1568.94140625 2.189715 1.589783 -0.599932
1569.796875 2.094708 1.478348 -0.61636
1570.70703125 2.276375 1.653657 -0.622718
1571.609375 2.297337 1.697337 -0.6
1572.5390625 2.186692 1.593098 -0.593594
1573.4609375 2.206913 1.564433 -0.64248
1574.30859375 2.364793 1.720485 -0.644308
1575.17578125 2.351734 1.704138 -0.647596
1576.07421875 2.175788 1.529574 -0.646214
1577.01171875 2.133141 1.4604 -0.672741
1577.921875 2.264034 1.684301 -0.579733
1578.8359375 2.294983 1.69 -0.604983
1579.7421875 2.198269 1.509625 -0.688644
1580.578125 2.178008 1.451027 -0.726981
1581.41015625 2.315658 1.635922 -0.679736
1582.28515625 2.321434 1.638703 -0.682731
1583.19921875 2.200882 1.529151 -0.671731
1584.09375 2.230585 1.533107 -0.697478
1584.96484375 2.311404 1.675623 -0.635781
1585.8515625 2.324331 1.651856 -0.672475
1586.70703125 2.22953 1.456058 -0.773472
1587.53515625 2.1899129999999998 1.43544 -0.754473
1588.37890625 2.317869 1.602869 -0.715
1589.26953125 2.359713 1.65484 -0.704873
1590.16015625 2.192396 1.508099 -0.684297
1591.00390625 2.351804 1.620703 -0.731101
1591.84765625 2.456432 1.679432 -0.777
1592.6640625 2.383696 1.653588 -0.730108
1593.484375 2.262721 1.584728 -0.677993
1594.34375 2.292394 1.573938 -0.718456
1595.23828125 2.360595 1.666184 -0.694411
1596.15234375 2.281346 1.621001 -0.660345
1597.0234375 2.188511 1.454687 -0.733824
1597.859375 2.164439 1.423662 -0.740777
1598.7109375 2.3391919999999997 1.634202 -0.70499
1599.54296875 2.3225379999999998 1.629986 -0.692552
1600.41796875 2.215873 1.50615 -0.709723
1601.31640625 2.171912 1.509038 -0.662874
1602.22265625 2.308842 1.694289 -0.614553
1603.09375 2.325319 1.691833 -0.633486
1603.9453125 2.241396 1.585 -0.656396
1604.82421875 2.209339 1.476598 -0.732741
1605.703125 2.307243 1.640082 -0.667161
1606.58203125 2.23925 1.598657 -0.640593
1607.52734375 2.244856 1.548018 -0.696838
1608.48828125 2.1412 1.442786 -0.698414
1609.375 2.269964 1.61 -0.659964
1610.23046875 2.311572 1.621929 -0.689643
1611.1328125 2.28665 1.588829 -0.697821
1612.00390625 2.157545 1.462362 -0.695183
1612.859375 2.12455 1.519277 -0.605273
1613.734375 2.164109 1.573281 -0.590828
1614.625 2.193904 1.55 -0.643904
1615.48828125 2.035193 1.347878 -0.687315
1616.30078125 2.164647 1.539647 -0.625
1617.16796875 2.2652159999999997 1.660216 -0.605
1618.046875 2.249711 1.619916 -0.629795
1618.9296875 2.143062 1.527092 -0.61597
1619.8359375 2.149405 1.559464 -0.589941
1620.734375 2.330464 1.738675 -0.591789
1621.609375 2.300021 1.645021 -0.655
1622.44921875 2.228357 1.571214 -0.657143
1623.3046875 2.175619 1.526434 -0.649185
1624.18359375 2.231963 1.587458 -0.644505
1625.0859375 2.261653 1.581699 -0.679954
1626.01171875 2.159269 1.506916 -0.652353
1626.9375 2.168792 1.55872 -0.610072
1627.83984375 2.314243 1.674812 -0.639431
1628.70703125 2.329965 1.633455 -0.69651
1629.6015625 2.1803749999999997 1.515375 -0.665
1630.515625 2.2791420000000002 1.723872 -0.55527
1631.4296875 2.2600860000000003 1.665423 -0.594663
1632.3515625 2.202527 1.518387 -0.68414
1633.234375 2.040818 1.386536 -0.654282
1634.11328125 2.243206 1.654344 -0.588862
1634.95703125 2.274833 1.619435 -0.655398
1635.828125 2.253077 1.603439 -0.649638
1636.74609375 2.1991199999999997 1.534228 -0.664892
1637.6328125 2.3261700000000003 1.699038 -0.627132
1638.54296875 2.391948 1.7196 -0.672348
1639.43359375 2.248599 1.577457 -0.671142
1640.30078125 2.113977 1.489513 -0.624464
1641.13671875 2.246663 1.661058 -0.585605
1641.99609375 2.268316 1.7034 -0.564916
1642.93359375 2.2279 1.603111 -0.624789
1643.8515625 2.0600959999999997 1.437765 -0.622331
1644.765625 2.1468860000000003 1.592853 -0.554033
1645.66796875 2.226927 1.676481 -0.550446
1646.5625 2.320613 1.677433 -0.64318
1647.42578125 2.167332 1.535 -0.632332
1648.32421875 2.2824240000000002 1.692379 -0.590045
1649.265625 2.283276 1.704803 -0.578473
1650.1953125 2.268212 1.62653 -0.641682
1651.11328125 2.14232 1.460783 -0.681537
1651.99609375 2.189658 1.581774 -0.607884
1652.859375 2.26844 1.66238 -0.60606
1653.70703125 2.227065 1.548735 -0.67833
1654.5703125 2.111649 1.497797 -0.613852
1655.49609375 2.215925 1.65 -0.565925
1656.38671875 2.365456 1.739538 -0.625918
1657.25390625 2.245256 1.621296 -0.62396
1658.10546875 2.09769 1.49483 -0.60286
1658.953125 2.314194 1.704918 -0.609276
1659.80859375 2.33826 1.719371 -0.618889
1660.68359375 2.156679 1.513222 -0.643457
1661.625 2.05828 1.445 -0.61328
1662.5234375 2.312132 1.734161 -0.577971
1663.38671875 2.31476 1.727716 -0.587044
1664.25 2.224961 1.625 -0.599961
1665.12890625 2.095047 1.488452 -0.606595
1665.99609375 2.320302 1.766089 -0.554213
1666.890625 2.2658620000000003 1.730925 -0.534937
1667.8515625 2.220163 1.648976 -0.571187
1668.765625 2.192427 1.598945 -0.593482
1669.671875 2.3512880000000003 1.818661 -0.532627
1670.53515625 2.260618 1.709385 -0.551233
1671.44140625 2.173431 1.624067 -0.549364
1672.37109375 2.27341 1.74914 -0.52427
1673.30078125 2.257314 1.729845 -0.527469
1674.28125 2.289098 1.703608 -0.58549
1675.19921875 2.167437 1.578568 -0.588869
1676.06640625 2.271017 1.69953 -0.571487
1676.94140625 2.343993 1.699165 -0.644828
1677.83984375 2.297345 1.612502 -0.684843
1678.73828125 2.168127 1.528127 -0.64
1679.625 2.337755 1.7 -0.637755
1680.55859375 2.400653 1.779853 -0.6208
1681.44921875 2.398548 1.768079 -0.630469
1682.27734375 2.248561 1.580185 -0.668376
1683.1328125 2.222433 1.547851 -0.674582
1684.01953125 2.354926 1.674978 -0.679948
1684.9296875 2.375662 1.623937 -0.751725
1685.85546875 2.241552 1.509763 -0.731789
1686.79296875 2.2333790000000002 1.555239 -0.67814
1687.671875 2.397825 1.709427 -0.688398
1688.51953125 2.319102 1.60491 -0.714192
1689.37890625 2.168527 1.427004 -0.741523
1690.28515625 2.1654079999999998 1.465458 -0.69995
1691.203125 2.311978 1.648018 -0.66396
1692.0859375 2.344391 1.644454 -0.699937
1693.0078125 2.204854 1.482068 -0.722786
1693.859375 2.101114 1.451918 -0.649196
1694.6796875 2.2695480000000003 1.676376 -0.593172
1695.50390625 2.36341 1.708948 -0.654462
1696.33203125 2.2384519999999997 1.585133 -0.653319
1697.22265625 2.103394 1.464366 -0.639028
1698.0859375 2.278874 1.679012 -0.599862
1698.9609375 2.3547279999999997 1.719785 -0.634943
1699.87109375 2.2635170000000002 1.607463 -0.656054
1700.7265625 2.019843 1.373187 -0.646656
1701.5859375 2.254069 1.61472 -0.639349
1702.48828125 2.276331 1.627426 -0.648905
1703.4375 2.2153869999999998 1.587823 -0.627564
1704.34765625 2.11881 1.48026 -0.63855
1705.23828125 2.225756 1.592803 -0.632953
1706.13671875 2.311909 1.640864 -0.671045
1707.0 2.254261 1.595 -0.659261
1707.87890625 2.051672 1.388352 -0.66332
1708.79296875 2.20401 1.532533 -0.671477
1709.7421875 2.289378 1.602551 -0.686827
1710.640625 2.187777 1.488351 -0.699426
1711.515625 2.077223 1.422969 -0.654254
1712.390625 2.271346 1.59771 -0.673636
1713.23828125 2.3667499999999997 1.65675 -0.71
1714.1171875 2.236623 1.551262 -0.685361
1715.046875 2.120683 1.509821 -0.610862
1716.0078125 2.279602 1.642115 -0.637487
1716.9453125 2.297838 1.578758 -0.71908
1717.8359375 2.1997269999999998 1.519289 -0.680438
1718.7421875 2.349201 1.703573 -0.645628
1719.61328125 2.349739 1.68418 -0.665559
1720.515625 2.188266 1.508484 -0.679782
1721.453125 2.357212 1.659327 -0.697885
1722.40625 2.337055 1.637356 -0.699699
1723.3046875 2.302398 1.573696 -0.728702
1724.18359375 2.144312 1.454736 -0.689576
1725.08203125 2.265728 1.565879 -0.699849
1725.95703125 2.323229 1.588865 -0.734364
1726.8828125 2.356811 1.633436 -0.723375
1727.8203125 2.219706 1.556596 -0.66311
1728.76171875 2.270734 1.578814 -0.69192
1729.6328125 2.355415 1.616783 -0.738632
1730.48828125 2.373538 1.663167 -0.710371
1731.35546875 2.480367 1.750871 -0.729496
1732.1875 2.445316 1.712372 -0.732944
1733.04296875 2.249709 1.598925 -0.650784
1733.8828125 2.272577 1.597926 -0.674651
1734.7265625 2.535447 1.80321 -0.732237
1735.546875 2.577919 1.868013 -0.709906
1736.34375 2.48607 1.802208 -0.683862
1737.18359375 2.319832 1.684629 -0.635203
1738.03515625 2.508304 1.874062 -0.634242
1738.92578125 2.534097 1.901197 -0.6329
1739.85546875 2.484989 1.809989 -0.675
1740.78125 2.314844 1.711167 -0.603677
1741.65625 2.381704 1.794335 -0.587369
1742.5078125 2.4831469999999998 1.860125 -0.623022
1743.39453125 2.429233 1.831811 -0.597422
1744.31640625 2.323935 1.693511 -0.630424
1745.2421875 2.26816 1.624102 -0.644058
1746.17578125 2.413293 1.800709 -0.612584
1747.1171875 2.431314 1.818289 -0.613025
1748.00390625 2.248636 1.639344 -0.609292
1748.84765625 2.2460240000000002 1.599116 -0.646908
1749.74609375 2.356504 1.77727 -0.579234
1750.6484375 2.385692 1.756909 -0.628783
1751.5546875 2.282126 1.574488 -0.707638
1752.45703125 2.186433 1.505675 -0.680758
1753.33984375 2.369041 1.713136 -0.655905
1754.20703125 2.354608 1.700712 -0.653896
1755.04296875 2.194129 1.494129 -0.7
1755.91015625 2.1801440000000003 1.483699 -0.696445
1756.80078125 2.341692 1.686877 -0.654815
1757.6796875 2.3851959999999996 1.699118 -0.686078
1758.5703125 2.160225 1.477534 -0.682691
1759.41796875 2.167213 1.51687 -0.650343
1760.2421875 2.367852 1.706161 -0.661691
1761.05078125 2.381891 1.667291 -0.7146
1761.88671875 2.172328 1.518123 -0.654205
1762.78515625 2.189146 1.535 -0.654146
1763.703125 2.292623 1.670513 -0.62211
1764.62890625 2.21791 1.58791 -0.63
1765.5390625 2.138724 1.506581 -0.632143
1766.44921875 2.225014 1.625706 -0.599308
1767.328125 2.366943 1.692246 -0.674697
1768.25 2.275004 1.645 -0.630004
1769.234375 2.179484 1.501318 -0.678166
1770.1796875 2.205838 1.556937 -0.648901
1771.125 2.324986 1.675 -0.649986
1772.03125 2.354594 1.64934 -0.705254
1772.94921875 2.1641880000000002 1.420692 -0.743496
1773.8515625 2.218683 1.553895 -0.664788
1774.7890625 2.30414 1.699854 -0.604286
1775.7421875 2.281848 1.634045 -0.647803
1776.66015625 2.175176 1.500559 -0.674617
1777.56640625 2.347721 1.653299 -0.694422
1778.4375 2.329942 1.631071 -0.698871
1779.3203125 2.355462 1.632407 -0.723055
1780.1953125 2.253146 1.577904 -0.675242
1781.109375 2.309886 1.690078 -0.619808
1782.03125 2.362581 1.765 -0.597581
1782.921875 2.32064 1.674823 -0.645817
1783.77734375 2.214022 1.539871 -0.674151
1784.62109375 2.252102 1.590823 -0.661279
1785.49609375 2.3580010000000002 1.618586 -0.739415
1786.359375 2.382833 1.637833 -0.745
1787.2578125 2.237134 1.483055 -0.754079
1788.1796875 2.1880800000000002 1.458171 -0.729909
1789.0546875 2.393363 1.680183 -0.71318
1789.90234375 2.428759 1.724647 -0.704112
1790.74609375 2.313999 1.627331 -0.686668
1791.6171875 2.120487 1.501833 -0.618654
1792.46484375 2.333199 1.688016 -0.645183
1793.34375 2.329113 1.68522 -0.643893
1794.30078125 2.358686 1.684854 -0.673832
1795.1953125 2.2609459999999997 1.586628 -0.674318
1796.046875 2.317375 1.672422 -0.644953
1796.921875 2.3815049999999998 1.784517 -0.596988
1797.82421875 2.27196 1.67696 -0.595
1798.7421875 2.190826 1.6135 -0.577326
1799.66796875 2.223127 1.706044 -0.517083
1800.6328125 2.333689 1.734699 -0.59899
1801.55078125 2.257323 1.614038 -0.643285
1802.42578125 2.122273 1.497817 -0.624456
1803.3203125 2.2891880000000002 1.67489 -0.614298
1804.265625 2.30321 1.63801 -0.6652
