51 
217 
384 
552 
709 
876 
1043 
1216 
1384 
1555 
1726 
1899 
2073 
2250 
2428 
2606 
2783 
2959 
3134 
3314 
3493 
3670 
3843 
4023 
4201 
4379 
4549 
4735 
4911 
5079 
5251 
5432 
5606 
5780 
5943 
6113 
6286 
6454 
6622 
6791 
6966 
7137 
7308 
7475 
7655 
7831 
8006 
8182 
8360 
8540 
8718 
8901 
9082 
9262 
9439 
9622 
9802 
9980 
10155 
10334 
10512 
10689 
10868 
11050 
11228 
11405 
11584 
11764 
11946 
12125 
12302 
12480 
12661 
12841 
13023 
13209 
13395 
13576 
13751 
13944 
14126 
14310 
14492 
14678 
14851 
15035 
15217 
15399 
15568 
15742 
15918 
16097 
16271 
16443 
16611 
16792 
16966 
17144 
17319 
17496 
17674 
17852 
18030 
18212 
18388 
18565 
18740 
18919 
19093 
19266 
19441 
19620 
19795 
19971 
20152 
20333 
20513 
20695 
20875 
21058 
21239 
21421 
21605 
21787 
21960 
22136 
22315 
22494 
22673 
22840 
23015 
23196 
23372 
23551 
23732 
23904 
24083 
24259 
24442 
24611 
24783 
24955 
25131 
25301 
25472 
25639 
25809 
25987 
26160 
26335 
26514 
26692 
26865 
27043 
27221 
27401 
27579 
27759 
27947 
28133 
28316 
28498 
28685 
28866 
29050 
29231 
29419 
29599 
29783 
29966 
30150 
30331 
30514 
30701 
30886 
31070 
31251 
31441 
31630 
31825 
32015 
32205 
32394 
32580 
32769 
32954 
33138 
33317 
33503 
33686 
33866 
34044 
34230 
34409 
34587 
34763 
34944 
35118 
35298 
35473 
35652 
35827 
36001 
36180 
36360 
36536 
36709 
36880 
37061 
37235 
37410 
37579 
37755 
37923 
38098 
38274 
38452 
38629 
38802 
38980 
39162 
39340 
39518 
39691 
39867 
40042 
40218 
40397 
40577 
40756 
40935 
41116 
41307 
41494 
41682 
41863 
42055 
42244 
42437 
42630 
42820 
43002 
43185 
43374 
43558 
43742 
43920 
44114 
44303 
44494 
44686 
44874 
45059 
45245 
45434 
45626 
45818 
46011 
46211 
46419 
46632 
46854 
47080 
47300 
47530 
47765 
47987 
48202 
48416 
48621 
48819 
49017 
49213 
49408 
49598 
49791 
49979 
50171 
50358 
50548 
50730 
50912 
51098 
51283 
51465 
51642 
51823 
52002 
52182 
52356 
52539 
52713 
52887 
53066 
53246 
53422 
53599 
53772 
53953 
54128 
54307 
54478 
54653 
54828 
55003 
55180 
55361 
55535 
55711 
55886 
56071 
56251 
56432 
56611 
56796 
56980 
57164 
57351 
57536 
57715 
57897 
58083 
58263 
58447 
58625 
58808 
58985 
59164 
59344 
59528 
59702 
59880 
60056 
60238 
60417 
60597 
60771 
60953 
61133 
61313 
61498 
61681 
61860 
62037 
62221 
62406 
62588 
62767 
62951 
63133 
63316 
63500 
63688 
63872 
64060 
64248 
64439 
64625 
64815 
65000 
65189 
65373 
65558 
65744 
65932 
66116 
66298 
66487 
66676 
66864 
67051 
67245 
67432 
67624 
67817 
68013 
68201 
68391 
68582 
68769 
68957 
69139 
69323 
69505 
69692 
69876 
70062 
70243 
70425 
70605 
70796 
70978 
71159 
71337 
71521 
71700 
71877 
72058 
72237 
72416 
72601 
72797 
72996 
73205 
73412 
73622 
73823 
74027 
74229 
74428 
74621 
74810 
75008 
75203 
75396 
75583 
75782 
75980 
76177 
76375 
76573 
76766 
76959 
77154 
77340 
77529 
77713 
77904 
78092 
78286 
78482 
78679 
78873 
79064 
79265 
79461 
79651 
79837 
80028 
80216 
80405 
80595 
80777 
80959 
81140 
81331 
81510 
81689 
81866 
82049 
82226 
82405 
82580 
82760 
82933 
83110 
83284 
83457 
83628 
83804 
83971 
84145 
84312 
84480 
84654 
84831 
85001 
85173 
85339 
85523 
85699 
85877 
86050 
86233 
86412 
86593 
86776 
86963 
87145 
87329 
87517 
87702 
87889 
88070 
88258 
88448 
88639 
88829 
89019 
89205 
89393 
89584 
89774 
89961 
90148 
90339 
90525 
90710 
90899 
91092 
91278 
91462 
91651 
91843 
92028 
92212 
92394 
92579 
92760 
92943 
93128 
93310 
93492 
93670 
93854 
94035 
94216 
94391 
94570 
94748 
94924 
95099 
95278 
95449 
95622 
95792 
95969 
96134 
96301 
96464 
96638 
96800 
96969 
97130 
97296 
97468 
97586 
97797 
97960 
98128 
98290 
98455 
98612 
98775 
98938 
99095 
99253 
99414 
99582 
99745 
99900 
100058 
100225 
100390 
100554 
100709 
100872 
101035 
101201 
101366 
101533 
101701 
101860 
102023 
102193 
102364 
102531 
102701 
102859 
103030 
103198 
103366 
103535 
103708 
103880 
104044 
104216 
104389 
104564 
104736 
104900 
105067 
105242 
105409 
105581 
105755 
105930 
106093 
106269 
106442 
106621 
106793 
106965 
107138 
107316 
107490 
107671 
107849 
108030 
108206 
108381 
108558 
108739 
108913 
109088 
109260 
109439 
109615 
109789 
109971 
110155 
110336 
110515 
110702 
110887 
111076 
111259 
111450 
111632 
111821 
112013 
112207 
112396 
112586 
112782 
112976 
113171 
113358 
113551 
113744 
113938 
114130 
114320 
114508 
114693 
114887 
115078 
115264 
115446 
115635 
115820 
116005 
116192 
116377 
116556 
116738 
116920 
117105 
117283 
117457 
117632 
117807 
117986 
118165 
118345 
118527 
118703 
118890 
119086 
119285 
119485 
119678 
119881 
120078 
120275 
120474 
120673 
120866 
121061 
121262 
121457 
121654 
121849 
122042 
122238 
122435 
122630 
122817 
123008 
123197 
123393 
123580 
123764 
123952 
124141 
124329 
124516 
124707 
124890 
125077 
125265 
125459 
125645 
125830 
126014 
126201 
126386 
126573 
126759 
126940 
127125 
127309 
127498 
127681 
127863 
128039 
128223 
128403 
128583 
128762 
128939 
129117 
129293 
129470 
129654 
129832 
130004 
130184 
130369 
130548 
130726 
130908 
131092 
131272 
131455 
131636 
131820 
132005 
132191 
132374 
132560 
132744 
132930 
133120 
133311 
133503 
133691 
133893 
134088 
134285 
134480 
134684 
134882 
135089 
135299 
135498 
135696 
135895 
136098 
136301 
136497 
136696 
136892 
137092 
137297 
137504 
137704 
137901 
138107 
138306 
138504 
138698 
138896 
139086 
139279 
139477 
139669 
139859 
140046 
140241 
140431 
140626 
140823 
141018 
141218 
141419 
141620 
141819 
142018 
142217 
142414 
142616 
142810 
143006 
143198 
143389 
143587 
143787 
143978 
144166 
144365 
144559 
144754 
144946 
145139 
145331 
145528 
145730 
145924 
146117 
146317 
146517 
146714 
146910 
147107 
147303 
147497 
147689 
147890 
148085 
148277 
148475 
148673 
148876 
149081 
149293 
149497 
149704 
149914 
150116 
150320 
150522 
150723 
150916 
151111 
151308 
151499 
151689 
151884 
152083 
152274 
152465 
152662 
152860 
153057 
153246 
153447 
153642 
153833 
154027 
154224 
154414 
154598 
154797 
154991 
155184 
155367 
155559 
155746 
155934 
156124 
156312 
156499 
156681 
156865 
157049 
157232 
157409 
157584 
157759 
157937 
158113 
158292 
158470 
158640 
158815 
158994 
159173 
159346 
159514 
159688 
159863 
160033 
160206 
160374 
160549 
160719 
160893 
161069 
161249 
161426 
161608 
161785 
161968 
162150 
162335 
162521 
162706 
162885 
163065 
163250 
163433 
163615 
163792 
163975 
164156 
164339 
164523 
164712 
164896 
165083 
165270 
165460 
165646 
165838 
166028 
166216 
166405 
166593 
166783 
166976 
167173 
167364 
167564 
167759 
167948 
168140 
168332 
168523 
168715 
168911 
169096 
169287 
169481 
169671 
169854 
170038 
170225 
170409 
170592 
170779 
170967 
171153 
171340 
171523 
171714 
171897 
172082 
172261 
172445 
172629 
172812 
172998 
173187 
173371 
173553 
173744 
173931 
174116 
174296 
174484 
174665 
174848 
175029 
175208 
175384 
175560 
175733 
175903 
176075 
176247 
176407 
176574 
176738 
176904 
177070 
177244 
177406 
177571 
177737 
177913 
178082 
178252 
178414 
178591 
178762 
178933 
179105 
179281 
179450 
179624 
179797 
179975 
180149 
180322 
180495 
180673 
180848 
181027 
181205 
181387 
181564 
181746 
181923 
182106 
182284 
182465 
182638 
182823 
183003 
183183 
183366 
183553 
183736 
183919 
184106 
184296 
184481 
184664 
184850 
185035 
185220 
185406 
185591 
185777 
185963 
186147 
186333 
186514 
186700 
186878 
187065 
187248 
187430 
187613 
187803 
187987 
188170 
188356 
188545 
188732 
188921 
189114 
189304 
189491 
189685 
189880 
190069 
190260 
190455 
190652 
190847 
191041 
191234 
191429 
191627 
191824 
192030 
192226 
192423 
192623 
192825 
193023 
193216 
193416 
193609 
193805 
194006 
194204 
194400 
194602 
194821 
195029 
195233 
195439 
195644 
195851 
196052 
196253 
196453 
196651 
196852 
197044 
197238 
197425 
197618 
197808 
197994 
198187 
198384 
198580 
198774 
198976 
199173 
199374 
199567 
199763 
199963 
200166 
200367 
200562 
200756 
200951 
201150 
201342 
201532 
201724 
201919 
202112 
202304 
202496 
202684 
202872 
203064 
203258 
203444 
203631 
203825 
204015 
204206 
204399 
204594 
204783 
204979 
205174 
205365 
205560 
205745 
205940 
206128 
206317 
206507 
206710 
206906 
207100 
207299 
207490 
207686 
207873 
208069 
208259 
208446 
208635 
208826 
209012 
209203 
209402 
209591 
209789 
209988 
210194 
210395 
210595 
210801 
211004 
211211 
211415 
211614 
211813 
212007 
212207 
212398 
212585 
212776 
212968 
213156 
213339 
213529 
213719 
213906 
214091 
214281 
214464 
214651 
214839 
215030 
215216 
215401 
215585 
215771 
215955 
216139 
216322 
216508 
216699 
216890 
217088 
217286 
217484 
217682 
217892 
218093 
218298 
218506 
218707 
218911 
219119 
219321 
219517 
219716 
219922 
220122 
220328 
220530 
220740 
220942 
221142 
221350 
221557 
221754 
221954 
222156 
222350 
222542 
222743 
222933 
223120 
223312 
223504 
223689 
223876 
224065 
224253 
224441 
224628 
224818 
225003 
225188 
225376 
225568 
225754 
225936 
226120 
226310 
226498 
226684 
226868 
227057 
227244 
227433 
227627 
227814 
228002 
228193 
228388 
228573 
228760 
228945 
229130 
229316 
229505 
229697 
229883 
230071 
230256 
230448 
230633 
230817 
230996 
231178 
231359 
231537 
231717 
231900 
232076 
232252 
232430 
232607 
232783 
232957 
233132 
233306 
233476 
233652 
233827 
234003 
234176 
234352 
234531 
234712 
234893 
235073 
235257 
235438 
235622 
235809 
236002 
236190 
236377 
236561 
236754 
236944 
237132 
237321 
237511 
237701 
237894 
238095 
238282 
238472 
238667 
238861 
239050 
239235 
239426 
239612 
239803 
239991 
240183 
240367 
240555 
240739 
240926 
241115 
241301 
241489 
241675 
241865 
242056 
242254 
242444 
242628 
242814 
243006 
243193 
243379 
243562 
243746 
243931 
244118 
244309 
244494 
244684 
244873 
245073 
245266 
245460 
245652 
245848 
246042 
246241 
246440 
246636 
246833 
247030 
247235 
247434 
247629 
247825 
248019 
248208 
248402 
248600 
248794 
248995 
249195 
249394 
249583 
249773 
249962 
250150 
250338 
250524 
250715 
250900 
251087 
251269 
251459 
251641 
251823 
252003 
252187 
252365 
252544 
252726 
252908 
253087 
253265 
253448 
253630 
253812 
253991 
254177 
254361 
254549 
254739 
254933 
255128 
255326 
255530 
255735 
255949 
256146 
256355 
256559 
256763 
256967 
257165 
257365 
257569 
257778 
257979 
258175 
258377 
258577 
258776 
258976 
259171 
259371 
259571 
259781 
259989 
260191 
260392 
260595 
260796 
260992 
261193 
261388 
261583 
261777 
261971 
262163 
262353 
262551 
262744 
262928 
263121 
263312 
263499 
263685 
263869 
264055 
264237 
264419 
264605 
264783 
264959 
265142 
265322 
265500 
265680 
265853 
266033 
266209 
266389 
266563 
266745 
266924 
267101 
267282 
267468 
267650 
267831 
268016 
268202 
268383 
268568 
268756 
268943 
269126 
269316 
269511 
269699 
269889 
270074 
270267 
270456 
270649 
270837 
271023 
271210 
271397 
271591 
271776 
271963 
272147 
272343 
272531 
272717 
272902 
273089 
273278 
273467 
273658 
273847 
274037 
274226 
274421 
274607 
274798 
274985 
275177 
275369 
275558 
275751 
275945 
276137 
276324 
276514 
276704 
276890 
277074 
277261 
277442 
277624 
277809 
277998 
278179 
278361 
278545 
278733 
278918 
279102 
279282 
279464 
279642 
279824 
280005 
280184 
280360 
280538 
280723 
280906 
281090 
281264 
281453 
281634 
281821 
282013 
282207 
282397 
282590 
282791 
282987 
283182 
283376 
283578 
283773 
283972 
284175 
284373 
284570 
284761 
284963 
285160 
285360 
285553 
285748 
285944 
286141 
286345 
286541 
286733 
286933 
287136 
287344 
287549 
287763 
287974 
288189 
288407 
288611 
288812 
289014 
289215 
289407 
289594 
289789 
289977 
290169 
290361 
290550 
290738 
290925 
291117 
291311 
291502 
291687 
291882 
292077 
292272 
292473 
292676 
292873 
293068 
293268 
293462 
293657 
293847 
294039 
294228 
294422 
294616 
294807 
294997 
295187 
295380 
295570 
295762 
295952 
296144 
296339 
296539 
296743 
296947 
297145 
297349 
297558 
297760 
297955 
298160 
298362 
298565 
298769 
298973 
299178 
299380 
299584 
299787 
299989 
300188 
300387 
300589 
300788 
300995 
301202 
301409 
301630 
301840 
302045 
302246 
302454 
302662 
302870 
303083 
303283 
303482 
303698 
303916 
304134 
304339 
304546 
304750 
304950 
305151 
305352 
305554 
305755 
305958 
306160 
306354 
306556 
306756 
306959 
307159 
307361 
307560 
307757 
307955 
308148 
308340 
308526 
308712 
308899 
309087 
309274 
309460 
309641 
309823 
310008 
310191 
310371 
310552 
310734 
310918 
311100 
311279 
311466 
311648 
311833 
312015 
312209 
312394 
312586 
312771 
312964 
313155 
313348 
313541 
313729 
313921 
314109 
314304 
314494 
314686 
314875 
315063 
315253 
315443 
315640 
315830 
316022 
316211 
316408 
316601 
316791 
316990 
317187 
317382 
317582 
317791 
317992 
318191 
318404 
318608 
318817 
319024 
319237 
319443 
319650 
319866 
320076 
320288 
320501 
320703 
320902 
321095 
321293 
321486 
321680 
321880 
322075 
322264 
322455 
322648 
322839 
323027 
323213 
323397 
323582 
323771 
323959 
324142 
324329 
324515 
324709 
324896 
325087 
325278 
325473 
325668 
325866 
326067 
326266 
326456 
326646 
326842 
327034 
327223 
327413 
327605 
327792 
327988 
328184 
328371 
328567 
328767 
328967 
329171 
329372 
329573 
329761 
329956 
330149 
330341 
330528 
330715 
330905 
331091 
331277 
331460 
331650 
331834 
332016 
332201 
332392 
332577 
332762 
332948 
333140 
333325 
333512 
333696 
333879 
334065 
334251 
334441 
334624 
334812 
334999 
335190 
335375 
335563 
335745 
335932 
336115 
336299 
336486 
336674 
336856 
337037 
337225 
337411 
337598 
337779 
337966 
338150 
338336 
338526 
338720 
338905 
339091 
339281 
339470 
339660 
339846 
340032 
340220 
340406 
340593 
340782 
340968 
341152 
341334 
341530 
341714 
341898 
342080 
342263 
342445 
342626 
342811 
342991 
343166 
343346 
343528 
343708 
343885 
344056 
344235 
344409 
344586 
344759 
344932 
345106 
345278 
345448 
345620 
345789 
345962 
346127 
346297 
346464 
346635 
346804 
346977 
347149 
347310 
347479 
347652 
347824 
347988 
348150 
348317 
348485 
348649 
348816 
348980 
349154 
349320 
349491 
349660 
349836 
350005 
350180 
350346 
350523 
350696 
350872 
351049 
351231 
351410 
351592 
351776 
351961 
352148 
352333 
352522 
352710 
352897 
353086 
353281 
353469 
353657 
353846 
354037 
354228 
354418 
354610 
354799 
354995 
355192 
355391 
355584 
355780 
355983 
356179 
356373 
356562 
356757 
356947 
357131 
357318 
357509 
357694 
357877 
358062 
358249 
358433 
358615 
358804 
358984 
359167 
359354 
359540 
359723 
359903 
360081 
360264 
360443 
360625 
360803 
360991 
361175 
361363 
361555 
361750 
361939 
362126 
362320 
362510 
362699 
362883 
363075 
363259 
363446 
363637 
363828 
364017 
364211 
364410 
364605 
364802 
364993 
365188 
365379 
365572 
365766 
365959 
366151 
366341 
366537 
366727 
366917 
367103 
367299 
367492 
367683 
367877 
368073 
368262 
368451 
368649 
368841 
369038 
369235 
369431 
369630 
369832 
370034 
370233 
370427 
370615 
370809 
370997 
371184 
371366 
371550 
371727 
371908 
372090 
372271 
372443 
372618 
372796 
372972 
373143 
373319 
373496 
373674 
373849 
374027 
374210 
374388 
374567 
374745 
374929 
375107 
375292 
375471 
375660 
375845 
376032 
376219 
376412 
376600 
376786 
376978 
377170 
377359 
377544 
377739 
377924 
378111 
378302 
378494 
378682 
378871 
379064 
379253 
379445 
379633 
379828 
380014 
380202 
380392 
380586 
380777 
380964 
381159 
381355 
381556 
381747 
381947 
382142 
382337 
382534 
382725 
382916 
383106 
383298 
383487 
383680 
383868 
384054 
384242 
384431 
384621 
384801 
384986 
385168 
385357 
385540 
385725 
385904 
386089 
386275 
386459 
386647 
386835 
387022 
387206 
387398 
387583 
387769 
387948 
388135 
388316 
388497 
388681 
388869 
389049 
389233 
389418 
389601 
389786 
389968 
390149 
390329 
390507 
390689 
390870 
391051 
391234 
391414 
391602 
391791 
391980 
392165 
392355 
392546 
392739 
392944 
393144 
393340 
393541 
393747 
393944 
394147 
394344 
394545 
394746 
394949 
395152 
395348 
395544 
395740 
395942 
396140 
396333 
396535 
396738 
396942 
397142 
397340 
397542 
397750 
397974 
398192 
398406 
398627 
398832 
399039 
399249 
399454 
399654 
399853 
400059 
400264 
400476 
400685 
400895 
401106 
401314 
401519 
401719 
401914 
402117 
402311 
402509 
402703 
402897 
403082 
403271 
403464 
403650 
403836 
404019 
404211 
404398 
404586 
404767 
404951 
405138 
405325 
405514 
405701 
405888 
406079 
406272 
406459 
406646 
406825 
407015 
407197 
407378 
407564 
407751 
407933 
408113 
408297 
408481 
408660 
408839 
409018 
409194 
409367 
409545 
409722 
409895 
410067 
410239 
410416 
410590 
410766 
410936 
411109 
411284 
411458 
411633 
411810 
411989 
412169 
412350 
412539 
412723 
412906 
413090 
413278 
413459 
413639 
413825 
414010 
414191 
414372 
414555 
414736 
414917 
415095 
415275 
415448 
415625 
415802 
415980 
416156 
416330 
416503 
416684 
416859 
417036 
417204 
417385 
417561 
417738 
417915 
418096 
418272 
418449 
418625 
418808 
418984 
419163 
419338 
419518 
419692 
419867 
420044 
420225 
420402 
420581 
420760 
420946 
421128 
421311 
421488 
421668 
421847 
422024 
422205 
422384 
422559 
422733 
422913 
423092 
423268 
423441 
423617 
423794 
423967 
424143 
424322 
424499 
424672 
424849 
425027 
425207 
425386 
425561 
425740 
425920 
426102 
426286 
426474 
426661 
426846 
427030 
427222 
427406 
427590 
427768 
427952 
428130 
428308 
428488 
428672 
428847 
429028 
429211 
429397 
429581 
429766 
429950 
430134 
430316 
430498 
430682 
430864 
431049 
431230 
431421 
431606 
431796 
431984 
432181 
432371 
432565 
432766 
432959 
433151 
433341 
433537 
433725 
433912 
434099 
434283 
434469 
434667 
434880 
435093 
435306 
435522 
435734 
435941 
436141 
436348 
436556 
436754 
436959 
437161 
437361 
437563 
437763 
437964 
438156 
438354 
438543 
438734 
438929 
439122 
439308 
439494 
439688 
439874 
440064 
440242 
440431 
440614 
440799 
440987 
441169 
441352 
441532 
441719 
441905 
442092 
442267 
442453 
442634 
442816 
442996 
443179 
443357 
443534 
443715 
443899 
444076 
444256 
444435 
444617 
444801 
444991 
445181 
445371 
445561 
445753 
445953 
446143 
446335 
446525 
446718 
446909 
447099 
447293 
447485 
447676 
447864 
448056 
448242 
448428 
448610 
448798 
448979 
449158 
449342 
449525 
449702 
449883 
450063 
450246 
450428 
450607 
450789 
450967 
451147 
451328 
451511 
451691 
451868 
452041 
452223 
452401 
452578 
452748 
452926 
453103 
453281 
453460 
453646 
453823 
454001 
454180 
454367 
454546 
454727 
454901 
455080 
455257 
455434 
455610 
455787 
455960 
456134 
456309 
456488 
456664 
456840 
457014 
457196 
457375 
457555 
457737 
457925 
458108 
458291 
458480 
458665 
458846 
459027 
459214 
459396 
459577 
459758 
459944 
460125 
460308 
460491 
460678 
460858 
461041 
461218 
461403 
461586 
461769 
461953 
462140 
