338 
514 
701 
897 
1168 
1342 
1523 
2001 
2170 
2597 
2771 
2937 
3198 
3369 
3790 
3962 
4148 
4599 
4770 
4955 
5132 
5318 
5503 
5680 
5858 
6347 
7024 
7310 
7485 
7667 
8141 
8312 
8504 
8691 
8873 
9055 
9236 
9421 
9608 
9797 
9986 
10171 
10882 
11172 
11343 
11528 
12019 
12194 
12378 
12565 
13076 
13425 
13595 
13780 
13964 
14145 
14330 
15014 
15322 
15495 
15681 
16005 
16118 
16321 
16508 
16975 
17146 
17328 
17510 
18017 
18549 
19053 
19223 
19408 
19587 
19772 
19958 
20140 
20321 
20505 
20692 
20877 
21329 
21505 
21692 
21877 
22243 
22414 
22600 
23084 
23261 
23451 
23635 
23820 
24003 
24384 
24562 
24753 
25241 
25411 
25603 
25791 
26281 
26451 
26646 
27149 
27322 
27510 
27695 
28198 
28370 
28553 
29055 
29233 
29418 
29905 
30080 
30266 
30744 
30920 
31111 
31591 
31765 
31950 
32132 
32317 
32500 
32980 
33154 
33346 
33535 
33723 
33908 
34090 
34268 
34461 
34648 
34839 
35453 
35806 
35982 
36171 
36351 
36539 
36971 
37152 
37340 
37806 
37985 
38170 
38645 
38819 
39003 
39492 
39668 
39855 
40343 
40516 
40698 
40883 
41069 
41252 
41900 
42267 
42442 
42627 
43109 
43289 
43477 
43665 
43852 
44037 
44523 
44699 
45141 
45311 
45735 
45909 
46331 
46506 
46689 
47152 
47328 
47511 
47962 
48138 
48324 
48778 
48946 
49369 
49546 
49727 
50184 
50357 
50545 
50729 
51190 
51364 
51802 
51969 
52151 
52330 
52514 
52978 
53473 
53646 
53831 
54309 
54478 
54665 
55144 
55315 
55499 
55973 
56150 
56338 
56514 
56693 
56877 
57369 
57542 
57725 
57905 
58091 
58280 
58463 
58654 
58838 
59024 
59211 
59402 
59588 
59779 
59967 
60150 
60559 
60737 
60931 
61118 
61304 
62023 
62360 
62535 
62726 
62912 
63098 
63276 
63463 
63653 
63840 
64355 
64535 
64724 
65220 
65398 
65845 
66019 
66210 
66395 
66582 
67020 
67199 
67395 
67888 
68061 
68249 
68437 
68628 
68815 
69323 
69500 
69969 
70143 
70333 
70517 
70708 
71153 
71328 
71514 
71998 
72173 
72358 
72540 
73221 
73509 
73686 
73875 
74368 
74536 
74724 
75234 
75605 
75781 
75965 
76150 
76340 
76527 
76714 
76903 
77387 
77750 
77924 
78113 
78298 
78486 
78972 
79144 
79333 
79520 
79710 
79900 
80611 
80969 
81143 
81571 
81741 
81928 
82113 
82297 
82478 
82662 
82846 
83038 
83514 
83686 
84135 
84313 
84505 
84968 
85141 
85333 
85512 
85701 
85885 
86357 
86532 
86724 
86908 
87098 
87519 
87693 
87876 
88058 
88242 
88652 
88824 
89013 
89193 
89379 
89882 
90059 
90248 
90745 
91401 
91757 
91932 
92126 
92313 
92502 
92683 
92870 
93059 
93766 
94094 
94271 
94460 
94644 
94828 
95255 
95432 
95625 
96109 
96283 
96473 
96664 
96848 
97032 
97215 
97907 
98247 
98422 
98611 
98798 
98985 
99172 
99275 
99373 
99460 
99766 
99941 
100132 
100325 
100513 
100698 
100886 
101079 
101807 
102099 
102278 
102465 
102650 
103142 
103320 
103512 
103975 
104148 
104334 
104526 
104720 
104905 
105090 
105278 
105468 
105661 
105849 
106339 
106515 
106703 
107213 
107387 
107575 
107767 
107959 
108146 
108810 
109125 
109301 
109487 
109963 
110146 
110336 
110519 
110706 
111180 
111358 
111550 
112021 
112193 
112384 
112570 
112756 
112941 
113125 
113505 
113684 
113878 
114065 
114250 
114437 
114970 
115140 
115328 
115517 
115705 
116153 
116333 
116518 
116706 
116901 
117089 
117279 
117737 
117910 
118106 
118296 
118991 
119333 
119512 
119696 
120168 
120348 
120545 
121015 
121192 
121384 
121570 
122008 
122181 
122369 
122556 
123070 
123244 
123435 
123626 
123815 
124000 
124499 
124667 
124858 
125045 
125231 
125418 
125601 
126070 
126243 
126422 
126887 
127063 
127252 
127432 
127616 
127795 
127982 
128170 
128356 
128857 
129034 
129216 
129403 
129596 
129780 
129966 
130152 
130574 
130753 
130941 
131126 
131316 
131777 
131952 
132144 
132647 
132823 
133276 
133456 
133642 
133829 
134020 
134206 
134392 
134781 
134960 
135152 
135634 
135810 
136248 
136425 
136614 
136793 
136980 
137171 
137356 
137733 
137905 
138093 
138566 
138742 
138934 
139433 
139611 
139800 
139985 
140171 
140627 
140811 
141001 
141188 
141376 
141847 
142027 
142215 
142400 
142785 
142958 
143149 
143338 
143521 
143709 
144257 
144432 
144626 
144817 
145006 
145196 
145700 
145874 
146068 
146572 
146750 
146940 
147126 
147315 
147794 
147971 
148164 
148354 
148751 
148923 
149116 
149304 
149794 
149971 
150164 
150346 
150536 
150729 
150918 
151112 
151305 
151498 
151689 
152206 
152385 
152578 
152768 
152968 
153440 
153625 
153824 
154014 
154416 
154592 
154786 
154978 
155172 
155567 
155740 
155937 
156130 
156324 
156808 
156990 
157185 
157379 
157785 
157959 
158155 
158350 
158541 
158733 
158931 
159463 
159648 
159845 
160334 
160514 
160705 
161196 
161370 
161555 
162041 
162216 
162405 
162589 
162782 
163572 
163929 
164114 
164310 
164503 
164691 
164885 
165080 
165273 
166063 
166411 
166592 
166785 
167273 
167449 
167644 
167838 
168025 
168476 
168661 
168858 
169050 
169429 
169609 
169804 
169997 
170188 
170651 
170833 
171030 
171218 
171405 
171859 
172044 
172241 
172432 
172626 
172815 
173008 
173205 
173686 
173862 
174055 
174240 
174431 
174615 
174804 
174988 
175179 
175371 
175500 
175753 
175932 
176062 
176268 
176491 
176673 
176862 
177044 
177225 
177409 
177605 
177798 
177986 
178172 
178358 
178549 
178736 
178926 
179119 
179310 
179501 
179692 
179888 
180081 
180273 
180465 
180885 
181061 
181465 
181641 
181831 
182020 
182213 
182400 
182590 
183042 
183214 
183406 
183597 
183785 
183975 
184163 
184354 
184552 
184745 
184937 
185124 
185321 
185780 
185955 
186142 
186597 
186779 
186971 
187155 
187623 
187795 
187985 
188175 
188360 
188550 
188739 
189202 
189377 
189567 
190009 
190187 
190643 
190820 
191010 
191479 
191651 
191837 
192310 
192486 
192680 
192862 
193047 
193552 
193724 
193911 
194096 
194279 
194464 
194654 
194846 
195032 
195518 
195698 
195890 
196359 
196538 
196725 
196915 
197464 
197640 
197830 
198294 
198463 
198653 
199122 
199299 
199489 
199971 
200149 
200343 
200532 
201017 
201191 
201384 
201852 
202024 
202208 
202692 
202866 
203055 
203530 
203707 
203898 
204081 
204263 
204447 
204637 
204829 
205020 
205204 
205394 
205587 
205776 
205966 
206163 
206648 
206829 
207027 
207216 
207405 
207883 
208061 
208254 
208773 
208949 
209146 
209653 
209831 
210024 
210514 
210691 
210880 
211362 
211545 
211736 
211920 
212498 
212674 
212868 
213352 
213526 
213720 
214200 
214376 
214564 
214746 
215207 
215385 
215574 
216052 
216223 
216412 
216914 
217089 
217278 
217466 
217652 
218118 
218297 
218490 
218678 
218864 
219054 
219239 
219431 
219787 
219960 
220148 
220630 
220809 
221282 
221458 
221652 
222147 
222322 
222511 
222702 
222890 
223078 
223260 
223780 
224476 
224759 
224944 
225091 
225306 
225486 
225671 
226164 
226341 
226527 
226711 
227347 
227694 
227871 
228061 
228245 
228434 
228625 
228813 
229002 
229187 
229379 
230187 
230503 
230686 
230881 
231067 
231254 
231442 
231634 
232081 
232252 
232443 
232938 
233120 
233311 
233500 
234188 
234557 
234735 
234924 
235113 
235300 
235488 
235674 
236157 
236336 
236526 
237017 
237191 
237381 
237573 
237758 
237947 
238419 
238600 
238795 
238982 
239168 
239361 
239550 
239967 
240142 
240331 
240521 
241207 
241503 
241683 
241874 
242370 
242543 
242733 
242927 
243121 
243310 
243497 
243686 
243879 
244955 
245280 
245455 
245647 
245833 
246021 
246211 
246403 
246596 
247389 
247709 
247889 
248074 
248575 
248753 
248946 
249135 
249325 
249518 
249713 
249906 
250097 
250655 
251704 
252023 
252203 
252390 
252573 
252765 
252953 
253143 
253333 
253524 
253713 
253898 
254739 
255057 
255234 
255426 
255892 
256065 
256253 
256445 
256632 
256817 
257002 
257453 
257631 
257823 
258014 
258205 
258746 
259121 
259294 
259487 
259674 
259862 
260054 
260244 
260983 
261276 
261458 
261648 
261839 
262027 
262218 
262412 
262601 
263216 
263908 
264234 
264417 
264610 
264796 
264985 
265171 
265362 
265743 
265917 
266106 
266570 
266750 
266944 
267129 
267613 
267795 
267988 
268176 
268364 
268555 
268742 
268935 
269130 
270633 
270939 
271124 
271319 
271506 
271696 
271881 
272074 
272270 
272459 
272648 
272838 
273030 
273738 
274121 
274302 
274496 
274685 
274876 
275060 
275246 
275436 
275629 
276139 
276504 
276684 
276876 
277067 
277565 
277741 
277933 
278421 
278598 
278791 
278984 
279173 
279363 
279552 
280206 
280885 
281183 
281363 
281552 
281736 
281923 
283051 
283363 
283550 
283741 
283929 
284117 
284306 
284489 
284683 
284874 
285065 
285627 
286340 
286655 
286831 
287022 
287210 
287394 
287578 
287766 
287957 
288147 
288628 
288806 
288991 
289180 
289374 
289560 
290451 
290800 
290974 
291161 
291348 
291535 
291719 
291906 
292091 
292277 
292469 
292656 
292846 
293542 
294058 
294236 
294424 
294614 
294806 
294995 
295182 
295372 
295904 
296931 
297239 
297415 
297606 
297794 
297982 
298173 
298368 
298559 
298752 
298943 
299138 
299335 
300044 
300357 
300541 
300735 
300922 
301110 
301303 
301502 
301695 
301887 
302649 
302958 
303138 
303325 
303516 
303713 
303901 
304092 
304916 
305238 
305419 
305604 
305797 
305994 
306184 
306373 
306566 
306756 
306945 
307749 
308159 
308340 
308536 
308720 
308911 
309104 
309294 
309487 
309685 
309876 
310643 
311029 
311206 
311400 
311592 
311783 
311973 
312165 
312352 
312543 
312744 
312935 
313387 
313570 
313758 
314238 
314416 
314603 
314793 
314989 
315178 
315371 
315565 
316101 
317162 
317379 
317470 
317626 
317772 
317933 
318122 
318281 
318447 
318621 
319169 
319459 
319637 
319830 
320016 
320204 
321640 
321977 
322154 
322340 
322529 
322712 
322903 
323096 
323281 
323467 
323653 
323843 
324507 
324817 
324990 
325181 
325368 
325551 
325738 
325926 
326118 
326312 
326503 
326691 
327487 
328073 
328738 
329380 
329757 
329930 
330117 
330294 
330477 
330662 
330848 
331033 
331217 
332338 
332635 
332816 
333006 
333192 
333370 
333553 
333738 
333918 
334104 
334294 
334478 
334975 
335365 
335542 
335728 
335915 
336103 
336294 
336481 
337543 
337829 
338004 
338190 
338373 
338561 
338746 
338931 
339116 
339299 
339487 
339680 
339865 
340054 
340241 
341254 
341355 
341457 
341665 
341844 
342036 
342225 
342408 
342590 
342777 
342960 
343146 
343653 
344029 
344208 
344666 
344847 
345040 
345522 
345697 
345888 
346071 
346259 
346456 
346642 
346832 
347374 
348438 
348756 
348931 
349113 
349296 
349485 
349670 
349859 
350052 
350239 
350426 
351176 
351822 
352460 
352818 
352997 
353189 
353373 
353558 
353745 
353929 
354112 
354302 
354491 
354678 
355170 
355830 
356202 
356373 
356563 
356755 
356939 
357123 
357304 
357493 
357683 
357869 
358056 
358241 
358429 
358613 
358802 
358994 
359606 
360629 
360921 
361101 
361290 
361472 
361657 
361844 
362031 
362218 
362409 
362594 
362781 
362972 
364429 
364731 
364906 
365090 
365274 
365459 
365645 
365833 
366023 
366207 
366956 
367551 
368209 
368853 
369493 
369853 
370029 
370216 
370401 
370585 
370765 
370950 
371137 
371318 
371501 
371682 
371862 
372360 
372720 
372896 
373084 
373269 
373460 
373643 
373828 
374012 
374203 
374387 
374578 
374770 
374955 
375497 
375867 
376038 
376227 
376412 
376594 
376781 
376970 
377155 
377339 
377524 
377715 
377906 
378098 
378542 
378721 
378916 
379106 
379301 
380402 
380718 
380899 
381087 
381281 
381475 
381661 
381848 
382035 
382232 
382427 
382616 
383399 
383708 
383884 
384075 
384262 
384456 
384651 
384837 
385539 
385944 
386118 
386304 
386486 
386674 
386864 
387051 
387238 
387431 
387625 
388149 
388851 
389196 
389375 
389561 
389750 
389941 
390131 
390322 
390515 
390706 
390893 
391085 
391281 
391473 
391667 
392482 
392807 
392986 
393175 
393364 
393559 
393745 
393931 
394118 
394308 
394494 
394692 
395369 
395746 
395929 
396124 
396310 
396500 
396694 
396885 
397080 
397273 
397463 
397651 
397843 
398041 
398821 
399139 
399320 
399514 
399708 
399896 
400089 
400287 
400476 
400670 
400864 
401058 
401248 
401744 
402104 
402281 
402481 
402674 
402871 
403060 
403252 
403447 
403642 
403842 
404041 
404238 
404433 
404636 
405267 
405659 
405842 
406040 
406236 
406431 
406622 
406819 
407727 
408156 
408337 
408532 
408724 
408915 
409108 
409308 
409500 
409692 
409886 
410677 
410994 
411173 
411374 
411572 
411765 
411958 
412149 
412346 
412538 
412738 
412937 
413128 
413817 
414096 
414274 
414466 
414656 
414849 
415043 
415237 
415737 
416451 
416747 
416926 
417119 
417306 
417493 
417679 
417864 
418436 
418792 
418969 
419162 
419356 
419550 
419738 
419932 
420122 
420320 
420519 
420712 
421337 
421724 
421909 
422102 
422291 
422484 
422681 
422874 
423067 
423255 
423445 
423639 
423836 
424663 
425350 
425733 
425908 
426101 
426292 
426479 
426671 
426854 
427046 
427242 
427432 
427619 
427807 
428000 
428189 
428815 
429159 
429339 
429531 
429721 
429906 
430094 
430286 
430766 
431428 
431749 
431926 
432112 
432297 
432483 
432666 
432856 
433042 
433229 
433417 
433601 
433792 
434248 
434423 
434621 
434817 
435011 
436151 
436456 
436639 
436849 
437051 
437567 
438210 
438828 
439429 
440025 
440617 
440794 
440975 
441150 
441330 
441514 
441692 
441879 
442067 
442246 
442430 
442613 
442804 
442996 
443183 
443641 
443992 
444169 
444364 
444546 
444729 
444918 
445111 
445297 
445486 
445677 
445865 
446053 
446241 
446432 
446623 
446812 
447312 
447969 
448327 
448504 
448693 
448877 
449061 
449245 
449429 
449622 
449816 
450007 
450523 
451273 
451583 
451766 
451961 
452149 
452336 
452522 
452713 
452906 
453097 
453288 
453482 
453671 
454345 
454705 
454888 
455081 
455273 
455466 
455656 
455846 
456035 
456229 
456429 
456622 
457418 
457826 
458005 
458193 
458387 
458582 
458775 
458970 
459160 
459348 
459540 
459735 
460191 
460369 
460561 
460756 
460952 
461390 
461569 
461761 
