4.5859375 2.285216 1.109689 -1.175527
5.4765625 2.354437 1.144437 -1.21
6.375 2.319966 1.2 -1.119966
6.9140625 3.165331 1.940331 -1.225
8.2109375 2.341279 1.344594 -0.996685
9.15625 2.343966 1.284199 -1.059767
10.0390625 2.395214 1.284492 -1.110722
10.8984375 2.37092 1.172887 -1.198033
11.828125 2.2807440000000003 1.23283 -1.047914
12.359375 3.175111 1.951836 -1.223275
13.62890625 2.3753650000000004 1.361439 -1.013926
14.5546875 2.351038 1.314488 -1.03655
15.421875 2.3294319999999997 1.233167 -1.096265
16.33984375 2.4174189999999998 1.348721 -1.068698
17.25 2.3890919999999998 1.27 -1.119092
18.11328125 2.355095 1.195933 -1.159162
19.06640625 2.359855 1.294175 -1.06568
20.0 2.366887 1.285 -1.081887
20.87109375 2.399378 1.343548 -1.05583
21.41796875 3.3304540000000005 2.147422 -1.183032
22.71875 2.3824759999999996 1.309667 -1.072809
23.2734375 3.255129 2.196221 -1.058908
24.61328125 2.324151 1.338502 -0.985649
25.1484375 3.303756 2.235 -1.068756
26.4765625 2.380122 1.418118 -0.962004
27.046875 3.314495 2.239684 -1.074811
28.31640625 2.447008 1.449066 -0.997942
28.91796875 3.263735 2.238735 -1.025
30.1875 2.41606 1.431176 -0.984884
30.7421875 3.3086040000000003 2.399268 -0.909336
32.0703125 2.355786 1.490834 -0.864952
32.953125 2.461786 1.459139 -1.002647
33.8515625 2.461171 1.408181 -1.05299
34.7265625 2.447543 1.287543 -1.16
35.5703125 2.36475 1.221992 -1.142758
36.11328125 3.3924330000000005 2.139308 -1.253125
37.3984375 2.358659 1.294935 -1.063724
37.94140625 3.3332420000000003 2.184936 -1.148306
39.22265625 2.224929 1.147429 -1.0775
39.79296875 3.3229610000000003 2.0804 -1.242561
41.078125 2.425064 1.282212 -1.142852
41.6171875 3.516633 2.304275 -1.212358
42.91796875 2.366024 1.391795 -0.974229
43.80078125 2.424377 1.320229 -1.104148
44.66796875 2.472334 1.342657 -1.129677
45.5703125 2.389006 1.249006 -1.14
46.4453125 2.4657970000000002 1.224785 -1.241012
46.97265625 3.3824189999999996 2.157695 -1.224724
48.30859375 2.443103 1.24825 -1.194853
49.23046875 2.469989 1.219989 -1.25
49.7578125 3.514391 2.073945 -1.440446
51.08203125 2.454283 1.221959 -1.232324
52.01953125 2.458904 1.334865 -1.124039
52.5625 3.3364089999999997 2.204844 -1.131565
53.8984375 2.496582 1.442914 -1.053668
54.49609375 3.2603210000000002 2.228094 -1.032227
55.84765625 2.3771050000000002 1.368168 -1.008937
56.76953125 2.50548 1.409961 -1.095519
57.3046875 3.450846 2.194092 -1.256754
58.6171875 2.362255 1.262315 -1.09994
59.16015625 3.302973 2.15253 -1.150443
60.45703125 2.331053 1.261264 -1.069789
61.03125 3.3476039999999996 2.104167 -1.243437
62.25390625 2.381195 1.327265 -1.05393
63.17578125 2.3647479999999996 1.259399 -1.105349
64.0625 2.425195 1.171 -1.254195
64.94921875 2.366486 1.124122 -1.242364
65.89453125 2.366883 1.180568 -1.186315
66.81640625 2.42005 1.244668 -1.175382
67.79296875 2.3639010000000003 1.170755 -1.193146
68.7421875 2.440246 1.229387 -1.210859
69.640625 2.520063 1.203689 -1.316374
70.18359375 3.199303 2.019648 -1.179655
71.54296875 2.373656 1.235839 -1.137817
72.42578125 2.358179 1.193696 -1.164483
73.33984375 2.430437 1.233724 -1.196713
74.25 2.3750109999999998 1.145 -1.230011
75.1328125 2.3479479999999997 1.099726 -1.248222
76.01953125 2.375346 1.139874 -1.235472
76.9296875 2.305147 1.155327 -1.14982
77.45703125 3.078535 1.938772 -1.139763
78.80859375 2.3511420000000003 1.28 -1.071142
79.7734375 2.350249 1.27533 -1.074919
80.7109375 2.3306259999999996 1.23975 -1.090876
81.6015625 2.297264 1.115808 -1.181456
82.51171875 2.342667 1.150416 -1.192251
83.0859375 3.096024 1.939937 -1.156087
84.40625 2.2653429999999997 1.139079 -1.126264
84.9375 3.159652 2.104844 -1.054808
86.29296875 2.210604 1.216945 -0.993659
86.84375 3.1052530000000003 1.973219 -1.132034
88.1328125 2.305833 1.254812 -1.051021
89.06640625 2.214451 1.119707 -1.094744
89.9296875 2.279017 1.099655 -1.179362
90.828125 2.3959580000000003 1.122264 -1.273694
91.734375 2.247292 1.068715 -1.178577
92.625 2.39053 1.05 -1.34053
93.51953125 2.3925919999999996 1.030525 -1.362067
94.4453125 2.258541 0.987387 -1.271154
95.359375 2.365125 1.01926 -1.345865
96.26953125 2.3348959999999996 1.049931 -1.284965
97.20703125 2.2845959999999996 1.029853 -1.254743
98.1640625 2.360128 1.064728 -1.2954
99.07421875 2.346738 1.076458 -1.27028
100.04296875 2.2522349999999998 1.029053 -1.223182
100.984375 2.3781670000000004 1.081981 -1.296186
101.90234375 2.355909 1.154036 -1.201873
102.85546875 2.281924 1.049338 -1.232586
103.76953125 2.339218 1.059289 -1.279929
104.671875 2.3598860000000004 1.109917 -1.249969
105.6328125 2.34392 1.144158 -1.199762
106.53515625 2.388298 1.064092 -1.324206
107.43359375 2.392313 1.123615 -1.268698
108.375 2.336696 1.175 -1.161696
109.27734375 2.35274 1.0357 -1.31704
110.16015625 2.317657 1.05593 -1.261727
111.06640625 2.284547 1.068631 -1.215916
111.9453125 2.2920800000000003 1.053363 -1.238717
112.8515625 2.303118 1.048118 -1.255
113.75390625 2.257349 1.081236 -1.176113
114.6640625 2.323272 0.994674 -1.328598
115.578125 2.331779 1.044631 -1.287148
116.48828125 2.272739 1.028708 -1.244031
117.01953125 3.113897 1.79 -1.323897
118.3203125 2.2755330000000002 1.152356 -1.123177
119.2421875 2.298861 1.168158 -1.130703
120.140625 2.33032 1.037088 -1.293232
121.0078125 2.317502 1.051655 -1.265847
121.890625 2.218784 1.094129 -1.124655
122.796875 2.227824 1.04 -1.187824
123.66015625 2.265048 1.086155 -1.178893
124.54296875 2.279519 1.162257 -1.117262
125.08203125 3.146795 1.916086 -1.230709
126.3671875 2.289606 1.209606 -1.08
127.3125 2.30165 1.262262 -1.039388
128.22265625 2.240536 1.181384 -1.059152
129.11328125 2.310539 1.227723 -1.082816
130.04296875 2.259074 1.173657 -1.085417
130.92578125 2.259914 1.17835 -1.081564
131.46484375 3.075824 1.970555 -1.105269
132.765625 2.196874 1.177651 -1.019223
133.3125 3.222016 2.040833 -1.181183
134.62109375 2.209662 1.27562 -0.934042
135.28515625 2.8247780000000002 1.882635 -0.942143
136.5234375 2.23612 1.256202 -0.979918
137.47265625 2.202133 1.159012 -1.043121
138.3515625 2.281295 1.146295 -1.135
138.8984375 3.164053 1.953474 -1.210579
140.19140625 2.332356 1.128164 -1.204192
141.09765625 2.271116 1.084871 -1.186245
141.62890625 3.121646 1.895 -1.226646
142.9453125 2.199592 1.072418 -1.127174
143.85546875 2.282302 1.164929 -1.117373
144.765625 2.212721 1.128714 -1.084007
145.65234375 2.347971 1.178702 -1.169269
146.5234375 2.366135 1.195476 -1.170659
147.0625 3.282547 2.018438 -1.264109
148.35546875 2.175864 1.139995 -1.035869
149.3125 2.101274 1.076667 -1.024607
150.22265625 2.350483 1.181329 -1.169154
151.09765625 2.088536 1.02505 -1.063486
152.01953125 2.3637870000000003 1.194892 -1.168895
152.91015625 2.398096 1.178077 -1.220019
153.796875 2.550689 1.34809 -1.202599
154.71875 2.32562 1.238047 -1.087573
155.609375 2.454619 1.335 -1.119619
156.4921875 2.449273 1.32 -1.129273
157.421875 2.376017 1.233258 -1.142759
158.296875 2.4716060000000004 1.249297 -1.222309
158.8203125 3.289613 2.048725 -1.240888
160.14453125 2.326296 1.245821 -1.080475
161.03125 2.404027 1.223445 -1.180582
161.546875 3.123995 1.988995 -1.135
162.84375 2.294293 1.209443 -1.08485
163.73046875 2.436171 1.244887 -1.191284
164.27734375 3.115261 1.939809 -1.175452
165.53515625 2.4102629999999996 1.150564 -1.259699
166.0859375 3.1890340000000004 2.034885 -1.154149
167.3828125 2.294894 1.141005 -1.153889
168.25 2.31801 1.13 -1.18801
168.765625 3.145162 1.911836 -1.233326
170.0234375 2.2531350000000003 1.201443 -1.051692
170.8828125 2.355388 1.172682 -1.182706
171.79296875 2.2428109999999997 1.132814 -1.109997
172.703125 2.371766 1.191136 -1.18063
173.58984375 2.329327 1.102223 -1.227104
174.140625 3.033264 1.887493 -1.145771
175.54296875 2.3116820000000002 1.15653 -1.155152
176.4453125 2.3254799999999998 1.190681 -1.134799
176.9921875 3.072412 1.943328 -1.129084
178.37109375 2.275451 1.262951 -1.0125
179.35546875 2.229635 1.204244 -1.025391
179.89453125 2.9668769999999998 1.979971 -0.986906
181.24609375 2.340176 1.260262 -1.079914
182.18359375 2.250336 1.179953 -1.070383
182.71484375 3.0853289999999998 1.98428 -1.101049
184.03515625 2.261375 1.157835 -1.10354
184.9609375 2.197004 1.143698 -1.053306
185.51171875 3.125177 1.898378 -1.226799
186.83984375 2.250102 1.102769 -1.147333
187.38671875 3.1045059999999998 2.029643 -1.074863
188.7109375 2.26717 1.139847 -1.127323
189.62890625 2.2498310000000004 1.148462 -1.101369
190.15625 3.1352729999999998 1.948711 -1.186562
191.43359375 2.240061 1.163722 -1.076339
192.0 3.1872749999999996 2.03 -1.157275
193.2890625 2.232683 1.174365 -1.058318
193.85546875 3.171593 2.034952 -1.136641
195.140625 2.266307 1.316786 -0.949521
195.78125 2.83175 1.935 -0.89675
197.03125 2.298919 1.409961 -0.888958
197.5703125 3.198899 2.250353 -0.948546
198.8828125 2.268876 1.29997 -0.968906
199.44921875 3.14391 2.15 -0.99391
200.7421875 2.3203639999999996 1.358634 -0.96173
201.68359375 2.2373570000000003 1.279096 -0.958261
202.578125 2.3501529999999997 1.272177 -1.077976
203.47265625 2.3912269999999998 1.284869 -1.106358
204.4296875 2.365862 1.273396 -1.092466
205.33984375 2.3755990000000002 1.25562 -1.119979
205.86328125 3.202886 2.054023 -1.148863
207.2109375 2.2714030000000003 1.226633 -1.04477
207.77734375 3.016775 1.979673 -1.037102
209.11328125 2.261736 1.192843 -1.068893
210.0390625 2.306638 1.109653 -1.196985
210.92578125 2.36881 1.171205 -1.197605
211.48046875 3.047803 1.87521 -1.172593
212.8125 2.35286 1.112273 -1.240587
213.359375 3.302755 2.081562 -1.221193
214.6875 2.34972 1.24 -1.10972
215.23828125 3.285869 2.045 -1.240869
216.546875 2.291302 1.31482 -0.976482
217.48046875 2.339995 1.234995 -1.105
218.3515625 2.386875 1.241875 -1.145
219.28125 2.358663 1.258024 -1.100639
220.20703125 2.381151 1.18642 -1.194731
221.0859375 2.4245929999999998 1.219854 -1.204739
222.01171875 2.393287 1.197216 -1.196071
222.953125 2.365806 1.224172 -1.141634
223.89453125 2.398505 1.189907 -1.208598
224.8359375 2.437665 1.269744 -1.167921
225.79296875 2.400672 1.194013 -1.206659
226.76171875 2.3596839999999997 1.211593 -1.148091
227.2890625 3.1281540000000003 2.0 -1.128154
228.60546875 2.366942 1.299878 -1.067064
229.55859375 2.340865 1.179292 -1.161573
230.4453125 2.469146 1.257467 -1.211679
230.984375 3.165227 1.975 -1.190227
232.30859375 2.410603 1.29836 -1.112243
232.8515625 3.311247 2.07328 -1.237967
234.1796875 2.431315 1.404878 -1.026437
235.09765625 2.421088 1.292791 -1.128297
235.94140625 2.4435469999999997 1.248834 -1.194713
236.4921875 3.2799500000000004 2.089681 -1.190269
237.78515625 2.466883 1.338317 -1.128566
238.3359375 3.3278790000000003 2.205 -1.122879
239.64453125 2.4146840000000003 1.279932 -1.134752
240.5234375 2.399946 1.230986 -1.16896
241.0703125 3.1480129999999997 1.987528 -1.160485
242.37109375 2.3766990000000003 1.326869 -1.04983
243.2578125 2.449281 1.361653 -1.087628
243.80859375 3.286136 2.139665 -1.146471
245.10546875 2.4001279999999996 1.329886 -1.070242
246.0390625 2.4008149999999997 1.329721 -1.071094
246.58203125 3.248838 2.124684 -1.124154
247.890625 2.4538520000000004 1.409734 -1.044118
248.625 2.862392 1.98 -0.882392
249.859375 2.438511 1.371341 -1.06717
250.73828125 2.3783459999999996 1.353492 -1.024854
251.27734375 3.2132440000000004 2.18 -1.033244
252.6015625 2.447295 1.492295 -0.955
253.5703125 2.387826 1.414714 -0.973112
254.4609375 2.485058 1.364293 -1.120765
255.33203125 2.4107570000000003 1.341997 -1.06876
256.28125 2.378785 1.326885 -1.0519
256.80859375 3.2310670000000004 2.054689 -1.176378
258.109375 2.387368 1.433317 -0.954051
259.0625 2.388585 1.349056 -1.039529
259.9765625 2.349583 1.239583 -1.11
260.88671875 2.355318 1.257542 -1.097776
261.78125 2.311032 1.289688 -1.021344
262.30859375 3.255995 2.084832 -1.171163
263.63671875 2.428414 1.384161 -1.044253
264.5703125 2.397942 1.233606 -1.164336
265.4609375 2.422882 1.174405 -1.248477
266.3359375 2.482043 1.229373 -1.25267
267.23828125 2.4583120000000003 1.337899 -1.120413
267.78125 3.216382 2.05 -1.166382
269.10546875 2.3630839999999997 1.344874 -1.01821
270.0390625 2.410871 1.369871 -1.041
270.9765625 2.4030069999999997 1.318007 -1.085
271.8671875 2.39497 1.381453 -1.013517
272.40234375 3.22346 2.21 -1.01346
273.703125 2.2950299999999997 1.358796 -0.936234
274.23828125 3.257823 2.226503 -1.03132
275.5625 2.27319 1.348846 -0.924344
276.4765625 2.356605 1.366605 -0.99
277.3515625 2.347804 1.382804 -0.965
277.8828125 3.105256 2.111452 -0.993804
279.19921875 2.329122 1.379122 -0.95
280.08984375 2.378265 1.35 -1.028265
280.9765625 2.382866 1.267866 -1.115
281.51171875 3.247495 2.048545 -1.19895
282.8125 2.3470519999999997 1.317315 -1.029737
283.36328125 3.228282 2.088545 -1.139737
284.640625 2.37837 1.293591 -1.084779
285.23046875 3.1232860000000002 2.079984 -1.043302
286.52734375 2.327088 1.312088 -1.015
287.41015625 2.391227 1.387293 -1.003934
287.94921875 3.1798270000000004 2.193754 -0.986073
289.19921875 2.3356589999999997 1.392234 -0.943425
290.07421875 2.35973 1.373257 -0.986473
290.6171875 3.125221 2.108705 -1.016516
291.85546875 2.425379 1.459895 -0.965484
292.73046875 2.348108 1.414904 -0.933204
293.3203125 3.170399 2.142221 -1.028178
294.53515625 2.372019 1.423689 -0.94833
295.0625 3.2928749999999996 2.251667 -1.041208
296.38671875 2.245673 1.39359 -0.852083
296.9296875 3.3337890000000003 2.264437 -1.069352
298.23046875 2.294918 1.454918 -0.84
298.81640625 3.1833910000000003 2.204476 -0.978915
300.078125 2.301843 1.391843 -0.91
301.0078125 2.359896 1.35749 -1.002406
301.5390625 3.169694 2.069924 -1.09977
302.82421875 2.3795539999999997 1.361154 -1.0184
303.7265625 2.3510809999999998 1.315803 -1.035278
304.25390625 3.186741 2.080838 -1.105903
305.546875 2.3573139999999997 1.41898 -0.938334
306.4375 2.388406 1.412283 -0.976123
306.96484375 3.184195 2.142452 -1.041743
308.26171875 2.381618 1.423706 -0.957912
309.16796875 2.368759 1.379323 -0.989436
309.69140625 3.246096 2.08469 -1.161406
310.984375 2.350911 1.346614 -1.004297
311.890625 2.388458 1.402195 -0.986263
312.42578125 3.073102 2.218245 -0.854857
313.71484375 2.3093779999999997 1.414378 -0.895
314.24609375 3.225963 2.362914 -0.863049
315.5546875 2.331322 1.51705 -0.814272
316.4140625 2.309298 1.504526 -0.804772
317.25 2.326133 1.505 -0.821133
318.125 2.351138 1.425 -0.926138
318.96875 2.418921 1.419524 -0.999397
319.859375 2.339033 1.325498 -1.013535
320.7734375 2.341864 1.306641 -1.035223
321.63671875 2.4274139999999997 1.366052 -1.061362
322.16015625 3.1762319999999997 2.145753 -1.030479
323.49609375 2.358745 1.41828 -0.940465
324.04296875 3.185 2.295 -0.89
325.32421875 2.370327 1.533617 -0.83671
326.2265625 2.392507 1.502507 -0.89
327.0859375 2.42761 1.479293 -0.948317
327.6328125 3.152216 2.28608 -0.866136
328.921875 2.403562 1.403531 -1.000031
329.8046875 2.4622669999999998 1.498283 -0.963984
330.3671875 3.1466909999999997 2.215 -0.931691
331.64453125 2.447723 1.539867 -0.907856
332.51953125 2.435996 1.579278 -0.856718
333.05859375 3.197669 2.299766 -0.897903
334.3203125 2.415096 1.503696 -0.9114
335.20703125 2.454829 1.578733 -0.876096
335.74609375 3.2370959999999998 2.305493 -0.931603
336.97265625 2.401244 1.592845 -0.808399
337.8828125 2.4255060000000004 1.639374 -0.786132
338.4140625 3.1084190000000005 2.314627 -0.793792
339.6328125 2.341573 1.53437 -0.807203
340.51171875 2.4248209999999997 1.606909 -0.817912
341.04296875 3.087927 2.302927 -0.785
342.30859375 2.368253 1.428849 -0.939404
343.21484375 2.4542319999999997 1.515502 -0.93873
344.1015625 2.345395 1.361774 -0.983621
344.97265625 2.345898 1.352634 -0.993264
345.51171875 3.362959 2.172954 -1.190005
346.76953125 2.307798 1.395576 -0.912222
347.3203125 3.180431 2.219092 -0.961339
348.5703125 2.310615 1.35069 -0.959925
349.45703125 2.3511059999999997 1.396315 -0.954791
350.3125 2.405217 1.354638 -1.050579
351.17578125 2.395131 1.380131 -1.015
352.0546875 2.390964 1.331959 -1.059005
352.91015625 2.460698 1.372987 -1.087711
353.7890625 2.5011020000000004 1.409736 -1.091366
354.67578125 2.369047 1.304456 -1.064591
355.53125 2.409524 1.258047 -1.151477
356.4140625 2.443105 1.244956 -1.198149
357.34765625 2.338857 1.213322 -1.125535
358.21484375 2.4376160000000002 1.30031 -1.137306
359.09765625 2.4481159999999997 1.36972 -1.078396
360.0234375 2.4003550000000002 1.229643 -1.170712
360.890625 2.440814 1.270975 -1.169839
361.41015625 3.3573299999999997 2.135 -1.22233
362.6953125 2.432162 1.319383 -1.112779
363.234375 3.2557460000000003 2.116836 -1.13891
364.53515625 2.376046 1.402765 -0.973281
365.44140625 2.461075 1.376704 -1.084371
366.29296875 2.4648529999999997 1.44 -1.024853
366.86328125 3.196418 2.168802 -1.027616
368.13671875 2.479403 1.395 -1.084403
368.67578125 3.436046 2.289553 -1.146493
369.95703125 2.39783 1.332996 -1.064834
370.83203125 2.505709 1.355906 -1.149803
371.3671875 3.162063 2.157366 -1.004697
372.6328125 2.407695 1.448933 -0.958762
373.5078125 2.468264 1.435 -1.033264
374.02734375 3.1662549999999996 2.176255 -0.99
375.30078125 2.457874 1.433941 -1.023933
376.17578125 2.456993 1.434249 -1.022744
376.69921875 3.245448 2.174523 -1.070925
377.96875 2.418557 1.428074 -0.990483
378.85546875 2.4263339999999998 1.376334 -1.05
379.40234375 3.223858 2.129619 -1.094239
380.68359375 2.412648 1.393404 -1.019244
381.5625 2.355607 1.295893 -1.059714
382.1171875 3.2056459999999998 2.093572 -1.112074
383.40625 2.3350850000000003 1.270068 -1.065017
384.26171875 2.3629949999999997 1.22203 -1.140965
384.78515625 3.2548909999999998 2.045 -1.209891
386.0390625 2.359072 1.204813 -1.154259
386.9296875 2.3726849999999997 1.142563 -1.230122
387.8046875 2.403875 1.142129 -1.261746
388.6953125 2.331447 1.091447 -1.24
389.62109375 2.444735 1.124891 -1.319844
390.51953125 2.4648950000000003 1.204934 -1.259961
391.4296875 2.317667 1.119246 -1.198421
392.3359375 2.386977 1.192163 -1.194814
393.23046875 2.396129 1.169907 -1.226222
394.1640625 2.3252829999999998 1.169697 -1.155586
394.7109375 3.1389519999999997 1.850422 -1.28853
396.01171875 2.359656 1.154174 -1.205482
396.97265625 2.24708 1.11771 -1.12937
397.86328125 2.327547 1.11 -1.217547
398.7109375 2.4043270000000003 1.10972 -1.294607
399.625 2.4016599999999997 1.21 -1.19166
400.48828125 2.453605 1.185241 -1.268364
401.375 2.375733 1.17 -1.205733
402.2890625 2.392843 1.22452 -1.168323
403.15625 2.387149 1.129287 -1.257862
404.05078125 2.4402869999999997 1.139101 -1.301186
404.9765625 2.334775 1.144775 -1.19
405.859375 2.4326160000000003 1.092422 -1.340194
406.734375 2.4229890000000003 1.117054 -1.305935
407.6484375 2.315352 1.075808 -1.239544
408.54296875 2.443152 1.063714 -1.379438
409.44921875 2.3911439999999997 1.031742 -1.359402
410.34765625 2.341 1.06773 -1.27327
411.2265625 2.435854 0.995854 -1.44
412.12890625 2.476168 1.026905 -1.449263
413.0234375 2.3256110000000003 1.066578 -1.259033
413.8828125 2.3644999999999996 1.001005 -1.363495
414.76953125 2.450564 1.094905 -1.355659
415.6796875 2.349512 1.076434 -1.273078
416.57421875 2.373353 1.020289 -1.353064
417.4453125 2.341374 1.031994 -1.30938
418.34375 2.4073539999999998 1.118711 -1.288643
419.2578125 2.375522 1.07716 -1.298362
420.09765625 2.4902870000000004 1.15091 -1.339377
420.96484375 2.422342 1.125811 -1.296531
421.5 3.1885719999999997 1.92 -1.268572
422.765625 2.475352 1.179725 -1.295627
423.703125 2.458885 1.19402 -1.264865
424.60546875 2.424862 1.144862 -1.28
425.4609375 2.4571199999999997 1.219352 -1.237768
426.36328125 2.448585 1.206237 -1.242348
426.91796875 3.276478 1.944066 -1.332412
428.20703125 2.481783 1.330948 -1.150835
429.140625 2.430016 1.255838 -1.174178
430.0078125 2.504016 1.227562 -1.276454
430.90234375 2.505817 1.242727 -1.26309
431.82421875 2.41958 1.135 -1.28458
432.69140625 2.482522 1.148177 -1.334345
433.609375 2.4919960000000003 1.190884 -1.301112
434.5546875 2.467065 1.177017 -1.290048
435.4453125 2.4838120000000004 1.17948 -1.304332
435.96484375 3.26136 1.972354 -1.289006
437.2890625 2.352115 1.264928 -1.087187
438.19921875 2.413554 1.286177 -1.127377
438.75 3.197672 2.11 -1.087672
440.0703125 2.391833 1.34 -1.051833
440.96875 2.400255 1.32 -1.080255
441.52734375 3.225173 2.149664 -1.075509
442.85546875 2.474896 1.409896 -1.065
443.734375 2.4047 1.336406 -1.068294
444.26953125 3.3187800000000003 2.164927 -1.153853
445.53515625 2.438465 1.413806 -1.024659
446.43359375 2.377576 1.389116 -0.98846
446.9609375 3.3919610000000002 2.2 -1.191961
448.2109375 2.3646599999999998 1.309928 -1.054732
448.76953125 3.2718749999999996 2.13 -1.141875
450.046875 2.3355189999999997 1.284914 -1.050605
450.9296875 2.4257600000000004 1.241011 -1.184749
451.7734375 2.417072 1.267957 -1.149115
452.3046875 3.299067 2.162473 -1.136594
453.625 2.431132 1.35 -1.081132
454.51171875 2.425395 1.260322 -1.165073
455.41796875 2.434061 1.287963 -1.146098
456.36328125 2.474788 1.292983 -1.181805
457.25 2.4319100000000002 1.26 -1.17191
458.140625 2.410803 1.326319 -1.084484
459.0703125 2.430459 1.285693 -1.144766
459.95703125 2.464918 1.27383 -1.191088
460.48828125 3.245333 2.032248 -1.213085
461.82421875 2.3712239999999998 1.326654 -1.04457
462.3671875 3.355377 2.127992 -1.227385
463.69140625 2.4068709999999998 1.40381 -1.003061
464.6328125 2.470403 1.369023 -1.10138
465.4921875 2.399757 1.304567 -1.09519
466.04296875 3.366954 2.11 -1.256954
467.34375 2.3776010000000003 1.308917 -1.068684
467.8984375 3.269555 2.121248 -1.148307
469.20703125 2.345 1.35 -0.995
469.75390625 3.3338900000000002 2.137208 -1.196682
471.0625 2.410878 1.281048 -1.12983
471.9921875 2.319725 1.274819 -1.044906
472.83984375 2.391101 1.205657 -1.185444
473.71875 2.422507 1.166333 -1.256174
474.61328125 2.344189 1.164444 -1.179745
475.1484375 3.224573 1.980918 -1.243655
476.46484375 2.3250070000000003 1.168689 -1.156318
477.40234375 2.380566 1.203636 -1.17693
478.3359375 2.3748620000000003 1.189903 -1.184959
479.21484375 2.4325140000000003 1.240757 -1.191757
480.10546875 2.3826859999999996 1.184783 -1.197903
480.65625 3.2678279999999997 1.952969 -1.314859
481.953125 2.3987249999999998 1.260134 -1.138591
482.92578125 2.3597099999999998 1.299723 -1.059987
483.8359375 2.397261 1.154653 -1.242608
484.7109375 2.49513 1.224359 -1.270771
485.65234375 2.383968 1.152391 -1.231577
486.53125 2.3085519999999997 1.0511 -1.257452
487.41015625 2.477208 1.203806 -1.273402
488.34765625 2.4219679999999997 1.177716 -1.244252
489.22265625 2.4311819999999997 1.115 -1.316182
490.1171875 2.433613 1.139803 -1.29381
491.05859375 2.403117 1.226694 -1.176423
491.96484375 2.399502 1.10557 -1.293932
492.86328125 2.4808009999999996 1.206624 -1.274177
493.7890625 2.4244570000000003 1.202598 -1.221859
494.6875 2.47554 1.140735 -1.334805
495.56640625 2.402828 1.119718 -1.28311
496.46484375 2.392886 1.152937 -1.239949
497.3671875 2.367421 1.048735 -1.318686
498.265625 2.432428 1.097598 -1.33483
499.15625 2.450987 1.135987 -1.315
500.04296875 2.3505220000000002 0.990948 -1.359574
500.93359375 2.435036 1.058631 -1.376405
501.83203125 2.455291 1.005341 -1.44995
502.7109375 2.40957 0.984956 -1.424614
503.57421875 2.4767989999999998 1.093548 -1.383251
504.4765625 2.429175 1.119175 -1.31
505.37890625 2.368557 1.004908 -1.363649
506.25390625 2.4890499999999998 1.15129 -1.33776
507.15625 2.479982 1.11467 -1.365312
508.0546875 2.449708 1.05392 -1.395788
508.953125 2.443652 1.090112 -1.35354
509.86328125 2.433799 1.067202 -1.366597
510.76171875 2.495463 1.072025 -1.423438
511.64453125 2.476959 1.209781 -1.267178
512.57421875 2.434354 1.061877 -1.372477
513.46484375 2.511393 1.054379 -1.457014
514.36328125 2.4843200000000003 1.1324 -1.35192
515.29296875 2.392615 1.045302 -1.347313
516.17578125 2.453999 1.074511 -1.379488
517.0703125 2.493538 1.182757 -1.310781
517.96875 2.477971 1.123813 -1.354158
518.84765625 2.446204 1.091329 -1.354875
519.734375 2.500372 1.175288 -1.325084
520.66015625 2.4089359999999997 1.164914 -1.244022
521.56640625 2.4626159999999997 1.128834 -1.333782
522.4375 2.476986 1.173 -1.303986
523.3828125 2.454064 1.266483 -1.187581
524.3125 2.466713 1.161935 -1.304778
525.1796875 2.505284 1.204159 -1.301125
526.09375 2.433462 1.198462 -1.235
526.98828125 2.479844 1.24603 -1.233814
527.875 2.489007 1.29 -1.199007
528.78125 2.397875 1.258632 -1.139243
529.66796875 2.4202120000000003 1.215258 -1.204954
530.5703125 2.490122 1.311724 -1.178398
531.48046875 2.488906 1.379865 -1.109041
532.36328125 2.435439 1.308699 -1.12674
533.24609375 2.512013 1.341236 -1.170777
534.14453125 2.4549830000000004 1.29 -1.164983
535.046875 2.487748 1.249621 -1.238127
535.94921875 2.537624 1.326017 -1.211607
536.8515625 2.472713 1.31333 -1.159383
537.75390625 2.477115 1.288053 -1.189062
538.6328125 2.45984 1.259134 -1.200706
539.49609375 2.4123840000000003 1.192384 -1.22
540.36328125 2.494954 1.185 -1.309954
541.22265625 2.498942 1.267543 -1.231399
542.09375 2.465541 1.205405 -1.260136
542.98828125 2.5237800000000004 1.164749 -1.359031
543.84375 2.4860680000000004 1.235281 -1.250787
544.75 2.501216 1.255 -1.246216
545.30859375 3.371579 2.049726 -1.321853
546.59765625 2.447217 1.417618 -1.029599
547.54296875 2.393167 1.397932 -0.995235
548.44921875 2.4079189999999997 1.347372 -1.060547
549.32421875 2.518168 1.441458 -1.07671
550.2578125 2.421513 1.424652 -0.996861
550.77734375 3.274699 2.229844 -1.044855
552.09375 2.520438 1.532598 -0.98784
553.0625 2.50303 1.518095 -0.984935
553.984375 2.507011 1.439744 -1.067267
554.8828125 2.4714270000000003 1.36 -1.111427
555.79296875 2.462675 1.380302 -1.082373
556.32421875 3.253076 2.194447 -1.058629
557.66796875 2.4798020000000003 1.395953 -1.083849
558.6171875 2.407717 1.332717 -1.075
559.53125 2.516577 1.372543 -1.144034
560.43359375 2.5474759999999996 1.433209 -1.114267
561.33984375 2.3930379999999998 1.395 -0.998038
561.86328125 3.196878 2.188545 -1.008333
563.1796875 2.4331959999999997 1.419932 -1.013264
564.12890625 2.372096 1.38803 -0.984066
565.0390625 2.406916 1.299875 -1.107041
565.8984375 2.495019 1.314824 -1.180195
566.80859375 2.4197230000000003 1.272223 -1.1475
567.6875 2.427244 1.267344 -1.1599
568.22265625 3.25 2.1 -1.15
569.55078125 2.341772 1.343093 -0.998679
570.4453125 2.396106 1.339159 -1.056947
570.9765625 3.14939 2.163144 -0.986246
572.34765625 2.350121 1.414234 -0.935887
573.26171875 2.364639 1.407174 -0.957465
573.78515625 3.201893 2.138431 -1.063462
575.13671875 2.377746 1.334746 -1.043
576.06640625 2.367682 1.369953 -0.997729
576.58984375 3.162071 2.092551 -1.06952
577.8984375 2.2978370000000004 1.194992 -1.102845
578.828125 2.356603 1.214139 -1.142464
579.37109375 3.1956160000000002 1.99279 -1.202826
580.6796875 2.390334 1.18 -1.210334
581.60546875 2.404857 1.26991 -1.134947
582.14453125 3.2787 2.04998 -1.22872
583.453125 2.4051910000000003 1.262197 -1.142994
584.0078125 3.207365 2.137412 -1.069953
585.33203125 2.300391 1.228673 -1.071718
586.21875 2.426787 1.308429 -1.118358
586.7734375 3.2187799999999998 2.093774 -1.125006
588.04296875 2.35724 1.281942 -1.075298
588.96484375 2.328046 1.283562 -1.044484
589.515625 3.237507 2.082282 -1.155225
590.796875 2.3429320000000002 1.244355 -1.098577
591.6796875 2.34555 1.202481 -1.143069
592.19921875 3.129035 2.072118 -1.056917
593.47265625 2.294766 1.22861 -1.066156
594.0234375 3.265567 2.156978 -1.108589
595.3125 2.319239 1.239355 -1.079884
596.171875 2.3818900000000003 1.284402 -1.097488
596.7265625 3.19092 2.05842 -1.1325
597.97265625 2.383665 1.339871 -1.043794
598.83203125 2.338514 1.343657 -0.994857
599.37109375 3.200322 2.13786 -1.062462
600.703125 2.3090159999999997 1.265 -1.044016
601.64453125 2.357576 1.354915 -1.002661
602.171875 3.2024880000000002 2.171797 -1.030691
603.5 2.354092 1.385 -0.969092
604.42578125 2.403875 1.409133 -0.994742
605.34375 2.337883 1.352087 -0.985796
606.234375 2.34351 1.29 -1.05351
607.12890625 2.44815 1.351367 -1.096783
608.02734375 2.428757 1.33147 -1.097287
608.94140625 2.340356 1.193107 -1.147249
609.82421875 2.445815 1.255125 -1.19069
610.375 3.2035 2.025 -1.1785
611.6953125 2.3743730000000003 1.306399 -1.067974
612.59765625 2.466514 1.432688 -1.033826
613.1328125 3.22673 2.136522 -1.090208
614.4296875 2.431837 1.340094 -1.091743
614.96875 3.250233 2.249219 -1.001014
616.2890625 2.330669 1.2449 -1.085769
617.1796875 2.388281 1.256417 -1.131864
618.03125 2.459868 1.284872 -1.174996
618.91796875 2.3830039999999997 1.20521 -1.177794
619.80859375 2.4236459999999997 1.213729 -1.209917
620.67578125 2.420725 1.268941 -1.151784
621.5859375 2.382292 1.229571 -1.152721
622.109375 3.18651 1.920506 -1.266004
623.41796875 2.386914 1.38991 -0.997004
624.38671875 2.347407 1.343664 -1.003743
625.265625 2.3446670000000003 1.251633 -1.093034
626.125 2.418387 1.315 -1.103387
627.05859375 2.400805 1.314584 -1.086221
627.58984375 3.1416690000000003 2.042231 -1.099438
628.8984375 2.466707 1.305 -1.161707
629.87109375 2.450886 1.33596 -1.114926
630.78515625 2.4352080000000003 1.292097 -1.143111
631.69140625 2.46852 1.289837 -1.178683
632.609375 2.460088 1.314663 -1.145425
633.1328125 3.219925 2.083675 -1.13625
634.49609375 2.4348609999999997 1.39 -1.044861
635.453125 2.4270110000000003 1.352031 -1.07498
636.34765625 2.481794 1.29198 -1.189814
637.2109375 2.4838570000000004 1.35468 -1.129177
638.12109375 2.37522 1.305949 -1.069271
639.0390625 2.4149450000000003 1.269554 -1.145391
639.90625 2.4161010000000003 1.304789 -1.111312
640.8203125 2.404084 1.306849 -1.097235
641.7421875 2.381687 1.217655 -1.164032
642.61328125 2.484715 1.29417 -1.190545
643.515625 2.418905 1.263926 -1.154979
644.421875 2.487678 1.23973 -1.247948
645.3046875 2.463381 1.238658 -1.224723
646.2421875 2.399822 1.191836 -1.207986
647.12890625 2.4858710000000004 1.116497 -1.369374
648.0078125 2.453785 1.186114 -1.267671
648.953125 2.4773259999999997 1.132197 -1.345129
649.82421875 2.553304 1.212628 -1.340676
650.3359375 3.416576 2.02982 -1.386756
651.65625 2.441849 1.287885 -1.153964
652.5546875 2.497493 1.368625 -1.128868
653.08984375 3.295389 2.217231 -1.078158
654.3984375 2.397898 1.39677 -1.001128
655.30078125 2.406023 1.321535 -1.084488
656.203125 2.495208 1.369167 -1.126041
657.1015625 2.451702 1.271702 -1.18
657.95703125 2.427616 1.212616 -1.215
658.8359375 2.499499 1.309345 -1.190154
659.75 2.372171 1.22 -1.152171
660.66015625 2.362933 1.155492 -1.207441
661.53125 2.443635 1.204462 -1.239173
662.45703125 2.389209 1.181211 -1.207998
663.36328125 2.4477260000000003 1.235698 -1.212028
664.26953125 2.4811690000000004 1.319935 -1.161234
665.18359375 2.363105 1.204452 -1.158653
666.08984375 2.427293 1.188411 -1.238882
666.98828125 2.3595810000000004 1.249003 -1.110578
667.9375 2.379724 1.253598 -1.126126
668.828125 2.45137 1.296645 -1.154725
669.3671875 3.202649 2.102052 -1.100597
670.71875 2.316447 1.31429 -1.002157
671.6328125 2.4231610000000003 1.401024 -1.022137
672.171875 3.3785220000000002 2.20377 -1.174752
673.47265625 2.375806 1.47457 -0.901236
674.37890625 2.423907 1.439952 -0.983955
674.91796875 3.1370899999999997 2.195 -0.94209
676.2421875 2.393094 1.484309 -0.908785
677.12109375 2.429497 1.409681 -1.019816
678.04296875 2.4078980000000003 1.453545 -0.954353
678.9296875 2.327863 1.28873 -1.039133
679.78125 2.4426449999999997 1.320017 -1.122628
680.32421875 3.166226 2.103302 -1.062924
681.640625 2.3759040000000002 1.420925 -0.954979
682.55078125 2.420909 1.392606 -1.028303
683.09375 3.205246 2.187135 -1.018111
684.40234375 2.294176 1.426925 -0.867251
685.296875 2.25854 1.293737 -0.964803
686.19140625 2.387191 1.32417 -1.063021
687.078125 2.4045490000000003 1.227176 -1.177373
687.9609375 2.356774 1.267119 -1.089655
688.484375 3.239108 2.060781 -1.178327
689.78125 2.366726 1.324051 -1.042675
690.6953125 2.430306 1.381589 -1.048717
691.234375 3.1080509999999997 2.085625 -1.022426
692.5234375 2.377196 1.363312 -1.013884
693.46484375 2.3655980000000003 1.299366 -1.066232
694.375 2.3417950000000003 1.23 -1.111795
695.23046875 2.331212 1.18985 -1.141362
696.109375 2.377999 1.196841 -1.181158
697.0078125 2.331913 1.175725 -1.156188
697.890625 2.371032 1.164157 -1.206875
698.76953125 2.3947190000000003 1.194789 -1.19993
699.66796875 2.321564 1.18661 -1.134954
700.56640625 2.4123900000000003 1.214461 -1.197929
701.46484375 2.443567 1.264639 -1.178928
702.33984375 2.300695 1.173724 -1.126971
703.234375 2.355907 1.192598 -1.163309
704.109375 2.415492 1.231966 -1.183526
705.0234375 2.376634 1.179883 -1.196751
705.93359375 2.391368 1.229111 -1.162257
706.7890625 2.446663 1.269622 -1.177041
707.7109375 2.302315 1.197598 -1.104717
708.23828125 3.0837209999999997 1.979002 -1.104719
709.53515625 2.400716 1.343708 -1.057008
710.48046875 2.369237 1.289847 -1.07939
711.36328125 2.422039 1.286073 -1.135966
712.265625 2.458101 1.293464 -1.164637
713.1875 2.3458449999999997 1.240735 -1.10511
713.7109375 3.1987110000000003 2.079937 -1.118774
715.03125 2.414772 1.340068 -1.074704
715.984375 2.2879899999999997 1.253593 -1.034397
716.859375 2.382143 1.167143 -1.215
717.734375 2.418195 1.240859 -1.177336
718.6015625 2.43559 1.22559 -1.21
719.13671875 3.327749 2.073908 -1.253841
720.44140625 2.403003 1.298884 -1.104119
721.359375 2.345805 1.255925 -1.08988
722.25 2.4044369999999997 1.285 -1.119437
723.13671875 2.4850320000000004 1.358581 -1.126451
724.05078125 2.374927 1.305439 -1.069488
724.5703125 3.139927 2.10651 -1.033417
725.89453125 2.384454 1.429905 -0.954549
726.859375 2.3162789999999998 1.336406 -0.979873
727.78125 2.3894010000000003 1.347137 -1.042264
728.68359375 2.40154 1.364326 -1.037214
729.625 2.296494 1.25 -1.046494
730.51953125 2.3634589999999998 1.274961 -1.088498
731.05078125 3.222518 2.08 -1.142518
732.3828125 2.385422 1.308391 -1.077031
733.2890625 2.3166010000000004 1.303295 -1.013306
733.8125 3.16835 2.138698 -1.029652
735.16015625 2.333114 1.29403 -1.039084
736.0703125 2.3643229999999997 1.380634 -0.983689
736.59375 3.194617 2.165 -1.029617
737.9296875 2.330568 1.343987 -0.986581
738.48046875 3.1687459999999996 2.214946 -0.9538
739.84375 2.264148 1.324281 -0.939867
740.74609375 2.378914 1.290032 -1.088882
741.66796875 2.3013899999999996 1.273321 -1.028069
742.609375 2.36602 1.221816 -1.144204
743.484375 2.453882 1.254662 -1.19922
744.015625 3.132168 2.038008 -1.09416
745.34375 2.2890639999999998 1.240732 -1.048332
745.89453125 3.1846639999999997 2.139957 -1.044707
747.203125 2.297744 1.357744 -0.94
748.12109375 2.335563 1.225672 -1.109891
748.99609375 2.369858 1.28828 -1.081578
749.53515625 3.137281 2.098431 -1.03885
750.83984375 2.252089 1.247329 -1.00476
751.38671875 3.260847 2.073946 -1.186901
752.7109375 2.331181 1.214526 -1.116655
753.65625 2.364408 1.169212 -1.195196
754.51953125 2.4335940000000003 1.189905 -1.243689
755.421875 2.417242 1.234483 -1.182759
756.33984375 2.330622 1.112442 -1.21818
757.234375 2.407507 1.111138 -1.296369
757.76171875 3.241635 1.889397 -1.352238
759.07421875 2.315075 1.087532 -1.227543
759.9921875 2.414245 1.16 -1.254245
760.53125 3.149009 1.9775 -1.171509
761.8359375 2.356939 1.264534 -1.092405
762.734375 2.3775649999999997 1.257618 -1.119947
763.265625 3.205473 2.055117 -1.150356
764.58203125 2.321936 1.276959 -1.044977
765.49609375 2.368408 1.263613 -1.104795
766.01953125 3.1232699999999998 1.984914 -1.138356
767.3359375 2.367267 1.194785 -1.172482
767.8984375 3.145371 2.027607 -1.117764
769.2109375 2.3072920000000003 1.229429 -1.077863
769.75390625 3.20289 2.05 -1.15289
771.0390625 2.344758 1.244758 -1.1
771.96875 2.326263 1.164281 -1.161982
772.828125 2.3610860000000002 1.183298 -1.177788
773.359375 3.142951 1.948345 -1.194606
774.671875 2.348508 1.232732 -1.115776
775.58984375 2.369208 1.202895 -1.166313
776.109375 3.1166169999999997 1.991943 -1.124674
777.4375 2.363977 1.199208 -1.164769
778.33984375 2.411084 1.21578 -1.195304
778.8828125 3.22235 2.068228 -1.154122
780.2109375 2.3650450000000003 1.30475 -1.060295
781.109375 2.415257 1.32298 -1.092277
781.66015625 3.1480319999999997 2.100532 -1.0475
782.94921875 2.3727489999999998 1.311118 -1.061631
783.8515625 2.4277379999999997 1.282738 -1.145
784.38671875 3.2654110000000003 1.99 -1.275411
785.6640625 2.323812 1.244625 -1.079187
786.2109375 3.327528 2.079659 -1.247869
787.49609375 2.268414 1.133214 -1.1352
788.046875 3.324642 2.019551 -1.305091
789.34765625 2.381976 1.251271 -1.130705
790.015625 2.805978 1.821582 -0.984396
791.24609375 2.374662 1.289042 -1.08562
792.19921875 2.273412 1.234557 -1.038855
793.09765625 2.289785 1.141451 -1.148334
793.99609375 2.3676519999999996 1.222718 -1.144934
794.90234375 2.286611 1.166611 -1.12
795.41796875 3.170037 1.986649 -1.183388
796.76171875 2.330128 1.313881 -1.016247
797.72265625 2.3223089999999997 1.313005 -1.009304
798.6171875 2.358067 1.259366 -1.098701
799.5078125 2.387601 1.196292 -1.191309
800.4375 2.300339 1.188693 -1.111646
801.35546875 2.3560879999999997 1.081088 -1.275
802.2265625 2.4734309999999997 1.183001 -1.29043
803.13671875 2.388133 1.179463 -1.20867
804.046875 2.422341 1.142855 -1.279486
804.95703125 2.427416 1.226342 -1.201074
805.85546875 2.378555 1.124909 -1.253646
806.7421875 2.415949 1.185765 -1.230184
807.62109375 2.487549 1.237616 -1.249933
808.546875 2.421631 1.237732 -1.183899
809.41015625 2.466267 1.297869 -1.168398
810.27734375 2.492498 1.372917 -1.119581
811.20703125 2.484933 1.274983 -1.20995
812.08203125 2.448448 1.222608 -1.22584
812.94921875 2.4530510000000003 1.252779 -1.200272
813.8671875 2.4846269999999997 1.290798 -1.193829
814.73046875 2.505112 1.2799 -1.225212
815.625 2.469423 1.325 -1.144423
816.54296875 2.429812 1.337383 -1.092429
817.0625 3.2242129999999998 2.1225 -1.101713
818.36328125 2.464156 1.418537 -1.045619
819.3125 2.373779 1.399386 -0.974393
820.203125 2.499485 1.362053 -1.137432
821.10546875 2.490589 1.38 -1.110589
822.00390625 2.488028 1.267761 -1.220267
822.88671875 2.44358 1.197108 -1.246472
823.4296875 3.195 1.94 -1.255
824.77734375 2.419317 1.208677 -1.21064
825.31640625 3.2028030000000003 1.945 -1.257803
826.6484375 2.382176 1.178875 -1.203301
827.59375 2.429751 1.060865 -1.368886
828.4765625 2.455846 1.065846 -1.39
828.9921875 3.257579 1.814085 -1.443494
830.34375 2.374581 1.085428 -1.289153
830.90234375 3.234099 1.87 -1.364099
832.2109375 2.370372 1.099574 -1.270798
833.14453125 2.3872090000000004 1.109968 -1.277241
834.04296875 2.38692 1.121966 -1.264954
834.578125 3.189019 1.959519 -1.2295
835.8984375 2.33375 1.17 -1.16375
836.84375 2.356756 1.170455 -1.186301
837.37109375 3.106562 1.967566 -1.138996
838.71875 2.372609 1.245 -1.127609
839.25390625 3.41775 2.1638 -1.25395
840.5859375 2.321551 1.174817 -1.146734
841.49609375 2.353651 1.128832 -1.224819
842.37109375 2.370762 1.105811 -1.264951
843.2578125 2.349292 1.062703 -1.286589
844.12890625 2.374433 1.070468 -1.303965
844.99609375 2.372292 1.083143 -1.289149
845.921875 2.346635 1.087707 -1.258928
846.828125 2.3350020000000002 1.023676 -1.311326
847.71875 2.3719099999999997 1.088019 -1.283891
848.6796875 2.305677 1.06076 -1.244917
849.609375 2.34524 1.029126 -1.316114
850.5 2.403982 1.115 -1.288982
851.44140625 2.327784 1.089953 -1.237831
852.34375 2.392915 1.043359 -1.349556
853.26171875 2.452352 1.119959 -1.332393
854.171875 2.378787 1.167773 -1.211014
855.05078125 2.365881 1.124133 -1.241748
855.59765625 3.182897 1.944855 -1.238042
856.94140625 2.379214 1.189026 -1.190188
857.83984375 2.3866639999999997 1.152177 -1.234487
858.75390625 2.4067540000000003 1.206614 -1.20014
859.67578125 2.352187 1.253165 -1.099022
860.578125 2.4087820000000004 1.234039 -1.174743
861.45703125 2.405003 1.280003 -1.125
862.34375 2.317135 1.199141 -1.117994
863.24609375 2.363855 1.140334 -1.223521
864.109375 2.376014 1.156856 -1.219158
864.9765625 2.3682 1.179348 -1.188852
865.8515625 2.35318 1.10298 -1.2502
866.72265625 2.433913 1.165568 -1.268345
867.640625 2.392893 1.149334 -1.243559
868.51171875 2.451441 1.238529 -1.212912
869.03515625 3.2390670000000004 2.032661 -1.206406
870.35546875 2.374917 1.23986 -1.135057
871.265625 2.4294219999999997 1.199926 -1.229496
871.80078125 3.2522149999999996 1.999523 -1.252692
873.109375 2.426069 1.232088 -1.193981
874.0 2.4041129999999997 1.2 -1.204113
874.921875 2.408143 1.235 -1.173143
875.83203125 2.360891 1.149148 -1.211743
876.6953125 2.476844 1.150352 -1.326492
877.6015625 2.4643740000000003 1.184374 -1.28
878.51953125 2.422721 1.20491 -1.217811
879.37109375 2.407365 1.127485 -1.27988
880.28515625 2.4879680000000004 1.243189 -1.244779
881.19921875 2.362531 1.236987 -1.125544
882.109375 2.4114709999999997 1.163481 -1.24799
883.00390625 2.5185310000000003 1.285949 -1.232582
883.921875 2.432685 1.249917 -1.182768
884.453125 3.1272290000000003 2.013895 -1.113334
885.7890625 2.431245 1.24472 -1.186525
886.7265625 2.447701 1.326129 -1.121572
887.66015625 2.4585679999999996 1.234468 -1.2241
888.546875 2.472009 1.183276 -1.288733
889.46875 2.4073409999999997 1.148024 -1.259317
890.0078125 3.291759 1.921493 -1.370266
891.30859375 2.437436 1.153902 -1.283534
892.28125 2.364887 1.195428 -1.169459
893.18359375 2.382479 1.148842 -1.233637
894.0625 2.4695349999999996 1.240395 -1.22914
895.0 2.4587190000000003 1.28 -1.178719
895.890625 2.450081 1.195876 -1.254205
896.7890625 2.467287 1.289818 -1.177469
897.7265625 2.382644 1.234775 -1.147869
898.6015625 2.5388450000000002 1.313845 -1.225
899.125 3.197356 2.1 -1.097356
900.4921875 2.432274 1.378682 -1.053592
901.03515625 3.3752459999999997 2.198536 -1.17671
902.35546875 2.389989 1.479989 -0.91
903.2734375 2.41448 1.400973 -1.013507
904.15625 2.426898 1.324669 -1.102229
904.70703125 3.3027 2.179444 -1.123256
906.0078125 2.455219 1.418444 -1.036775
906.921875 2.36979 1.319914 -1.049876
907.82421875 2.357647 1.350317 -1.00733
908.3828125 3.2540750000000003 2.074268 -1.179807
909.66015625 2.471706 1.422782 -1.048924
910.5859375 2.396344 1.39164 -1.004704
911.49609375 2.4246369999999997 1.383486 -1.041151
912.3828125 2.531274 1.4041 -1.127174
912.9375 3.289283 2.148 -1.141283
914.25390625 2.393197 1.414194 -0.979003
915.15625 2.493816 1.517692 -0.976124
916.07421875 2.52756 1.557092 -0.970468
916.98046875 2.498118 1.524874 -0.973244
917.8984375 2.44956 1.355897 -1.093663
918.78125 2.53916 1.419664 -1.119496
919.70703125 2.5065720000000002 1.416772 -1.0898
920.62109375 2.475428 1.396133 -1.079295
921.48828125 2.583408 1.431738 -1.15167
922.0625 3.24866 2.192 -1.05666
923.3671875 2.427995 1.4 -1.027995
924.25390625 2.51279 1.378462 -1.134328
925.125 2.595139 1.495 -1.100139
926.0078125 2.4512419999999997 1.353634 -1.097608
926.89453125 2.4557539999999998 1.294968 -1.160786
927.75 2.549 1.365 -1.184
928.64453125 2.511926 1.329923 -1.182003
929.17578125 3.2309609999999997 2.093082 -1.137879
930.4921875 2.526803 1.484509 -1.042294
931.43359375 2.417227 1.423118 -0.994109
932.3671875 2.520619 1.391247 -1.129372
933.2421875 2.542316 1.436662 -1.105654
934.1796875 2.455172 1.422183 -1.032989
935.109375 2.450123 1.398473 -1.05165
935.9921875 2.569862 1.523187 -1.046675
936.9296875 2.444865 1.382378 -1.062487
937.83984375 2.448471 1.317245 -1.131226
938.72265625 2.5187910000000002 1.408522 -1.110269
939.66796875 2.435207 1.39 -1.045207
940.58984375 2.505983 1.294388 -1.211595
941.50390625 2.556062 1.283193 -1.272869
942.4609375 2.486163 1.269496 -1.216667
943.3671875 2.523243 1.266262 -1.256981
944.30078125 2.5354010000000002 1.326896 -1.208505
945.22265625 2.468738 1.186394 -1.282344
946.09375 2.486685 1.101818 -1.384867
946.63671875 3.288264 1.968937 -1.319327
947.94921875 2.322206 1.168474 -1.153732
948.87109375 2.4934969999999996 1.338598 -1.154899
949.43359375 3.2262120000000003 2.129817 -1.096395
950.72265625 2.4204730000000003 1.335658 -1.084815
951.65234375 2.457102 1.346359 -1.110743
952.1796875 3.188136 2.087415 -1.100721
953.4609375 2.409081 1.330579 -1.078502
954.37890625 2.4721070000000003 1.361973 -1.110134
954.91015625 3.2590839999999996 2.153634 -1.10545
956.2109375 2.3864720000000004 1.314289 -1.072183
957.14453125 2.423128 1.404861 -1.018267
957.67578125 3.304311 2.142591 -1.16172
958.9921875 2.3637119999999996 1.330056 -1.033656
959.89453125 2.374916 1.394916 -0.98
960.4296875 3.212129 2.114377 -1.097752
961.6953125 2.3023 1.244383 -1.057917
962.57421875 2.374892 1.299125 -1.075767
963.1015625 3.108847 2.071674 -1.037173
964.40625 2.317889 1.218393 -1.099496
965.27734375 2.362947 1.199065 -1.163882
965.80078125 3.059681 1.959188 -1.100493
967.09375 2.343263 1.153894 -1.189369
967.65234375 3.313613 2.04833 -1.265283
968.9453125 2.262029 1.222079 -1.03995
969.484375 3.182949 2.062681 -1.120268
970.7578125 2.31602 1.219803 -1.096217
971.68359375 2.286315 1.20261 -1.083705
972.546875 2.247861 1.144223 -1.103638
973.40234375 2.32538 1.187262 -1.138118
974.28515625 2.381752 1.217165 -1.164587
974.83203125 3.2002960000000003 2.008735 -1.191561
976.1015625 2.407464 1.227464 -1.18
977.02734375 2.40348 1.286333 -1.117147
977.9140625 2.357104 1.244771 -1.112333
978.796875 2.375783 1.148669 -1.227114
979.328125 3.265675 1.906066 -1.359609
980.640625 2.2265610000000002 1.161694 -1.064867
981.2109375 3.215688 1.954919 -1.260769
982.515625 2.26082 1.192239 -1.068581
983.44921875 2.329882 1.172088 -1.157794
984.3203125 2.316936 1.082731 -1.234205
984.8515625 3.11786 1.825 -1.29286
986.15625 2.311737 1.1799 -1.131837
986.6953125 3.200838 1.949445 -1.251393
987.98046875 2.275471 1.194974 -1.080497
988.8984375 2.344018 1.121395 -1.222623
989.765625 2.3879070000000002 1.059193 -1.328714
990.66015625 2.2844610000000003 1.061938 -1.222523
991.5625 2.329054 1.099074 -1.22998
992.4375 2.397069 1.172292 -1.224777
993.37109375 2.383531 1.193692 -1.189839
994.25390625 2.3867089999999997 1.162706 -1.224003
994.77734375 3.2618869999999998 1.999697 -1.26219
996.140625 2.3394250000000003 1.235003 -1.104422
996.71875 3.1360609999999998 1.991536 -1.144525
998.0234375 2.297091 1.297932 -0.999159
998.9609375 2.272525 1.14 -1.132525
999.8359375 2.362317 1.092537 -1.26978
1000.7421875 2.415316 1.189383 -1.225933
1001.6328125 2.322598 1.06249 -1.260108
1002.515625 2.399505 1.069505 -1.33
1003.41796875 2.409142 1.125219 -1.283923
1004.3359375 2.354316 1.074571 -1.279745
1005.20703125 2.401544 1.085 -1.316544
1006.0859375 2.432655 1.214338 -1.218317
1006.9921875 2.3108750000000002 1.169162 -1.141713
1007.87890625 2.352903 1.121656 -1.231247
1008.76171875 2.406949 1.224162 -1.182787
1009.65625 2.427353 1.224737 -1.202616
1010.55078125 2.379383 1.194228 -1.185155
1011.44921875 2.36378 1.229376 -1.134404
1012.3515625 2.348735 1.251863 -1.096872
1013.2421875 2.354311 1.156521 -1.19779
1014.1171875 2.450275 1.228225 -1.22205
1015.0234375 2.339871 1.245129 -1.094742
1015.93359375 2.392911 1.229641 -1.16327
1016.80859375 2.425099 1.214716 -1.210383
1017.734375 2.397961 1.278972 -1.118989
1018.26953125 3.24424 1.984986 -1.259254
1019.57421875 2.3875450000000003 1.27 -1.117545
1020.5078125 2.306297 1.232258 -1.074039
1021.390625 2.411341 1.222124 -1.189217
1022.25 2.344942 1.175 -1.169942
1022.78515625 3.092476 1.973169 -1.119307
1024.06640625 2.3494650000000004 1.290842 -1.058623
1024.62109375 3.324334 2.073127 -1.251207
1025.921875 2.447334 1.417402 -1.029932
1026.8671875 2.378645 1.387825 -0.99082
1027.75 2.379968 1.32 -1.059968
1028.62890625 2.424733 1.29986 -1.124873
1029.55859375 2.3426790000000004 1.308804 -1.033875
1030.48046875 2.373188 1.304944 -1.068244
1031.375 2.45403 1.39 -1.06403
1032.27734375 2.3168569999999997 1.332161 -0.984696
1033.1953125 2.4011959999999997 1.300055 -1.101141
1034.08984375 2.334081 1.301483 -1.032598
1034.984375 2.257908 1.279902 -0.978006
1035.875 2.386431 1.32 -1.066431
1036.75390625 2.338782 1.274209 -1.064573
1037.6953125 2.368505 1.287452 -1.081053
1038.6015625 2.364283 1.216948 -1.147335
1039.48046875 2.4099820000000003 1.309982 -1.1
1040.44921875 2.383122 1.308811 -1.074311
1041.3828125 2.367143 1.310454 -1.056689
1042.26953125 2.3578 1.294893 -1.062907
1043.21875 2.389938 1.339306 -1.050632
1044.13671875 2.37524 1.284744 -1.090496
1044.66015625 3.128799 2.09471 -1.034089
1046.01171875 2.316184 1.370984 -0.9452
1046.5390625 3.185515 2.214945 -0.97057
1047.87890625 2.378051 1.428178 -0.949873
1048.84765625 2.35372 1.431359 -0.922361
1049.70703125 2.416227 1.331284 -1.084943
1050.58203125 2.4067540000000003 1.325312 -1.081442
1051.46484375 2.282005 1.23644 -1.045565
1052.34765625 2.388355 1.168904 -1.219451
1053.21875 2.436027 1.2685 -1.167527
1054.10546875 2.312729 1.214877 -1.097852
1055.01171875 2.384371 1.171463 -1.212908
1055.88671875 2.391465 1.258629 -1.132836
1056.78125 2.367433 1.188894 -1.178539
1057.66796875 2.3747059999999998 1.127241 -1.247465
1058.5546875 2.343154 1.096992 -1.246162
1059.4765625 2.335375 0.985375 -1.35
1060.37890625 2.391149 0.997623 -1.393526
1061.28125 2.345772 1.010407 -1.335365
1062.23046875 2.3524190000000003 0.974937 -1.377482
1063.13671875 2.372508 0.971885 -1.400623
1063.671875 3.142559 1.807559 -1.335
1065.02734375 2.368735 1.13485 -1.233885
1065.58203125 3.07327 1.889532 -1.183738
1066.96484375 2.276856 1.184274 -1.092582
1067.53125 3.1738 2.049594 -1.124206
1068.90625 2.295137 1.232969 -1.062168
1069.90625 2.31298 1.18743 -1.12555
1070.84375 2.320213 1.088033 -1.23218
1071.78515625 2.272136 1.060213 -1.211923
1072.71875 2.315572 1.078824 -1.236748
1073.6484375 2.326854 1.05563 -1.271224
1074.609375 2.316497 1.108765 -1.207732
1075.55859375 2.286686 1.17432 -1.112366
1076.5078125 2.3259410000000003 1.120833 -1.205108
1077.0703125 3.055206 1.948755 -1.106451
1078.44140625 2.419474 1.149701 -1.269773
1079.421875 2.266666 1.105 -1.161666
1079.94140625 3.178871 1.994889 -1.183982
1081.3203125 2.3011169999999996 1.174062 -1.127055
1081.88671875 3.191249 2.099397 -1.091852
1083.234375 2.279258 1.243125 -1.036133
1083.7734375 3.133996 2.053072 -1.080924
1085.13671875 2.289784 1.256385 -1.033399
1086.08203125 2.318863 1.238913 -1.07995
1087.0 2.2892650000000003 1.235 -1.054265
1087.51953125 3.148695 2.089968 -1.058727
1088.890625 2.223618 1.22938 -0.994238
1089.84375 2.2740090000000004 1.233462 -1.040547
1090.76171875 2.275149 1.19689 -1.078259
1091.71484375 2.3118930000000004 1.245 -1.066893
1092.65234375 2.345021 1.293091 -1.05193
1093.57421875 2.317298 1.22026 -1.097038
1094.11328125 3.0934470000000003 2.073802 -1.019645
1095.4609375 2.299663 1.279899 -1.019764
1096.0078125 3.1302149999999997 2.097903 -1.032312
1097.37890625 2.240414 1.267159 -0.973255
1097.921875 3.1996590000000005 2.139505 -1.060154
1099.26171875 2.3136409999999996 1.208551 -1.10509
1100.26171875 2.297581 1.163844 -1.133737
1101.1796875 2.258232 1.075693 -1.182539
1102.06640625 2.273707 1.047737 -1.22597
1102.96875 2.330716 1.067192 -1.263524
1103.9140625 2.282067 1.029775 -1.252292
1104.81640625 2.302356 0.998511 -1.303845
1105.703125 2.29 1.025 -1.265
1106.24609375 2.954993 1.776521 -1.178472
1107.58984375 2.269613 1.180411 -1.089202
1108.109375 3.237089 2.027545 -1.209544
1109.42578125 2.245674 1.086518 -1.159156
1109.98046875 3.1222440000000002 1.869986 -1.252258
1111.30859375 2.261962 1.094649 -1.167313
1112.2421875 2.211267 1.048938 -1.162329
1112.77734375 3.121108 1.845 -1.276108
1114.0859375 2.224728 1.033784 -1.190944
1114.95703125 2.269733 1.039853 -1.22988
1115.765625 2.591717 1.178811 -1.412906
1116.57421875 2.694499 1.254118 -1.440381
1117.11328125 2.735462 1.561781 -1.173681
1118.09375 2.448628 1.123093 -1.325535
1118.640625 3.032651 1.688672 -1.343979
1119.546875 2.576043 1.247804 -1.328239
1120.08203125 3.3338710000000003 2.234169 -1.099702
1120.94140625 2.44965 1.314841 -1.134809
1121.67578125 2.541367 1.264184 -1.277183
1122.35546875 2.524939 1.284939 -1.24
1122.87890625 3.1236040000000003 1.85 -1.273604
1124.109375 2.434466 1.182236 -1.25223
1124.94140625 2.522908 1.344223 -1.178685
1125.7890625 2.4423269999999997 1.304514 -1.137813
1126.65625 2.411351 1.2776 -1.133751
1127.49609375 2.508077 1.258212 -1.249865
1128.01171875 3.065098 1.912104 -1.152994
1129.3359375 2.332408 1.244687 -1.087721
1130.203125 2.393606 1.149491 -1.244115
1131.05859375 2.4666300000000003 1.240855 -1.225775
1131.95703125 2.376598 1.1863 -1.190298
1132.48046875 3.191771 1.904994 -1.286777
1133.8125 2.4109730000000003 1.1445 -1.266473
1134.33984375 3.1708860000000003 1.968474 -1.202412
1135.63671875 2.263847 1.170847 -1.093
1136.22265625 3.177017 1.913585 -1.263432
1137.51171875 2.4163059999999996 1.142202 -1.274104
1138.03515625 3.182608 1.942691 -1.239917
1139.3359375 2.338686 1.14 -1.198686
1139.86328125 3.212903 1.888336 -1.324567
1141.140625 2.403307 1.134031 -1.269276
1142.0 2.389861 1.105 -1.284861
1142.80078125 2.449036 1.046465 -1.402571
1143.65625 2.492362 1.103894 -1.388468
1144.50390625 2.35567 1.110672 -1.244998
1145.04296875 3.258204 1.878707 -1.379497
1146.29296875 2.427076 1.207335 -1.219741
1146.828125 3.331169 2.029438 -1.301731
1148.09375 2.3831949999999997 1.329531 -1.053664
1148.65625 3.129298 1.96 -1.169298
1149.8671875 2.449193 1.35 -1.099193
1150.73046875 2.435295 1.315295 -1.12
1151.55078125 2.401935 1.211935 -1.19
1152.3671875 2.48962 1.176062 -1.313558
1152.89453125 3.062684 1.789924 -1.27276
1154.046875 2.348832 1.246156 -1.102676
1154.5703125 3.359164 2.017931 -1.341233
1155.7421875 2.419089 1.259814 -1.159275
1156.33984375 2.955667 1.866086 -1.089581
1157.41015625 2.466807 1.207729 -1.259078
1157.94921875 3.198316 1.948754 -1.249562
1159.1015625 2.418869 1.248869 -1.17
1159.6875 3.2115299999999998 2.066875 -1.144655
1160.7265625 2.441319 1.411319 -1.03
1161.484375 2.3533869999999997 1.336833 -1.016554
1162.234375 2.427995 1.217995 -1.21
1163.015625 2.483847 1.323974 -1.159873
1163.82421875 2.369094 1.284647 -1.084447
1164.34375 3.154788 1.951604 -1.203184
1165.58203125 2.4058919999999997 1.326021 -1.079871
1166.48828125 2.339779 1.290087 -1.049692
1167.34765625 2.4310029999999996 1.26873 -1.162273
1168.234375 2.3865309999999997 1.160906 -1.225625
1169.1015625 2.3646000000000003 1.20861 -1.15599
1169.6328125 2.992355 1.75608 -1.236275
1170.8984375 2.395893 1.155897 -1.239996
1171.7890625 2.383472 1.159752 -1.22372
1172.31640625 3.0396039999999998 1.764916 -1.274688
1173.5625 2.368145 1.039158 -1.328987
1174.43359375 2.409445 1.104129 -1.305316
1174.94140625 3.099283 1.749648 -1.349635
1176.1640625 2.409667 1.20976 -1.199907
1177.0234375 2.3717699999999997 1.17177 -1.2
1177.55078125 3.049926 1.882209 -1.167717
1178.73828125 2.3693989999999996 1.148564 -1.220835
1179.578125 2.422609 1.244722 -1.177887
1180.12109375 3.104657 1.835 -1.269657
1181.3125 2.427132 1.097273 -1.329859
1181.86328125 3.162815 1.819752 -1.343063
1183.04296875 2.299488 1.235839 -1.063649
1183.60546875 2.986679 2.039949 -0.94673
1184.796875 2.33629 1.318669 -1.017621
1185.33984375 3.2639959999999997 2.235 -1.028996
1186.50390625 2.337358 1.36099 -0.976368
1187.03515625 3.086386 2.162551 -0.923835
1188.20703125 2.360358 1.373701 -0.986657
1189.02734375 2.357064 1.365254 -0.99181
1189.83203125 2.3822970000000003 1.207302 -1.174995
1190.62890625 2.372734 1.118188 -1.254546
1191.1640625 3.129837 1.749837 -1.38
1192.35546875 2.21912 1.019915 -1.199205
1192.90234375 3.121837 1.764525 -1.357312
1194.06640625 2.460649 1.101681 -1.358968
1194.90234375 2.3539380000000003 1.131971 -1.221967
1195.72265625 2.329154 1.03 -1.299154
1196.55859375 2.335311 1.009903 -1.325408
1197.08203125 3.073385 1.722025 -1.35136
1198.28125 2.3190239999999998 1.165909 -1.153115
1199.1015625 2.412127 1.155897 -1.25623
1199.93359375 2.498798 1.287442 -1.211356
1200.75390625 2.3898539999999997 1.25105 -1.138804
1201.2734375 3.2036480000000003 1.983303 -1.220345
1202.4375 2.2261759999999997 1.236176 -0.99
1202.9609375 3.021017 1.94495 -1.076067
1204.09765625 2.336054 1.856347 -0.479707
1204.8984375 2.199314 1.998845 -0.200469
1205.41796875 2.692914 2.346649 -0.346265
1206.484375 2.262571 1.018333 -1.244238
1207.27734375 2.245029 1.102529 -1.1425
1208.02734375 2.194156 0.548223 -1.645933
1208.55859375 2.948569 1.404663 -1.543906
1209.60546875 2.2892010000000003 0.734912 -1.554289
1210.375 2.413264 0.88 -1.533264
1211.140625 2.325523 1.191138 -1.134385
1211.68359375 3.03476 1.94 -1.09476
1212.6484375 2.2569980000000003 1.317665 -0.939333
1213.390625 2.110188 1.050791 -1.059397
1213.94140625 2.933001 1.839265 -1.093736
1214.93359375 2.7158420000000003 1.519341 -1.196501
1215.546875 3.114419 1.979419 -1.135
1216.26171875 2.462562 1.353312 -1.10925
1217.03515625 2.3134680000000003 1.129199 -1.184269
1217.78125 2.394341 1.229639 -1.164702
1218.296875 2.841487 1.838958 -1.002529
1219.41796875 2.329043 1.289891 -1.039152
1220.23828125 2.444559 1.421358 -1.023201
1220.7578125 3.070555 2.139043 -0.931512
1222.0390625 2.2119720000000003 1.473503 -0.738469
1222.93359375 2.430291 1.579538 -0.850753
1223.453125 3.179137 2.42598 -0.753157
1224.8671875 2.210148 1.558898 -0.65125
1225.8515625 2.37926 1.56426 -0.815
1226.3515625 3.325578 2.408864 -0.916714
1227.796875 2.263799 1.585496 -0.678303
1228.765625 2.332641 1.473848 -0.858793
1229.72265625 2.340102 1.40496 -0.935142
1230.6484375 2.300883 1.345 -0.955883
1231.578125 2.300832 1.373021 -0.927811
1232.125 3.260199 2.27 -0.990199
1233.5078125 2.282766 1.508436 -0.77433
1234.046875 3.2115850000000004 2.299297 -0.912288
1235.3984375 2.287732 1.20553 -1.082202
1235.9375 3.234604 2.168611 -1.065993
1237.2890625 2.372633 1.391619 -0.981014
1237.828125 3.31269 2.354519 -0.958171
1239.12890625 2.374734 1.605084 -0.76965
1240.02734375 2.396083 1.647622 -0.748461
1240.9296875 2.4144579999999998 1.592676 -0.821782
1241.8125 2.421363 1.431934 -0.989429
1242.6796875 2.399118 1.386589 -1.012529
1243.23046875 3.1850440000000004 2.085322 -1.099722
1244.5390625 2.393968 1.289529 -1.104439
1245.46484375 2.37969 1.106319 -1.273371
1245.98046875 3.110266 1.874962 -1.235304
1247.30078125 2.311159 1.092867 -1.218292
1247.83984375 3.209054 1.99 -1.219054
1249.14453125 2.307575 1.159914 -1.147661
1250.01953125 2.312773 1.124962 -1.187811
1250.5390625 3.1998569999999997 1.909857 -1.29
1251.85546875 2.310582 1.100582 -1.21
1252.7421875 2.351243 1.124812 -1.226431
1253.625 2.30686 1.015 -1.29186
1254.17578125 3.1923 1.882007 -1.310293
1255.47265625 2.302578 1.108494 -1.194084
1255.984375 3.2332929999999998 2.017314 -1.215979
1257.28515625 2.303728 1.261795 -1.041933
1257.8203125 3.1645140000000005 2.099416 -1.065098
1259.171875 2.246544 1.173184 -1.07336
1260.08203125 2.285847 1.18615 -1.099697
1261.01171875 2.238186 1.220241 -1.017945
1261.5546875 3.125191 1.979226 -1.145965
1262.8984375 2.205399 1.214206 -0.991193
1263.82421875 2.2550540000000003 1.096079 -1.158975
1264.7421875 2.2220750000000002 1.148169 -1.073906
1265.27734375 2.969097 1.897386 -1.071711
1266.6328125 2.2325850000000003 1.248123 -0.984462
1267.171875 3.09326 2.064734 -1.028526
1268.5 2.2249499999999998 1.2 -1.02495
1269.4296875 2.229943 1.10705 -1.122893
1269.9609375 3.1250410000000004 1.879817 -1.245224
1271.29296875 2.234026 1.09029 -1.143736
1271.828125 3.196954 1.999908 -1.197046
1273.17578125 2.305524 1.085491 -1.220033
1274.1171875 2.287699 1.120298 -1.167401
1274.6328125 3.0937159999999997 1.884216 -1.2095
1275.984375 2.319642 1.109264 -1.210378
1276.93359375 2.181133 1.084447 -1.096686
1277.4609375 3.155137 1.909918 -1.245219
1278.76171875 2.27726 1.115573 -1.161687
1279.6875 2.280279 1.129375 -1.150904
1280.21875 3.144527 1.926 -1.218527
1281.51953125 2.289555 1.16991 -1.119645
1282.453125 2.273303 1.13 -1.143303
1282.984375 2.99412 1.893008 -1.101112
1284.28125 2.247114 1.179872 -1.067242
1284.8359375 3.183175 2.109946 -1.073229
1286.05859375 2.278451 1.219495 -1.058956
1286.5859375 3.1308439999999997 2.109905 -1.020939
1287.84765625 2.174549 1.164036 -1.010513
1288.71484375 2.249838 1.227782 -1.022056
1289.578125 2.152216 1.129391 -1.022825
1290.48046875 2.1699460000000004 1.089536 -1.08041
1291.4296875 2.2113009999999997 1.075812 -1.135489
1291.95703125 3.085502 1.897378 -1.188124
1293.40234375 2.238898 1.138103 -1.100795
1293.95703125 3.08355 1.94159 -1.14196
1295.42578125 2.224121 1.204546 -1.019575
1296.0390625 2.902487 1.849838 -1.052649
1297.40234375 2.2775879999999997 1.296822 -0.980766
1297.94921875 3.1099309999999996 2.067007 -1.042924
1299.390625 2.172425 1.232062 -0.940363
1299.90234375 3.2196730000000002 2.111317 -1.108356
1301.23046875 2.270271 1.294787 -0.975484
1301.7734375 3.2869219999999997 2.152726 -1.134196
1303.08984375 2.23631 1.33937 -0.89694
1303.63671875 3.251235 2.1818 -1.069435
1304.94921875 2.176377 1.269095 -0.907282
1305.85546875 2.217956 1.239865 -0.978091
1306.77734375 2.2355970000000003 1.221387 -1.01421
1307.296875 3.1880100000000002 1.95 -1.23801
1308.625 2.151542 1.17 -0.981542
1309.16015625 3.1464860000000003 2.082733 -1.063753
1310.57421875 2.3143599999999998 1.185 -1.12936
1311.49609375 2.2275929999999997 1.087769 -1.139824
1312.421875 2.176171 1.02235 -1.153821
1313.34375 2.3648480000000003 1.099987 -1.264861
1314.26953125 2.374654 1.179883 -1.194771
1314.79296875 3.038755 1.883755 -1.155
1316.15625 2.311095 1.211325 -1.09977
1317.109375 2.4026639999999997 1.26867 -1.133994
1317.65234375 3.160646 2.148897 -1.011749
1319.01953125 2.371035 1.354869 -1.016166
1319.96484375 2.3448 1.309357 -1.035443
1320.92578125 2.341404 1.321815 -1.019589
1321.453125 3.291817 2.22459 -1.067227
1322.7734375 2.329956 1.477899 -0.852057
1323.3046875 3.346983 2.427426 -0.919557
1324.65625 2.305532 1.481037 -0.824495
1325.2109375 3.403483 2.424283 -0.9792
1326.55078125 2.402286 1.413191 -0.989095
1327.5078125 2.409915 1.364807 -1.045108
1328.4453125 2.310747 1.333171 -0.977576
1328.98046875 3.3653210000000002 2.234986 -1.130335
1330.31640625 2.431561 1.337424 -1.094137
1330.85546875 3.4237080000000004 2.309985 -1.113723
1332.21875 2.279631 1.294682 -0.984949
1332.7734375 3.3689400000000003 2.385514 -0.983426
1334.09375 2.3662539999999996 1.304803 -1.061451
1334.63671875 3.2741430000000005 2.268721 -1.005422
1335.9921875 2.3212650000000004 1.24218 -1.079085
1336.53515625 3.521833 2.222646 -1.299187
1337.8515625 2.337804 1.282804 -1.055
1338.38671875 3.400103 2.278976 -1.121127
1339.69921875 2.300708 1.247964 -1.052744
1340.2578125 3.4101150000000002 2.292946 -1.117169
1341.5234375 2.38 1.265 -1.115
1342.06640625 3.283437 2.189581 -1.093856
1343.30078125 2.268684 1.261027 -1.007657
1344.1328125 2.410203 1.251786 -1.158417
1344.95703125 2.321132 1.126334 -1.194798
1345.734375 2.2823070000000003 1.151734 -1.130573
1346.53515625 2.3750080000000002 1.075024 -1.299984
1347.375 2.1997359999999997 1.0 -1.199736
1348.19140625 2.271113 1.01913 -1.251983
1349.01171875 2.385491 1.043968 -1.341523
1349.90625 2.275915 1.026333 -1.249582
1350.796875 2.31163 0.960988 -1.350642
1351.671875 2.4193490000000004 1.034917 -1.384432
1352.60546875 2.339936 1.119936 -1.22
1353.5546875 2.271368 1.014732 -1.256636
1354.48046875 2.271967 0.994008 -1.277959
1355.44140625 2.3468780000000002 1.0431 -1.303778
1356.41796875 2.267058 1.00037 -1.266688
1357.39453125 2.27895 0.914285 -1.364665
1358.3515625 2.2809730000000004 1.055973 -1.225
1358.8828125 3.136286 1.72 -1.416286
1360.3046875 2.231477 1.153606 -1.077871
1360.85546875 3.1109210000000003 1.945 -1.165921
1362.21875 2.192137 1.113491 -1.078646
1362.74609375 3.283289 2.04 -1.243289
1364.04296875 2.29315 1.163531 -1.129619
1364.6328125 3.175468 1.948726 -1.226742
1365.8984375 2.3062639999999996 1.129935 -1.176329
1366.76953125 2.261475 1.120808 -1.140667
1367.30078125 3.122608 1.941165 -1.181443
1368.51171875 2.288073 1.147763 -1.14031
1369.38671875 2.26093 1.198201 -1.062729
1369.9140625 3.237951 1.935496 -1.302455
1371.109375 2.345892 1.235892 -1.11
1371.66015625 3.1877839999999997 2.077784 -1.11
1372.8984375 2.177425 1.164254 -1.013171
1373.72265625 2.3572810000000004 1.155018 -1.202263
1374.578125 2.3642969999999996 1.149473 -1.214824
1375.453125 2.228666 1.073681 -1.154985
1376.34375 2.319817 1.095208 -1.224609
1377.265625 2.296735 1.142643 -1.154092
1377.80859375 2.984932 1.874627 -1.110305
1379.1171875 2.155588 1.196996 -0.958592
1379.65625 3.308693 2.138068 -1.170625
1380.984375 2.177194 1.207996 -0.969198
1381.52734375 3.179625 2.089068 -1.090557
1382.84375 2.2439590000000003 1.147812 -1.096147
1383.3828125 3.171196 2.119798 -1.051398
1384.71484375 2.159678 1.150463 -1.009215
1385.25390625 3.327501 2.086201 -1.2413
1386.55859375 2.3007790000000004 1.168149 -1.13263
1387.46875 2.182769 1.131317 -1.051452
1387.9921875 3.17394 1.952848 -1.221092
1389.21875 2.3658659999999996 1.235785 -1.130081
1389.7734375 3.174239 2.07 -1.104239
1390.96875 2.216929 1.179141 -1.037788
1391.8125 2.2849310000000003 1.257333 -1.027598
1392.63671875 2.232869 1.191385 -1.041484
1393.15625 2.992769 1.949814 -1.042955
1394.35546875 2.3149889999999997 1.259989 -1.055
1394.8984375 3.136811 2.111437 -1.025374
1396.06640625 2.291594 1.264375 -1.027219
1396.9296875 2.306235 1.22726 -1.078975
1397.453125 3.107794 1.969753 -1.138041
1398.71875 2.244383 1.24111 -1.003273
1399.61328125 2.166478 1.189542 -0.976936
1400.140625 2.977596 1.895508 -1.082088
1401.453125 2.215255 1.21357 -1.001685
1401.9921875 3.152438 2.112161 -1.040277
1403.30078125 2.2261480000000002 1.212454 -1.013694
1403.84765625 3.200464 2.068897 -1.131567
1405.26171875 2.232999 1.185199 -1.0478
1405.80859375 3.112449 2.054883 -1.057566
1407.20703125 2.248595 1.198595 -1.05
1408.1953125 2.215033 1.180104 -1.034929
1408.7421875 3.083939 1.983916 -1.100023
1410.10546875 2.3249690000000003 1.239969 -1.085
1411.08984375 2.217531 1.168932 -1.048599
1411.6171875 3.055415 1.959729 -1.095686
1412.98828125 2.2997180000000004 1.246358 -1.05336
1413.55859375 3.1253539999999997 2.069803 -1.055551
1414.91796875 2.24293 1.138696 -1.104234
1415.87109375 2.355048 1.22223 -1.132818
1416.40625 3.167726 2.027748 -1.139978
1417.75 2.285572 1.175 -1.110572
1418.69921875 2.380586 1.266246 -1.11434
1419.6171875 2.279925 1.171887 -1.108038
1420.14453125 3.109146 1.98499 -1.124156
1421.48828125 2.276034 1.187542 -1.088492
1422.0390625 3.269032 2.095 -1.174032
1423.3984375 2.310383 1.129283 -1.1811
1424.3359375 2.345288 1.145583 -1.199705
1425.2421875 2.291579 1.098065 -1.193514
1425.796875 3.1869829999999997 1.944643 -1.24234
1427.12890625 2.2696560000000003 1.045509 -1.224147
1427.68359375 3.1810479999999997 1.98 -1.201048
1429.0625 2.286232 1.066379 -1.219853
1429.9765625 2.34863 1.04363 -1.305
1430.5234375 3.013817 1.825 -1.188817
1431.87890625 2.282483 1.027907 -1.254576
1432.83203125 2.240392 1.054323 -1.186069
1433.75390625 2.259329 0.969879 -1.28945
1434.65625 2.293126 1.063917 -1.229209
1435.19140625 3.032268 1.88467 -1.147598
1436.57421875 2.215623 1.131073 -1.08455
1437.51953125 2.253111 1.099633 -1.153478
1438.49609375 2.241734 1.00179 -1.239944
1439.42578125 2.298505 1.048422 -1.250083
1440.3359375 2.234548 1.034897 -1.199651
1440.90234375 2.993785 1.797476 -1.196309
1442.23046875 2.245993 1.089834 -1.156159
1442.80078125 2.9922139999999997 1.849491 -1.142723
1444.1484375 2.235551 1.068367 -1.167184
1445.0703125 2.222566 1.047566 -1.175
1445.625 3.117656 1.855 -1.262656
1446.92578125 2.288849 1.129387 -1.159462
1447.8203125 2.202451 1.107598 -1.094853
1448.69921875 2.2548120000000003 1.106387 -1.148425
1449.23828125 2.9802239999999998 1.794698 -1.185526
1450.5234375 2.1285730000000003 1.156835 -0.971738
1451.05859375 3.1214820000000003 2.079947 -1.041535
1452.265625 2.211335 1.086843 -1.124492
1453.15234375 2.2547930000000003 1.173886 -1.080907
1453.6875 2.975704 1.849286 -1.126418
1454.8828125 2.203669 1.171396 -1.032273
1455.4453125 3.126867 1.972584 -1.154283
1456.68359375 2.1837980000000003 1.149728 -1.03407
1457.57421875 2.180428 1.045139 -1.135289
1458.46484375 2.224348 1.069375 -1.154973
1458.9921875 3.031528 1.794302 -1.237226
1460.375 2.139974 1.03 -1.109974
1460.921875 3.135678 1.944365 -1.191313
1462.25 2.182513 1.055 -1.127513
1462.82421875 3.077584 1.85 -1.227584
1464.1171875 2.1868689999999997 1.061768 -1.125101
1465.046875 2.228382 1.055034 -1.173348
1465.57421875 3.058581 1.799034 -1.259547
1466.828125 2.249931 1.03454 -1.215391
1467.73046875 2.30003 1.049874 -1.250156
1468.25390625 3.005655 1.755656 -1.249999
1469.48828125 2.2573369999999997 1.08134 -1.175997
1470.3828125 2.293126 1.028126 -1.265
1470.91015625 3.07797 1.767635 -1.310335
1472.2109375 2.198372 1.129979 -1.068393
1473.11328125 2.253892 1.086864 -1.167028
1473.6484375 3.028832 1.843864 -1.184968
1474.94140625 2.2151259999999997 1.030869 -1.184257
1475.828125 2.220979 1.051122 -1.169857
1476.37109375 3.138869 1.858033 -1.280836
1477.609375 2.2894170000000003 1.138298 -1.151119
1478.140625 3.154398 1.990909 -1.163489
1479.41796875 2.202433 1.105 -1.097433
1479.97265625 3.1456869999999997 1.98955 -1.156137
1481.2109375 2.1648709999999998 1.068255 -1.096616
1482.08203125 2.289289 1.111947 -1.177342
1482.953125 2.254601 1.129267 -1.125334
1483.84765625 2.291287 1.028526 -1.262761
1484.76953125 2.225262 1.104915 -1.120347
1485.296875 3.0092480000000004 1.789438 -1.21981
1486.66015625 2.233513 1.079713 -1.1538
1487.2265625 3.01134 1.90616 -1.10518
1488.6015625 2.17 1.135 -1.035
1489.13671875 2.97558 1.915 -1.06058
1490.48046875 2.137403 1.195 -0.942403
1491.05859375 3.026147 1.899936 -1.126211
1492.34765625 2.142796 1.24143 -0.901366
1492.9609375 2.8055909999999997 1.845 -0.960591
1494.19921875 2.164694 1.250796 -0.913898
1494.75 3.098119 1.99 -1.108119
1496.015625 2.117401 1.268652 -0.848749
1496.578125 2.949905 2.064905 -0.885
1497.84375 2.2080200000000003 1.234137 -0.973883
1498.7109375 2.176808 1.193349 -0.983459
1499.58203125 2.220072 1.122657 -1.097415
1500.4375 2.2196350000000002 1.1126 -1.107035
1501.32421875 2.197136 1.143093 -1.054043
1502.22265625 2.270454 1.068998 -1.201456
1503.1328125 2.266948 1.068303 -1.198645
1504.08984375 2.235674 1.168965 -1.066709
1505.04296875 2.202305 1.163584 -1.038721
1505.9765625 2.2457770000000004 1.233376 -1.012401
1506.95703125 2.2419700000000002 1.35115 -0.89082
1507.921875 2.295375 1.273652 -1.021723
1508.89453125 2.277299 1.245813 -1.031486
1509.88671875 2.214388 1.205 -1.009388
1510.828125 2.299744 1.203332 -1.096412
1511.8125 2.2376329999999998 1.097803 -1.13983
1512.78125 2.2358510000000003 1.129416 -1.106435
1513.703125 2.31589 1.189714 -1.126176
1514.65234375 2.264627 1.269036 -0.995591
1515.61328125 2.2718119999999997 1.215354 -1.056458
1516.58984375 2.267351 1.222782 -1.044569
1517.109375 3.068528 1.925561 -1.142967
1518.51953125 2.235259 1.249981 -0.985278
1519.0859375 3.142346 2.024888 -1.117458
1520.4375 2.262703 1.312988 -0.949715
1521.015625 3.0217 2.007838 -1.013862
1522.34765625 2.265806 1.245319 -1.020487
1522.921875 3.080972 1.959519 -1.121453
1524.23046875 2.309512 1.289338 -1.020174
1524.796875 3.231104 2.044419 -1.186685
1526.06640625 2.3551200000000003 1.289511 -1.065609
1526.9765625 2.316725 1.266725 -1.05
1527.51171875 3.150729 2.048254 -1.102475
1528.7734375 2.309264 1.165701 -1.143563
1529.66015625 2.299835 1.190502 -1.109333
1530.5390625 2.29558 1.214723 -1.080857
1531.08984375 3.074863 1.925 -1.149863
1532.3125 2.346274 1.264308 -1.081966
1532.8671875 3.328906 2.114239 -1.214667
1534.0390625 2.223752 1.504871 -0.718881
1534.57421875 3.060288 2.383245 -0.677043
1535.6328125 2.1825919999999996 1.158345 -1.024247
1536.3984375 2.141255 1.228791 -0.912464
1536.921875 3.053658 1.815 -1.238658
1537.87890625 2.287643 0.948194 -1.339449
1538.6328125 2.188378 0.894604 -1.293774
1539.3515625 2.138299 0.895217 -1.243082
1540.0625 2.170494 0.851214 -1.31928
1540.78515625 2.284218 0.985646 -1.298572
1541.51953125 2.29834 1.168965 -1.129375
1542.0859375 2.504911 2.174911 -0.33
1543.01171875 2.185842 1.552914 -0.632928
1543.78515625 2.280467 1.172148 -1.108319
1544.31640625 2.925 1.645 -1.28
1545.3359375 2.336738 0.909687 -1.427051
1545.890625 2.808917 1.241562 -1.567355
1546.921875 2.4635920000000002 0.772707 -1.690885
1547.68359375 2.415465 0.876606 -1.538859
1548.43359375 2.39453 0.818678 -1.575852
1548.98828125 2.8847329999999998 1.288644 -1.596089
1550.05078125 2.586495 1.165779 -1.420716
1550.64453125 3.036485 1.754993 -1.281492
1551.69140625 2.5389609999999996 1.184902 -1.354059
1552.4921875 2.516509 1.191509 -1.325
1553.34375 2.437538 1.275865 -1.161673
1553.890625 3.102353 1.86915 -1.233203
1555.07421875 2.465554 1.223984 -1.24157
1555.953125 2.4144170000000003 1.318945 -1.095472
1556.8515625 2.3285980000000004 1.24327 -1.085328
1557.390625 3.157328 1.858672 -1.298656
1558.7265625 2.432642 1.314347 -1.118295
1559.70703125 2.329047 1.345442 -0.983605
1560.65625 2.394279 1.285673 -1.108606
1561.58984375 2.503134 1.425677 -1.077457
1562.12109375 3.132308 2.155656 -0.976652
1563.5703125 2.350664 1.602452 -0.748212
1564.5234375 2.419695 1.446072 -0.973623
1565.453125 2.415473 1.533208 -0.882265
1565.98828125 3.122818 2.189222 -0.933596
1567.3671875 2.347715 1.369213 -0.978502
1568.296875 2.418409 1.365213 -1.053196
1569.23828125 2.329515 1.249745 -1.07977
1570.140625 2.342301 1.072699 -1.269602
1571.07421875 2.396909 1.212058 -1.184851
1572.0078125 2.373328 1.171255 -1.202073
1572.859375 2.392802 1.021319 -1.371483
1573.7109375 2.390897 1.114194 -1.276703
1574.2421875 2.84842 1.739105 -1.109315
1575.3671875 2.529191 1.555393 -0.973798
1575.9140625 3.164911 2.344911 -0.82
1577.15234375 2.4027570000000003 1.565655 -0.837102
1578.01171875 2.4491880000000004 1.623706 -0.825482
1578.8515625 2.466158 1.656158 -0.81
1579.43359375 2.877821 2.059813 -0.818008
1580.64453125 2.4691419999999997 1.639924 -0.829218
1581.18359375 3.202197 2.495637 -0.70656
1582.4609375 2.462533 1.544612 -0.917921
1583.328125 2.52127 1.522576 -0.998694
1584.20703125 2.483024 1.560915 -0.922109
1584.74609375 3.0030289999999997 2.068078 -0.934951
1585.99609375 2.476449 1.527131 -0.949318
1586.5390625 3.384845 2.364845 -1.02
1587.69140625 2.369363 1.464175 -0.905188
1588.48828125 2.368093 1.680185 -0.687908
1589.28515625 2.291039 1.692064 -0.598975
1589.81640625 2.9627019999999997 2.299889 -0.662813
1590.95703125 2.342593 1.502814 -0.839779
1591.75390625 2.389081 1.417064 -0.972017
1592.55078125 2.434684 1.224592 -1.210092
1593.3359375 2.5650399999999998 1.209875 -1.355165
1593.87109375 3.181026 1.967951 -1.213075
1594.95703125 2.530201 0.748649 -1.781552
1595.515625 3.325328 1.830328 -1.495
1596.62109375 2.372999 1.073204 -1.299795
1597.4453125 2.52537 1.165032 -1.360338
1598.25 2.69426 1.3 -1.39426
1598.79296875 3.266415 2.06322 -1.203195
1599.91015625 2.517537 1.56587 -0.951667
1600.73046875 2.640584 1.545584 -1.095
1601.55859375 2.439873 1.588723 -0.85115
1602.421875 2.4791790000000002 1.462263 -1.016916
1603.26953125 2.524746 1.494869 -1.029877
1603.79296875 3.140315 2.262025 -0.87829
1605.15625 2.5228479999999998 1.531833 -0.991015
1605.68359375 3.3800749999999997 2.329808 -1.050267
1607.07421875 2.3811910000000003 1.413839 -0.967352
1607.98046875 2.5529650000000004 1.504936 -1.048029
1608.51171875 3.242304 2.179372 -1.062932
1609.8359375 2.428629 1.409365 -1.019264
1610.76953125 2.4529199999999998 1.438667 -1.014253
1611.28515625 3.1912700000000003 2.2 -0.99127
1612.69140625 2.402412 1.289384 -1.113028
1613.71484375 2.358081 1.307124 -1.050957
1614.25390625 3.109918 2.052914 -1.057004
1615.6875 2.33154 1.339349 -0.992191
1616.24609375 3.186292 2.120403 -1.065889
1617.65234375 2.404411 1.313115 -1.091296
1618.65625 2.379771 1.284725 -1.095046
1619.19921875 3.1472800000000003 2.024553 -1.122727
1620.6328125 2.314115 1.269812 -1.044303
1621.16015625 3.3495090000000003 2.254509 -1.095
1622.62890625 2.314289 1.395 -0.919289
1623.58203125 2.402777 1.356357 -1.04642
1624.5078125 2.36662 1.422498 -0.944122
1625.453125 2.353485 1.488381 -0.865104
1626.375 2.34996 1.38 -0.96996
1627.2890625 2.5284050000000002 1.409338 -1.119067
1627.8203125 3.245564 2.234781 -1.010783
1629.2265625 2.3335500000000002 1.517694 -0.815856
1629.7734375 3.28916 2.253828 -1.035332
1631.0859375 2.5265519999999997 1.391675 -1.134877
1632.0546875 2.527737 1.503327 -1.02441
1632.94921875 2.4086819999999998 1.287356 -1.121326
1633.80859375 2.5878 1.369787 -1.218013
1634.34765625 3.338967 2.229837 -1.10913
1635.60546875 2.490037 1.504929 -0.985108
1636.140625 3.34624 2.217326 -1.128914
1637.4140625 2.5880520000000002 1.535583 -1.052469
1638.3046875 2.521466 1.529039 -0.992427
1639.140625 2.484655 1.438 -1.046655
1639.96875 2.614672 1.433445 -1.181227
1640.86328125 2.577589 1.488544 -1.089045
1641.40234375 3.3123760000000004 2.156899 -1.155477
1642.71875 2.55565 1.464368 -1.091282
1643.671875 2.555793 1.448765 -1.107028
1644.58203125 2.403902 1.30758 -1.096322
1645.47265625 2.621606 1.353714 -1.267892
1646.36328125 2.673307 1.419493 -1.253814
1647.2734375 2.489792 1.405598 -1.084194
1648.16015625 2.5258529999999997 1.259914 -1.265939
1649.1171875 2.5476080000000003 1.360098 -1.18751
1650.0625 2.566453 1.482963 -1.08349
1650.98046875 2.630832 1.380832 -1.25
1651.93359375 2.5969160000000002 1.459899 -1.137017
1652.9375 2.541136 1.484295 -1.056841
1653.90234375 2.502097 1.281275 -1.220822
1654.8125 2.547907 1.417949 -1.129958
1655.37890625 3.220141 2.161055 -1.059086
1656.75 2.491132 1.45 -1.041132
1657.67578125 2.5545489999999997 1.443161 -1.111388
1658.203125 3.215764 2.246052 -0.969712
1659.55078125 2.423272 1.454759 -0.968513
1660.453125 2.506284 1.46854 -1.037744
1661.33984375 2.511074 1.494847 -1.016227
1662.25 2.445589 1.38 -1.065589
1663.171875 2.502405 1.309623 -1.192782
1664.12890625 2.502702 1.368906 -1.133796
1664.68359375 3.215891 2.164946 -1.050945
1666.08984375 2.484139 1.303081 -1.181058
1667.0625 2.487457 1.431346 -1.056111
1668.0546875 2.436027 1.259759 -1.176268
1669.00390625 2.4185980000000002 1.125712 -1.292886
1669.984375 2.461771 1.231567 -1.230204
1670.515625 3.350423 2.06 -1.290423
1671.9765625 2.459206 1.259206 -1.2
1672.54296875 3.3010140000000003 2.139066 -1.161948
1674.0 2.39792 1.235 -1.16292
1674.94921875 2.4782339999999996 1.239175 -1.239059
1675.45703125 3.110717 2.068258 -1.042459
1676.8828125 2.353371 1.19961 -1.153761
1677.828125 2.3840500000000002 1.239307 -1.144743
1678.77734375 2.427812 1.230208 -1.197604
1679.6796875 2.470904 1.154529 -1.316375
1680.57421875 2.413402 1.218011 -1.195391
1681.15625 3.183002 1.969645 -1.213357
1682.48828125 2.446983 1.251566 -1.195417
1683.3984375 2.459391 1.27151 -1.187881
1683.92578125 3.1622630000000003 2.095 -1.067263
1685.25390625 2.3237389999999998 1.276003 -1.047736
1686.16796875 2.442933 1.283321 -1.159612
1687.0703125 2.474614 1.352481 -1.122133
1687.953125 2.381451 1.178208 -1.203243
1688.8203125 2.441814 1.158384 -1.28343
1689.69921875 2.495449 1.221559 -1.27389
1690.6015625 2.447045 1.227045 -1.22
1691.49609375 2.4599599999999997 1.068277 -1.391683
1692.37890625 2.478742 1.118598 -1.360144
1693.34765625 2.435765 1.256822 -1.178943
1694.2578125 2.416486 1.140808 -1.275678
1695.13671875 2.536819 1.211717 -1.325102
1695.68359375 3.131107 1.954708 -1.176399
1697.01171875 2.3406260000000003 1.307919 -1.032707
1697.54296875 3.183755 2.053755 -1.13
1698.86328125 2.446507 1.270903 -1.175604
1699.8125 2.426027 1.306284 -1.119743
1700.7265625 2.4327699999999997 1.11777 -1.315
1701.59375 2.4282839999999997 1.108955 -1.319329
1702.11328125 3.173884 1.88 -1.293884
1703.42578125 2.308167 1.224995 -1.083172
1703.98046875 3.290965 2.04997 -1.240995
1705.25390625 2.4460319999999998 1.082646 -1.363386
1705.83203125 3.130824 1.887937 -1.242887
1707.11328125 2.387279 1.136463 -1.250816
1708.046875 2.458348 1.088765 -1.369583
1708.95703125 2.39217 1.180239 -1.211931
1709.5234375 3.1070339999999996 1.852034 -1.255
1710.90234375 2.4177939999999998 1.100188 -1.317606
1711.87109375 2.495708 1.281226 -1.214482
1712.4140625 3.2234230000000004 2.049888 -1.173535
1713.828125 2.3647 1.103288 -1.261412
1714.78515625 2.442709 1.1628 -1.279909
1715.328125 3.2622099999999996 1.94386 -1.31835
1716.71875 2.3388150000000003 1.069814 -1.269001
1717.69140625 2.462897 1.039175 -1.423722
1718.6328125 2.425316 1.113451 -1.311865
1719.58984375 2.378706 1.096203 -1.282503
1720.5234375 2.387299 0.962456 -1.424843
1721.453125 2.449019 1.04 -1.409019
1722.46484375 2.429255 1.14489 -1.284365
1723.421875 2.354512 0.999272 -1.35524
1724.37890625 2.4641409999999997 1.018548 -1.445593
1725.3828125 2.426987 1.129779 -1.297208
1726.359375 2.3477620000000003 1.009902 -1.33786
1727.30078125 2.4228840000000003 0.989326 -1.433558
1728.25390625 2.45062 1.161618 -1.289002
1729.2265625 2.319387 1.004387 -1.315
1730.18359375 2.3724540000000003 0.939732 -1.432722
1731.09765625 2.4592330000000002 1.03427 -1.424963
1732.07421875 2.4219 1.1 -1.3219
1733.03515625 2.3211079999999997 1.037776 -1.283332
1733.9375 2.443324 1.023192 -1.420132
1734.85546875 2.5749760000000004 1.254976 -1.32
1735.79296875 2.448221 1.23154 -1.216681
1736.7421875 2.3835129999999998 1.0844 -1.299113
1737.68359375 2.468338 1.194712 -1.273626
1738.6328125 2.390877 1.180298 -1.210579
1739.5859375 2.451803 1.059868 -1.391935
1740.4921875 2.474914 1.201008 -1.273906
1741.44140625 2.4377370000000003 1.222737 -1.215
1742.39453125 2.436114 1.084939 -1.351175
1743.296875 2.502602 1.17973 -1.322872
1744.2421875 2.4690659999999998 1.276643 -1.192423
1745.19140625 2.403608 1.124671 -1.278937
1746.11328125 2.472638 1.11186 -1.360778
1747.046875 2.4319040000000003 1.15717 -1.274734
1747.99609375 2.422117 1.182249 -1.239868
1748.90234375 2.390592 1.052467 -1.338125
1749.82421875 2.489286 1.214582 -1.274704
1750.765625 2.417905 1.270776 -1.147129
1751.71875 2.397132 1.1 -1.297132
1752.6328125 2.58129 1.306078 -1.275212
1753.5546875 2.437409 1.191237 -1.246172
1754.4765625 2.484006 1.169006 -1.315
1755.3828125 2.4978819999999997 1.234611 -1.263271
1756.3125 2.469355 1.314355 -1.155
1757.2421875 2.46675 1.197584 -1.269166
1758.14453125 2.542628 1.259967 -1.282661
1758.6796875 3.304787 2.104051 -1.200736
1760.01953125 2.379442 1.414868 -0.964574
1760.56640625 3.4148240000000003 2.289432 -1.125392
1761.9140625 2.492422 1.354708 -1.137714
1762.87890625 2.4407829999999997 1.434469 -1.006314
1763.765625 2.4339820000000003 1.284391 -1.149591
1764.63671875 2.472333 1.188502 -1.283831
1765.52734375 2.5263470000000003 1.373844 -1.152503
1766.40234375 2.435669 1.339722 -1.095947
1767.2578125 2.43147 1.141709 -1.289761
1768.1171875 2.544877 1.325722 -1.219155
1769.0078125 2.458743 1.359606 -1.099137
1769.88671875 2.378074 1.188837 -1.189237
1770.7421875 2.5229809999999997 1.188505 -1.334476
1771.6484375 2.462482 1.295101 -1.167381
1772.5390625 2.4012200000000004 1.126646 -1.274574
1773.41796875 2.466553 1.100627 -1.365926
1773.9609375 3.148189 1.889889 -1.2583
1775.28125 2.383819 1.250469 -1.13335
1776.203125 2.333652 1.062017 -1.271635
1777.109375 2.4481260000000002 1.193441 -1.254685
1778.0390625 2.382685 1.211671 -1.171014
1778.96875 2.3196000000000003 1.013746 -1.305854
1779.87890625 2.416998 1.040703 -1.376295
1780.42578125 3.13342 1.89342 -1.24
1781.8046875 2.287812 1.243556 -1.044256
1782.7578125 2.338214 1.040298 -1.297916
1783.69140625 2.4013970000000002 1.113698 -1.287699
1784.6640625 2.3606819999999997 1.201126 -1.159556
1785.609375 2.257151 1.02505 -1.232101
1786.55078125 2.389433 1.007591 -1.381842
1787.5078125 2.3572290000000002 1.112306 -1.244923
1788.48828125 2.360745 1.13847 -1.222275
1789.4296875 2.440957 1.049488 -1.391469
1790.34765625 2.450945 1.014553 -1.436392
1791.33203125 2.4025860000000003 1.147636 -1.25495
1792.30078125 2.402577 1.009972 -1.392605
1793.21484375 2.424104 0.982209 -1.441895
1793.75390625 3.2491320000000004 1.872951 -1.376181
1795.07421875 2.302407 1.207758 -1.094649
1795.9921875 2.449341 1.154813 -1.294528
1796.890625 2.467678 1.331713 -1.135965
1797.76953125 2.378914 1.414875 -0.964039
1798.66796875 2.444998 1.254389 -1.190609
1799.546875 2.4615 1.299917 -1.161583
1800.42578125 2.5459639999999997 1.4418 -1.104164
1801.33203125 2.428747 1.256972 -1.171775
1802.19921875 2.546325 1.310047 -1.236278
1803.13671875 2.482887 1.442421 -1.040466
1804.078125 2.422859 1.358781 -1.064078
