125 
312 
490 
672 
855 
1038 
1224 
1419 
1612 
1799 
1979 
2157 
2335 
2520 
2713 
2902 
3094 
3282 
3471 
3652 
3831 
3938 
4198 
4391 
4586 
4777 
4961 
5139 
5323 
5509 
5617 
5881 
6076 
6265 
6452 
6635 
6813 
6988 
7172 
7367 
7555 
7742 
7928 
8110 
8289 
8470 
8652 
8839 
8961 
9221 
9410 
9591 
9768 
9946 
10122 
10309 
10501 
10690 
10874 
11061 
11246 
11424 
11602 
11783 
11971 
12166 
12358 
12544 
12727 
12906 
13089 
13271 
13459 
13648 
13841 
14028 
14214 
14395 
14574 
14752 
14941 
15059 
15329 
15515 
15701 
15880 
16060 
16242 
16423 
16608 
16797 
16992 
17181 
17358 
17534 
17649 
17900 
18092 
18285 
18473 
18655 
18842 
19023 
19201 
19380 
19563 
19751 
19944 
20135 
20316 
20491 
20671 
20856 
21038 
21226 
21417 
21604 
21790 
21972 
22149 
22326 
22506 
22695 
22888 
23080 
23264 
23443 
23619 
23801 
23986 
24171 
24358 
24549 
24745 
24929 
25104 
25281 
25466 
25652 
25846 
26036 
26147 
26405 
26591 
26771 
26948 
27127 
27314 
27500 
27690 
27880 
28059 
28232 
28413 
28595 
28778 
28961 
29148 
29335 
29517 
29698 
29872 
30048 
30225 
30417 
30605 
30793 
30972 
31147 
31319 
31498 
31678 
31855 
32039 
32227 
32418 
32526 
32770 
32944 
33120 
33297 
33484 
33672 
33860 
34040 
34219 
34399 
34577 
34752 
34933 
35123 
35313 
35501 
35683 
35861 
36034 
36216 
36400 
36589 
36776 
36965 
37147 
37329 
37511 
37690 
37868 
38057 
38254 
38442 
38623 
38804 
38981 
39162 
39345 
39529 
39718 
39907 
40102 
40283 
40462 
40637 
40740 
40993 
41188 
41380 
41566 
41750 
41931 
42112 
42293 
42470 
42654 
42845 
43039 
43227 
43408 
43585 
43761 
43946 
44132 
44323 
44508 
44697 
44878 
45058 
45238 
45417 
45593 
45781 
45977 
46164 
46342 
46519 
46697 
46872 
47054 
47235 
47421 
47533 
47793 
47977 
48154 
48326 
48502 
48680 
48868 
49059 
49243 
49424 
49602 
49783 
49958 
50136 
50319 
50508 
50695 
50886 
51066 
51242 
51418 
51528 
51788 
51980 
52166 
52354 
52539 
52722 
52819 
53077 
53260 
53449 
53646 
53836 
54018 
54196 
54375 
54555 
54739 
54925 
55116 
55301 
55492 
55676 
55853 
56027 
56208 
56389 
56579 
56773 
56960 
57138 
57319 
57502 
57679 
57856 
58041 
58231 
58419 
58607 
58788 
58962 
59138 
59324 
59508 
59698 
59884 
60070 
60250 
60433 
60614 
60791 
60972 
61163 
61358 
61546 
61726 
61904 
62079 
62260 
62445 
62630 
62824 
63013 
63204 
63387 
63566 
63742 
63923 
64108 
64301 
64494 
64683 
64863 
65043 
65228 
65410 
65588 
65779 
65970 
66162 
66354 
66534 
66709 
66890 
67082 
67270 
67460 
67652 
67845 
68025 
68207 
68387 
68569 
68755 
68952 
69146 
69336 
69517 
69696 
69872 
70060 
70250 
70440 
70629 
70824 
71013 
71194 
71370 
71548 
71733 
71926 
72121 
72306 
72490 
72598 
72853 
73032 
73212 
73396 
73587 
73773 
73959 
74140 
74317 
74490 
74672 
74861 
75050 
75233 
75421 
75605 
75783 
75962 
76139 
76320 
76503 
76698 
76803 
77066 
77246 
77423 
77596 
77779 
77967 
78156 
78341 
78530 
78717 
78893 
79066 
79244 
79425 
79613 
79806 
79991 
80173 
80351 
80533 
80711 
80891 
81076 
81268 
81455 
81645 
81827 
82003 
82178 
82359 
82549 
82741 
82928 
83115 
83298 
83479 
83661 
83838 
84020 
84138 
84404 
84595 
84778 
84954 
85133 
85261 
85492 
85680 
85871 
86055 
86245 
86429 
86609 
86781 
86962 
87146 
87337 
87533 
87720 
87900 
88078 
88264 
88442 
88622 
88812 
89004 
89194 
89383 
89564 
89662 
89918 
90108 
90297 
90489 
90678 
90865 
91045 
91228 
91411 
91591 
91776 
91968 
92164 
92353 
92532 
92709 
92889 
93071 
93256 
93443 
93633 
93820 
94009 
94187 
94364 
94538 
94722 
94908 
95102 
95293 
95481 
95656 
95836 
96020 
96202 
96383 
96574 
96765 
96956 
97142 
97321 
97498 
97678 
97870 
98060 
98250 
98438 
98626 
98804 
98987 
99168 
99350 
99537 
99735 
99929 
100116 
100296 
100473 
100650 
100838 
101030 
101220 
101408 
101599 
101786 
101966 
102142 
102323 
102511 
102705 
102899 
103087 
103272 
103450 
103633 
103814 
103999 
104186 
104377 
104480 
104752 
104935 
105113 
105289 
105473 
105666 
105859 
106043 
106227 
106407 
106586 
106768 
106947 
107131 
107319 
107514 
107700 
107879 
108056 
108234 
108412 
108596 
108787 
108976 
109163 
109352 
109535 
109714 
109892 
110077 
110264 
110460 
110655 
110839 
111017 
111197 
111380 
111489 
111748 
111938 
112127 
112316 
112500 
112676 
112853 
113030 
113217 
113406 
113597 
113783 
113965 
114142 
114320 
114500 
114680 
114864 
115054 
115250 
115435 
115610 
115785 
115964 
116144 
116330 
116434 
116709 
116897 
117084 
117265 
117442 
117619 
117803 
117918 
118183 
118381 
118566 
118741 
118923 
119106 
119289 
119473 
119663 
119852 
120041 
120226 
120402 
120581 
120763 
120956 
121146 
121337 
121526 
121712 
121890 
122071 
122252 
122438 
122625 
122818 
123009 
123195 
123371 
123548 
123673 
123914 
124105 
124292 
124481 
124665 
124851 
125028 
125205 
125382 
125569 
125761 
125951 
126138 
126322 
126494 
126675 
126858 
127040 
127221 
127411 
127597 
127782 
127966 
128140 
128316 
128499 
128692 
128881 
129068 
129255 
129437 
129614 
129795 
129977 
130162 
130349 
130544 
130735 
130919 
131096 
131272 
131450 
131639 
131833 
132022 
132211 
132399 
132584 
132764 
132940 
133122 
133312 
133506 
133697 
133881 
134061 
134237 
134419 
134600 
134784 
134970 
135163 
135350 
135533 
135714 
135892 
136068 
136254 
136449 
136640 
136825 
137011 
137190 
137370 
137553 
137736 
137924 
138114 
138312 
138499 
138679 
138857 
139038 
139219 
139412 
139605 
139795 
139983 
140172 
140354 
140535 
140716 
140903 
141016 
141287 
141479 
141660 
141836 
142018 
142199 
142381 
142565 
142753 
142940 
143126 
143307 
143481 
143659 
143840 
144029 
144219 
144410 
144593 
144775 
144951 
145131 
145314 
145500 
145685 
145876 
146070 
146256 
146429 
146605 
146785 
146970 
147162 
147354 
147542 
147730 
147918 
148097 
148274 
148458 
148649 
148841 
149036 
149226 
149408 
149585 
149771 
149955 
150141 
150332 
150521 
150707 
150893 
151078 
151254 
151432 
151620 
151817 
152010 
152198 
152383 
152565 
152748 
152932 
153115 
153305 
153498 
153695 
153883 
154065 
154242 
154424 
154607 
154797 
154992 
155183 
155369 
155553 
155736 
155916 
156096 
156282 
156474 
156668 
156863 
157047 
157224 
157405 
157593 
157779 
157967 
158159 
158351 
158537 
158723 
158903 
159083 
159268 
159465 
159657 
159848 
160034 
160216 
160397 
160582 
160765 
160953 
161144 
161339 
161529 
161647 
161749 
161890 
162072 
162251 
162442 
162638 
162828 
163016 
163203 
163385 
163567 
163746 
163931 
164123 
164317 
164435 
164696 
164877 
165055 
165241 
165430 
165618 
165809 
166003 
166190 
166375 
166555 
166736 
166917 
167114 
167309 
167502 
167688 
167873 
168052 
168234 
168422 
168613 
168803 
168999 
169192 
169290 
169548 
169727 
169907 
170095 
170292 
170482 
170665 
170851 
171035 
171214 
171390 
171571 
171762 
171952 
172059 
172326 
172508 
172683 
172863 
173046 
173235 
173421 
173608 
173793 
173976 
174155 
174331 
174508 
174694 
174889 
175079 
175263 
175445 
175627 
175806 
175985 
176167 
176354 
176542 
176737 
176922 
177101 
177275 
177454 
177633 
177823 
178019 
178208 
178392 
178574 
178758 
178936 
179112 
179298 
179488 
179681 
179874 
180057 
180235 
180415 
180602 
180788 
180907 
181172 
181364 
181550 
181737 
181917 
182097 
182282 
182478 
182674 
182869 
183057 
183239 
183421 
183607 
183796 
183987 
184179 
184376 
184570 
184755 
184934 
185116 
185301 
185495 
185696 
185891 
186081 
186269 
186458 
186643 
186822 
187012 
187208 
187404 
187600 
187785 
187964 
188147 
188337 
188524 
188714 
188909 
189102 
189290 
189476 
189657 
189838 
190026 
190226 
190418 
190611 
190797 
190979 
191160 
191345 
191532 
191645 
191913 
192111 
192298 
192482 
192660 
192838 
193021 
193214 
193409 
193598 
193784 
193969 
194153 
194336 
194516 
194703 
194896 
195092 
195284 
195466 
195646 
195825 
196012 
196197 
196385 
196575 
196766 
196950 
197130 
197310 
197492 
197672 
197867 
198062 
198254 
198438 
198620 
198796 
198979 
199168 
199356 
199541 
199734 
199928 
200108 
200280 
200458 
200638 
200826 
201019 
201208 
201395 
201578 
201762 
201937 
202116 
202299 
202487 
202674 
202865 
203049 
203227 
203402 
203582 
203764 
203952 
204138 
204325 
204510 
204694 
204874 
205049 
205227 
205408 
205601 
205793 
205979 
206158 
206337 
206513 
206694 
206880 
207068 
207254 
207446 
207637 
207818 
207990 
208168 
208350 
208536 
208730 
208919 
209103 
209284 
209468 
209643 
209822 
210004 
210193 
210379 
210570 
210754 
210857 
211104 
211287 
211470 
211657 
211843 
212029 
212212 
212394 
212574 
212749 
212925 
213109 
213304 
213492 
213678 
213857 
214036 
214212 
214395 
214577 
214765 
214952 
215141 
215326 
215505 
215677 
215852 
216031 
216218 
216409 
216595 
216779 
216956 
217135 
217310 
217484 
218032 
218218 
218401 
218576 
218745 
218920 
219104 
219287 
219469 
219653 
219838 
220016 
220192 
220367 
220539 
220716 
220905 
221093 
221279 
221456 
221554 
221802 
221979 
222159 
222337 
222518 
222703 
222890 
223064 
223235 
223404 
223546 
223695 
223861 
224109 
224283 
224460 
224631 
224802 
224971 
225142 
225315 
225494 
225675 
225860 
226042 
226216 
226386 
226558 
226737 
226917 
227098 
227279 
227464 
227643 
227817 
227992 
228168 
228342 
228525 
228716 
228902 
229079 
229256 
229432 
229607 
229784 
229964 
230150 
230336 
230524 
230709 
230886 
231058 
231236 
231413 
231600 
231795 
231980 
232162 
232343 
232526 
232703 
232882 
233065 
233256 
233446 
233637 
233821 
233998 
234177 
234361 
234548 
234739 
234928 
235116 
235301 
235484 
235664 
235843 
236024 
236212 
236409 
236601 
236784 
236964 
237143 
237324 
237506 
237692 
237883 
238071 
238264 
238449 
238626 
238803 
238985 
239168 
239361 
239556 
239746 
239927 
240111 
240293 
240473 
240653 
240841 
241031 
241224 
241416 
241595 
241771 
241953 
242141 
242328 
242517 
242710 
242898 
243083 
243267 
243445 
243625 
243811 
244007 
244195 
244387 
244571 
244752 
244931 
245117 
245305 
245495 
245686 
245882 
246073 
246258 
246435 
246617 
246803 
246999 
247196 
247390 
247576 
247763 
247949 
248133 
248314 
248503 
248696 
248888 
249078 
249261 
249439 
249621 
249810 
250000 
250188 
250382 
250573 
250759 
250945 
251127 
251310 
251498 
251698 
251888 
252077 
252263 
252445 
252628 
252817 
253008 
253202 
253396 
253600 
253788 
253972 
254154 
254340 
254530 
254724 
254915 
255107 
255293 
255478 
255655 
255841 
256026 
256217 
256409 
256603 
256792 
256973 
257149 
257332 
257519 
257710 
257900 
258089 
258277 
258461 
258642 
258820 
259001 
259185 
259383 
259575 
259761 
259943 
260124 
260302 
260481 
260667 
260854 
261039 
261232 
261418 
261597 
261770 
261947 
262125 
262312 
262505 
262690 
262870 
263050 
263230 
263405 
263576 
263677 
263758 
263872 
263977 
264074 
264282 
264495 
264667 
264836 
265010 
265190 
265370 
265550 
265733 
265913 
266092 
266268 
266440 
266614 
266790 
266977 
267164 
267349 
267526 
267698 
267869 
268044 
268220 
268397 
268580 
268762 
268948 
269126 
269297 
269466 
269638 
269813 
269995 
270183 
270365 
270543 
270717 
270894 
271064 
271234 
271410 
271593 
271773 
271957 
272137 
272309 
272475 
272646 
272743 
272825 
273002 
273180 
273359 
273499 
273628 
273712 
273885 
274055 
274222 
274389 
274569 
274756 
274936 
275110 
275284 
275455 
275624 
275798 
275929 
276150 
276329 
276513 
276695 
276868 
277035 
277205 
277378 
277555 
277739 
277921 
278104 
278280 
278454 
278630 
278803 
278973 
279148 
279332 
279518 
279701 
279876 
280051 
280220 
280395 
280573 
280755 
280933 
281115 
281295 
281472 
281647 
281817 
281990 
282167 
282357 
282541 
282723 
282901 
283075 
283247 
283356 
283603 
283782 
283963 
284149 
284339 
284516 
284688 
284863 
285039 
285217 
285406 
285594 
285779 
285957 
286137 
286315 
286491 
286667 
286848 
287036 
287227 
287418 
287594 
287768 
287943 
288125 
288305 
288491 
288675 
288861 
289040 
289218 
289394 
289569 
289745 
289929 
290121 
290309 
290487 
290662 
290837 
291009 
291184 
291360 
291543 
291723 
291910 
292097 
292268 
292440 
292608 
292780 
292971 
293160 
293344 
293523 
293700 
293876 
294049 
294221 
294397 
294580 
294764 
294953 
295140 
295316 
295487 
295666 
295849 
296029 
296213 
296402 
296587 
296770 
296949 
297125 
297301 
297480 
297669 
297856 
298044 
298225 
298399 
298570 
298748 
298926 
299103 
299286 
299472 
299661 
299840 
300015 
300187 
300362 
300541 
300726 
300912 
301096 
301276 
301455 
301632 
301808 
301977 
302154 
302339 
302525 
302708 
302886 
303059 
303228 
303402 
303579 
303682 
303937 
304120 
304298 
304473 
304646 
304816 
304985 
305156 
305339 
305521 
305692 
305877 
306018 
306119 
306200 
306303 
306410 
306507 
306642 
306723 
306839 
306936 
307060 
307255 
307429 
307597 
307759 
307858 
307955 
308036 
308143 
308246 
308343 
308465 
308548 
308694 
308785 
308883 
309082 
309187 
309284 
309384 
309473 
309615 
309777 
309876 
309972 
310115 
310303 
310480 
310577 
310699 
310810 
310947 
311047 
311143 
311310 
311404 
311504 
311660 
311743 
311858 
311989 
312181 
312278 
312425 
312537 
312621 
312780 
312968 
313175 
313270 
313377 
313511 
313610 
313706 
313813 
313905 
313991 
314094 
314260 
314361 
314488 
314596 
314693 
314825 
314944 
315048 
315189 
315284 
315388 
315516 
315616 
315713 
315810 
315975 
316192 
316364 
316536 
316679 
316765 
316875 
317039 
317200 
317366 
317536 
317707 
317885 
317998 
318141 
318254 
318393 
318513 
318614 
318719 
318889 
319057 
319153 
319256 
319399 
319570 
319739 
319906 
320068 
320177 
320389 
320556 
320731 
320905 
321077 
321244 
321408 
321569 
321732 
321898 
322063 
322235 
322408 
322586 
322747 
322927 
323086 
323248 
323405 
323581 
323755 
323929 
324104 
324272 
324440 
324608 
324729 
324930 
325029 
325268 
325439 
325614 
325788 
325954 
326114 
326273 
326441 
326604 
326772 
326941 
327112 
327280 
327448 
327611 
327770 
327927 
328085 
328254 
328429 
328598 
328763 
328931 
329095 
329252 
329412 
329509 
329611 
329708 
329902 
330080 
330254 
330420 
330587 
330744 
330903 
331061 
331227 
331397 
331567 
331739 
331904 
332075 
332239 
332399 
332558 
332719 
332885 
333000 
333135 
333257 
333402 
333540 
333643 
333755 
333852 
333943 
334055 
334154 
334251 
334333 
334437 
334532 
334639 
334723 
334893 
335065 
335231 
335334 
335421 
335528 
335624 
335714 
335805 
335973 
336084 
336168 
336278 
336398 
336496 
336595 
336692 
336855 
336949 
337037 
337160 
337258 
337374 
337494 
337631 
337735 
337845 
338011 
338155 
338250 
338357 
338459 
338559 
338665 
338762 
338881 
338986 
339070 
339177 
339277 
339368 
339471 
339564 
339661 
339759 
339859 
340079 
340224 
340326 
340427 
340570 
340692 
340801 
340900 
341005 
341112 
341263 
341425 
341590 
341759 
341923 
342096 
342268 
342442 
342615 
342791 
342889 
342993 
343119 
343284 
343449 
343622 
343768 
343978 
344149 
344318 
344485 
344651 
344816 
344982 
345104 
345234 
345323 
345497 
345674 
345845 
346006 
346167 
346330 
346493 
346660 
346835 
347006 
347105 
347342 
347516 
347678 
347838 
347997 
348162 
348330 
348505 
348608 
348852 
349020 
349178 
349344 
349508 
349671 
349837 
350009 
350182 
350352 
350520 
350684 
350843 
351003 
351168 
351342 
351512 
351685 
351856 
352023 
352184 
352349 
352516 
352678 
352846 
353018 
353196 
353370 
353541 
353702 
353862 
354024 
354191 
354361 
354532 
354705 
354874 
355047 
355216 
355379 
355538 
355699 
355868 
356038 
356213 
356386 
356555 
356718 
356880 
357046 
357209 
357375 
357543 
357716 
357887 
358059 
358227 
358389 
358551 
358709 
358876 
359051 
359223 
359390 
359560 
359729 
359888 
360051 
360217 
360379 
360542 
360715 
360893 
361062 
361229 
361389 
361549 
361708 
361873 
362043 
362211 
362381 
362551 
362722 
362887 
363048 
363205 
363367 
363533 
363701 
363875 
364048 
364215 
364377 
364538 
364702 
364863 
365028 
365194 
365364 
365533 
365707 
365875 
366034 
366198 
366355 
366519 
366690 
366861 
367027 
367195 
367363 
367522 
367686 
367850 
368011 
368177 
368348 
368527 
368702 
368872 
369033 
369195 
369357 
369522 
369692 
369862 
370034 
370203 
370376 
370545 
370706 
370862 
371025 
371193 
371362 
371535 
371714 
371883 
372047 
372211 
372380 
372543 
372710 
372883 
373058 
373230 
373407 
373581 
373745 
373907 
374002 
374248 
374424 
374601 
374776 
374949 
375119 
375288 
375460 
375626 
375795 
375971 
376154 
376332 
376510 
376678 
376846 
377013 
377185 
377361 
377536 
377715 
377892 
378072 
378245 
378413 
378579 
378747 
378919 
379100 
379283 
379461 
379636 
379804 
379977 
380147 
380317 
380488 
380666 
380844 
381024 
381204 
381373 
381538 
381705 
381882 
382058 
382236 
382414 
382593 
382764 
382935 
383107 
383272 
383440 
383615 
383800 
383978 
384154 
384324 
384491 
384654 
384824 
384997 
385170 
385347 
385523 
385704 
385874 
386044 
386209 
386373 
386542 
386721 
386903 
387078 
387254 
387424 
387594 
387763 
387933 
388101 
388276 
388456 
388638 
388815 
388983 
389151 
389316 
389487 
389661 
389839 
390013 
390189 
390363 
390536 
390705 
390870 
391039 
391210 
391391 
391574 
391753 
391924 
392094 
392263 
392432 
392605 
392780 
392958 
393134 
393316 
393494 
393663 
393827 
393996 
394166 
394343 
394526 
394706 
394881 
395052 
395227 
395396 
395565 
395732 
395906 
396084 
396264 
396443 
396614 
396781 
396946 
397119 
397292 
397468 
397643 
397820 
397995 
398168 
398338 
398502 
398670 
398839 
399017 
399199 
399378 
399551 
399720 
399887 
400056 
400227 
400397 
400573 
400749 
400927 
401105 
401276 
401437 
401601 
401771 
401947 
402126 
402306 
402488 
402662 
402837 
403010 
403180 
403347 
403523 
403705 
403888 
404070 
404246 
404353 
404584 
404762 
404937 
405117 
405298 
405481 
405660 
405838 
406013 
406183 
406350 
406522 
406707 
406888 
407069 
407246 
407419 
407585 
407758 
407934 
408107 
408285 
408469 
408656 
408833 
409004 
409175 
409347 
409520 
409702 
409886 
410069 
410247 
410428 
410603 
410775 
410943 
411116 
411298 
411482 
411667 
411845 
412022 
412190 
412286 
412538 
412718 
412897 
413079 
413261 
413442 
413618 
413789 
413960 
414131 
414313 
414499 
414681 
414858 
414989 
415205 
415375 
415548 
415721 
415898 
416077 
416264 
416442 
416615 
416782 
416953 
417120 
417296 
417481 
417661 
417838 
418016 
418193 
418362 
418530 
418702 
418878 
419056 
419242 
419426 
419601 
419770 
419942 
420119 
420292 
420469 
420650 
420833 
421011 
421189 
421361 
421528 
421696 
421872 
421970 
422053 
422233 
422410 
422541 
422681 
422782 
422879 
422986 
423097 
423195 
423295 
423404 
423617 
423800 
423984 
424161 
424328 
424495 
424666 
424837 
424986 
425116 
425216 
425376 
425551 
425729 
425905 
426073 
426238 
426408 
426584 
426765 
426945 
427125 
427300 
427465 
427636 
427811 
427983 
428155 
428334 
428515 
428692 
428867 
429035 
429202 
429367 
429543 
429724 
429904 
430080 
430258 
430428 
430599 
430771 
430938 
431109 
431286 
431466 
431593 
431700 
431796 
431899 
431989 
432155 
432318 
432489 
432659 
432775 
432950 
433076 
433190 
433328 
433468 
433557 
433684 
433774 
433868 
433974 
434204 
434309 
434407 
434557 
434733 
434905 
435069 
435235 
435404 
435571 
435735 
435909 
436087 
436262 
436436 
436604 
436770 
436932 
437100 
437277 
437451 
437626 
437797 
437972 
438137 
438300 
438467 
438631 
438798 
438972 
439112 
439242 
439350 
439497 
439596 
439693 
439824 
439920 
440022 
440148 
440257 
440494 
440670 
440843 
441022 
441195 
441362 
441526 
441695 
441867 
442047 
442232 
442410 
442585 
442756 
442930 
443100 
443270 
443445 
443624 
443805 
443989 
444170 
444339 
444507 
444678 
444854 
445031 
445215 
445395 
445574 
445749 
445923 
446097 
446267 
446440 
446619 
446809 
446992 
447171 
447345 
447517 
447668 
447861 
448040 
448220 
448338 
448583 
448768 
448939 
449105 
449277 
449451 
449632 
449817 
450001 
450183 
450358 
450535 
450711 
450884 
451056 
451236 
451422 
451607 
451791 
451966 
452138 
452309 
452489 
452670 
452854 
453038 
453222 
453399 
453575 
453752 
453924 
454097 
454280 
454470 
454652 
454831 
455007 
455181 
455352 
455528 
455706 
455888 
456071 
456259 
456441 
456617 
456787 
456959 
457133 
457317 
457507 
457688 
457870 
458049 
458228 
458403 
458578 
458755 
458942 
459127 
459317 
459501 
459681 
459853 
460030 
460212 
460395 
460577 
460763 
460947 
461129 
461308 
461481 
461655 
461833 
462022 
