141 
332 
476 
671 
801 
1005 
1131 
1325 
1456 
1644 
1768 
1966 
2111 
2333 
2463 
2645 
2814 
2974 
3127 
3290 
3456 
3637 
3813 
3972 
4126 
4315 
4456 
4643 
4763 
5018 
5149 
5278 
5603 
5728 
5956 
6085 
6190 
6506 
6659 
6891 
7070 
7238 
7408 
7576 
7738 
7902 
8065 
8245 
8416 
8633 
8778 
9033 
9159 
9269 
9601 
9752 
10013 
10198 
10334 
10584 
10713 
10944 
11076 
11313 
11502 
11640 
11859 
11990 
12192 
12310 
12548 
12686 
12929 
13058 
13282 
13454 
13593 
13805 
13921 
14148 
14278 
14513 
14661 
14886 
15005 
15199 
15328 
15540 
15671 
15906 
16088 
16257 
16429 
16588 
16770 
16952 
17122 
17294 
17477 
17638 
17836 
17987 
18210 
18330 
18469 
18750 
18898 
19127 
19263 
19524 
19649 
19909 
20041 
20295 
20428 
20684 
20829 
21079 
21246 
21408 
21525 
21743 
21879 
22121 
22260 
22468 
22594 
22808 
22946 
23168 
23289 
23522 
23713 
23906 
24098 
24277 
24455 
24634 
24834 
25040 
25252 
25504 
25648 
25903 
26034 
26294 
26428 
26692 
26852 
27099 
27235 
27460 
27584 
27812 
27946 
28065 
28271 
28573 
28699 
28920 
29063 
29258 
29394 
29664 
29802 
30050 
30238 
30375 
30587 
30712 
30930 
31076 
31319 
31461 
31680 
31812 
32030 
32161 
32391 
32526 
32758 
32888 
33129 
33292 
33430 
33659 
33796 
34018 
34149 
34384 
34624 
34842 
35025 
35223 
35424 
35622 
35815 
36010 
36201 
36393 
36580 
36756 
36933 
37106 
37308 
37520 
37719 
37888 
38059 
38237 
38412 
38591 
38781 
38972 
39147 
39331 
39524 
39698 
39866 
40037 
40214 
40391 
40587 
40786 
40959 
41130 
41298 
41480 
41663 
41854 
42041 
42223 
42404 
42547 
42764 
42939 
43113 
43281 
43468 
43674 
43865 
44038 
44205 
44378 
44552 
44729 
44915 
45101 
45237 
45385 
45645 
45778 
45931 
46164 
46289 
46522 
46661 
46911 
47042 
47260 
47380 
47597 
47740 
47965 
48105 
48340 
48477 
48706 
48840 
49079 
49203 
49431 
49588 
49833 
49978 
50204 
50331 
50536 
50661 
50885 
51051 
51264 
51413 
51621 
51758 
51986 
52117 
52324 
52457 
52674 
52809 
53032 
53215 
53378 
53537 
53687 
53877 
54072 
54266 
54444 
54628 
54813 
54985 
55143 
55351 
55483 
55718 
55854 
56127 
56258 
56486 
56631 
56829 
56999 
57186 
57362 
57566 
57708 
57913 
58050 
58272 
58399 
58602 
58733 
58840 
59137 
59248 
59485 
59657 
59810 
59970 
60141 
60250 
60355 
60499 
60660 
60820 
60992 
61129 
61305 
61477 
61635 
61802 
61967 
62095 
62325 
62456 
62661 
62817 
62970 
63135 
63300 
63476 
63667 
63831 
63991 
64151 
64315 
64486 
64653 
64821 
64987 
65167 
65335 
65508 
65680 
65821 
66002 
66143 
66323 
66482 
66700 
66859 
67038 
67198 
67355 
67517 
67680 
67829 
68022 
68190 
68360 
68505 
68707 
68835 
69017 
69171 
69327 
69486 
69664 
69841 
70009 
70144 
70260 
70359 
70474 
70642 
70808 
70978 
71097 
71304 
71474 
71627 
71772 
71959 
72082 
72269 
72420 
72578 
72768 
72940 
73106 
73253 
73400 
73553 
73699 
73855 
74009 
74180 
74321 
74500 
74663 
74831 
74985 
75137 
75266 
75425 
75549 
75738 
75912 
76085 
76242 
76398 
76543 
76691 
76853 
77015 
77165 
77340 
77508 
77671 
77822 
77983 
78121 
78296 
78447 
78541 
78724 
78919 
79074 
79259 
79418 
79561 
79702 
79849 
79992 
80154 
80321 
80419 
80513 
80629 
80795 
80935 
81119 
81253 
81424 
81565 
81717 
81839 
81951 
82024 
82200 
82360 
82497 
82663 
82785 
82946 
83087 
83272 
83408 
83598 
83759 
83909 
84048 
84213 
84341 
84524 
84677 
84840 
84990 
85165 
85330 
85499 
85634 
85798 
85944 
86101 
86229 
86419 
86570 
86771 
86933 
87088 
87237 
87411 
87543 
87730 
87888 
88048 
88219 
88392 
88548 
88642 
88750 
88858 
89034 
89134 
89361 
89530 
89710 
89877 
90043 
90197 
90353 
90493 
90684 
90819 
91015 
91149 
91354 
91533 
91706 
91873 
92017 
92173 
92337 
92492 
92671 
92843 
93030 
93171 
93345 
93473 
93677 
93845 
94019 
94185 
94353 
94514 
94633 
94861 
95004 
95188 
95354 
95514 
95699 
95901 
96078 
96244 
96402 
96568 
96721 
96891 
97066 
97238 
97418 
97582 
97748 
97923 
98084 
98243 
98399 
98563 
98738 
98918 
99103 
99285 
99456 
99617 
99778 
99956 
100112 
100311 
100426 
100658 
100798 
100995 
101124 
101344 
101489 
101653 
101789 
102125 
102266 
102378 
102677 
102810 
103044 
103241 
103441 
103636 
103816 
103998 
104122 
104346 
104476 
104673 
104805 
105025 
105172 
105385 
105568 
105736 
105891 
106053 
106229 
106402 
106581 
106743 
106917 
107089 
107256 
107431 
107610 
107786 
107965 
108156 
108358 
108545 
108731 
108893 
109027 
109222 
109367 
109681 
109823 
110066 
110211 
110429 
110568 
110793 
110916 
111143 
111289 
111515 
111646 
111860 
111990 
112185 
112312 
112549 
112693 
112920 
113046 
113244 
113377 
113588 
113702 
113943 
114128 
114275 
114407 
114745 
114873 
115117 
115299 
115484 
115676 
115874 
116065 
116243 
116409 
116553 
116765 
116900 
117128 
117259 
117493 
117629 
117854 
117985 
118204 
118378 
118549 
118741 
118943 
119136 
119263 
119474 
119612 
119806 
119941 
120169 
120303 
120439 
120675 
120807 
121071 
121250 
121413 
121586 
121775 
121963 
122164 
122336 
122540 
122669 
122906 
123051 
123315 
123467 
123629 
123740 
123880 
124144 
124279 
124537 
124678 
124926 
125082 
125354 
125549 
125709 
125876 
126047 
126216 
126399 
126596 
126751 
126938 
127105 
127254 
127459 
127628 
127800 
127956 
128169 
128305 
128530 
128675 
128881 
129002 
129209 
129352 
129600 
129749 
129967 
130141 
130271 
130480 
130619 
130834 
130978 
131202 
131349 
131571 
131709 
131898 
132068 
132234 
132403 
132594 
132799 
132952 
133161 
133267 
133551 
133687 
133935 
134067 
134299 
134549 
134756 
134964 
135155 
135337 
135537 
135765 
135975 
136168 
136358 
136547 
136731 
136921 
137124 
137319 
137502 
137688 
137884 
138062 
138240 
138412 
138593 
138779 
138985 
139188 
139365 
139539 
139709 
139902 
140093 
140287 
140460 
140640 
140818 
140990 
141168 
141350 
141526 
141702 
141898 
142115 
142300 
142482 
142653 
142823 
142989 
143175 
143382 
143572 
143760 
143942 
144102 
144313 
144449 
144668 
144808 
145037 
145186 
145413 
145575 
145771 
145891 
146103 
146252 
146484 
146635 
146840 
146971 
147170 
147302 
147510 
147651 
147809 
148035 
148190 
148414 
148551 
148759 
148885 
149071 
149207 
149433 
149582 
149820 
149951 
150155 
150286 
150503 
150637 
150867 
151021 
151211 
151360 
151596 
151729 
151962 
152096 
152303 
152450 
152717 
152893 
153105 
153234 
153447 
153571 
153800 
153980 
154156 
154383 
154503 
154622 
154934 
155070 
155278 
155456 
155628 
155829 
155987 
156207 
156335 
156419 
156529 
156635 
156884 
157032 
157266 
157402 
157617 
157752 
157959 
158132 
158306 
158470 
158656 
158833 
159026 
159212 
159340 
159546 
159713 
159880 
160060 
160256 
160455 
160621 
160814 
160950 
161180 
161308 
161411 
161549 
161845 
162002 
162180 
162286 
162424 
162649 
162814 
162977 
163159 
163355 
163547 
163715 
163883 
164052 
164185 
164373 
164510 
164725 
164880 
165073 
165231 
165428 
165596 
165762 
165899 
166068 
166210 
166407 
166558 
166692 
166940 
167079 
167252 
167415 
167592 
167745 
167946 
168080 
168278 
168443 
168605 
168747 
168935 
169067 
169246 
169412 
169594 
169749 
169871 
170107 
170266 
170417 
170549 
170737 
170879 
171087 
171260 
171419 
171553 
171745 
171913 
172061 
172193 
172385 
172561 
172727 
172877 
173070 
173200 
173390 
173538 
173694 
173841 
174050 
174196 
174394 
174556 
174720 
174846 
175013 
175146 
175350 
175526 
175686 
175842 
176045 
176185 
176372 
176517 
176664 
176805 
176982 
177128 
177343 
177512 
177672 
177823 
177981 
178149 
178307 
178459 
178633 
178778 
178975 
179104 
179291 
179461 
179618 
179776 
179922 
180085 
180252 
180456 
180628 
180786 
180941 
181097 
181230 
181410 
181573 
181766 
181911 
182097 
182237 
182438 
182610 
182777 
182912 
183092 
183227 
183433 
183593 
183800 
183964 
184124 
184248 
184438 
184581 
184808 
185002 
185169 
185320 
185500 
185634 
185831 
185969 
186176 
186348 
186526 
186700 
186896 
187037 
187222 
187345 
187550 
187720 
187905 
188098 
188271 
188440 
188599 
188772 
188950 
189123 
189288 
189468 
189653 
189769 
190003 
190148 
190353 
190500 
190682 
190845 
191062 
191214 
191443 
191572 
191783 
191906 
192118 
192263 
192505 
192693 
192869 
193055 
193237 
193391 
193555 
193720 
193894 
194064 
194251 
194442 
194609 
194775 
194930 
195100 
195285 
195471 
195660 
195841 
196018 
196182 
196355 
196532 
196702 
196876 
197030 
197236 
197445 
197621 
197810 
197977 
198130 
198308 
198498 
198690 
198892 
199076 
199249 
199432 
199574 
199800 
199943 
200151 
200317 
200507 
200700 
200881 
201043 
201202 
201348 
201536 
201719 
201915 
202054 
202253 
202382 
202578 
202712 
202927 
203061 
203291 
203471 
203657 
203817 
204013 
204143 
204331 
204460 
204668 
204817 
205054 
205217 
205402 
205528 
205722 
205861 
205974 
206258 
206396 
206607 
206778 
206945 
207111 
207278 
207434 
207597 
207753 
207942 
208111 
208311 
208443 
208624 
208783 
208936 
209076 
209269 
209424 
209626 
209787 
209945 
210112 
210281 
210438 
210597 
210756 
210922 
211096 
211269 
211427 
211611 
211743 
211914 
212062 
212226 
212394 
212589 
212770 
212923 
213074 
213230 
213381 
213537 
213704 
213857 
214021 
214179 
214324 
214521 
214680 
214838 
214963 
215124 
215277 
215427 
215584 
215764 
215927 
216079 
216209 
216362 
216515 
216679 
216814 
216990 
217141 
217296 
217443 
217598 
217750 
217905 
218049 
218194 
218334 
218483 
218649 
218823 
218979 
219136 
219275 
219411 
219553 
219688 
219839 
219999 
220163 
220326 
220478 
220623 
220777 
220939 
221084 
221236 
221372 
221520 
221682 
221833 
222000 
222161 
222313 
222458 
222597 
222735 
222887 
223056 
223217 
223390 
223538 
223687 
223845 
223983 
224135 
224288 
224432 
224594 
224750 
224907 
225078 
225250 
225401 
225558 
225696 
225835 
225990 
226140 
226311 
226489 
226657 
226817 
226961 
227105 
227262 
227421 
227578 
227741 
227899 
228052 
228211 
228369 
228522 
228681 
228826 
228978 
229118 
229280 
229446 
229643 
229801 
229955 
230104 
230252 
230377 
230550 
230717 
230886 
231049 
231208 
231368 
231531 
231695 
231846 
231997 
232145 
232298 
232458 
232628 
232794 
232969 
233120 
233276 
233418 
233575 
233752 
233901 
234089 
234226 
234410 
234573 
234723 
234882 
235051 
235188 
235379 
235540 
235719 
235879 
236075 
236224 
236375 
236502 
236694 
236850 
237024 
237211 
237380 
237529 
237688 
237822 
238019 
238178 
238346 
238509 
238684 
238863 
239021 
239197 
239364 
239514 
239683 
239816 
240005 
240165 
240391 
240540 
240735 
240894 
241059 
241214 
241387 
241575 
241755 
241936 
242065 
242194 
242445 
242576 
242778 
242935 
243097 
243273 
243414 
243625 
243779 
243955 
244108 
244261 
244437 
244620 
244802 
244979 
245138 
245315 
245453 
245640 
245776 
245978 
246114 
246317 
246464 
246693 
246827 
247032 
247162 
247343 
247480 
247686 
247832 
248049 
248186 
248391 
248516 
248712 
248854 
249054 
249202 
249389 
249534 
249666 
249774 
249875 
250078 
250215 
250407 
250532 
250737 
250939 
251135 
251321 
251477 
251636 
251798 
251925 
252133 
252288 
252495 
252640 
252858 
252999 
253224 
253404 
253537 
253729 
253889 
254109 
254259 
254526 
254651 
254863 
254990 
255209 
255405 
255604 
255781 
255948 
256100 
256269 
256412 
256616 
256749 
256855 
257131 
257277 
257507 
257649 
257831 
257950 
258150 
258285 
258495 
258643 
258880 
259013 
259206 
259331 
259542 
259686 
259897 
260030 
260243 
260391 
260591 
260726 
260937 
261065 
261251 
261375 
261606 
261770 
261993 
262129 
262329 
262459 
262648 
262782 
263007 
263155 
263381 
263514 
263733 
263880 
264092 
264226 
264436 
264572 
264805 
264954 
265178 
265325 
265417 
265732 
265871 
266191 
266358 
266592 
266772 
266946 
267123 
267280 
267473 
267668 
267847 
268040 
268246 
268426 
268603 
268771 
268952 
269137 
269346 
269522 
269726 
269997 
270136 
270416 
270554 
270859 
271004 
271293 
271431 
271692 
271846 
272071 
272202 
272460 
272656 
272882 
273019 
273227 
273365 
273583 
273725 
273986 
274130 
274252 
274533 
274680 
274908 
275047 
275266 
275404 
275638 
275785 
276020 
276157 
276367 
276491 
276721 
276880 
277133 
277277 
277504 
277643 
277861 
277993 
278233 
278368 
278619 
278760 
279023 
279168 
279399 
279525 
279758 
279914 
280159 
280329 
280569 
280706 
280816 
281124 
281271 
281535 
281675 
281813 
281914 
281994 
282228 
282358 
282668 
282805 
283065 
283232 
283468 
283747 
283876 
284129 
284254 
284531 
284692 
284979 
285132 
285361 
285529 
285737 
285874 
286100 
286247 
286368 
286668 
286817 
287033 
287165 
287364 
287510 
287763 
287913 
288140 
288313 
288451 
288646 
288789 
289002 
289138 
289335 
289452 
289726 
289872 
290099 
290219 
290342 
290485 
290794 
290942 
291192 
291330 
291540 
291668 
291896 
292031 
292274 
292414 
292640 
292778 
292994 
293133 
293345 
293480 
293694 
293841 
294106 
294248 
294372 
294644 
294769 
294985 
295171 
295368 
295562 
295733 
295917 
296101 
296291 
296435 
296614 
296765 
296873 
297210 
297358 
297635 
297780 
297982 
298134 
298372 
298577 
298735 
298948 
299089 
299293 
299424 
299641 
299792 
300025 
300165 
300403 
300556 
300699 
300962 
301090 
301314 
301459 
301695 
301849 
302083 
302224 
302421 
302554 
302797 
302945 
303072 
303363 
303503 
303718 
303864 
304079 
304206 
304409 
304548 
304781 
304946 
305172 
305308 
305488 
305615 
305845 
305995 
306248 
306390 
306615 
306749 
306870 
307146 
307284 
307484 
307626 
307835 
307977 
308216 
308363 
308573 
308705 
308911 
309058 
309312 
309474 
309691 
309826 
310035 
310165 
310371 
310524 
310738 
310871 
311094 
311246 
311454 
311595 
311782 
311914 
312120 
312260 
312487 
312646 
312864 
312998 
313196 
313332 
313544 
313689 
313925 
314068 
314301 
314439 
314632 
314776 
315001 
315138 
315338 
315494 
315747 
315891 
316093 
316228 
316422 
316547 
316765 
316922 
317145 
317290 
317496 
317630 
317842 
317977 
318193 
318328 
318539 
318679 
318893 
319037 
319243 
319376 
319559 
319693 
319926 
320085 
320310 
320439 
320626 
320767 
320975 
321107 
321327 
321458 
321679 
321819 
322053 
322188 
322389 
322507 
322708 
322853 
323043 
323193 
323455 
323587 
323803 
323930 
324157 
324303 
324539 
324682 
324910 
325054 
325265 
325400 
325628 
325763 
325964 
326104 
326379 
326534 
326776 
326899 
327090 
327231 
327342 
327660 
327809 
328062 
328252 
328432 
328624 
328798 
328934 
329146 
329293 
329512 
329658 
329790 
330039 
330171 
330360 
330498 
330722 
330874 
331099 
331232 
331421 
331562 
331742 
331880 
332095 
332237 
332450 
332590 
332799 
332949 
333152 
333290 
333476 
333611 
333818 
333978 
334212 
334351 
334554 
334678 
334865 
335013 
335243 
335401 
335611 
335746 
335954 
336091 
336292 
336430 
336634 
336771 
336984 
337142 
337351 
337497 
337717 
337842 
338073 
338266 
338464 
338670 
338859 
339002 
339189 
339360 
339577 
339724 
339945 
340090 
340292 
340439 
340691 
340825 
341044 
341179 
341310 
341609 
341774 
342020 
342171 
342369 
342497 
342722 
342876 
343084 
343239 
343513 
343656 
343901 
344043 
344243 
344376 
344594 
344749 
344978 
345121 
345321 
345444 
345655 
345800 
346031 
346186 
346383 
346522 
346745 
346877 
347093 
347267 
347420 
347609 
347790 
347987 
348174 
348353 
348478 
348669 
348823 
349028 
349177 
349400 
349541 
349764 
349895 
350123 
350264 
350473 
350606 
350821 
350971 
351166 
351307 
351522 
351650 
351829 
351960 
352187 
352344 
352564 
352703 
352892 
353021 
353211 
353356 
353563 
353709 
353932 
354077 
354182 
354456 
354589 
354796 
354924 
355114 
355259 
355483 
355639 
355859 
355988 
356185 
356314 
356496 
356658 
356912 
357065 
357272 
357414 
357597 
357736 
357946 
358084 
358300 
358438 
358651 
358814 
359026 
359165 
359335 
359467 
359684 
359825 
360056 
360220 
360416 
360548 
360737 
360878 
360997 
361258 
361400 
361611 
361762 
361948 
362076 
362290 
362452 
362616 
362769 
362941 
363138 
363326 
363506 
363659 
363811 
363975 
364110 
364224 
364481 
364623 
364833 
364966 
365158 
365308 
365513 
365649 
365834 
365978 
366186 
366329 
366544 
366693 
366873 
366998 
367181 
367330 
367554 
367703 
367918 
368065 
368260 
368384 
368586 
368729 
368938 
369085 
369294 
369447 
369669 
369808 
370011 
370138 
370323 
370467 
370686 
370840 
371078 
371211 
371408 
371537 
371748 
371893 
372116 
372263 
372477 
372622 
372813 
372954 
373173 
373301 
373507 
373643 
373862 
374025 
374242 
374377 
374558 
374687 
374880 
375022 
375234 
375394 
375605 
375735 
375934 
376083 
376276 
376414 
376602 
376749 
376953 
377086 
377297 
377448 
377634 
377763 
377939 
378079 
378299 
378446 
378670 
378802 
378932 
379148 
379311 
379454 
379657 
379829 
379996 
380163 
380354 
380537 
380705 
380858 
381022 
381195 
381366 
381556 
381750 
381896 
382080 
382208 
382428 
382570 
382696 
382871 
383161 
383295 
383507 
383670 
383855 
383995 
384194 
384321 
384539 
384698 
384928 
385069 
385263 
385391 
385597 
385722 
385953 
386167 
386359 
386536 
386685 
386875 
387071 
387258 
387429 
387615 
387777 
388006 
388148 
388421 
388552 
388775 
388976 
389188 
389385 
389566 
389742 
389887 
390052 
390298 
390475 
390588 
390913 
391048 
391328 
391518 
391634 
391882 
392019 
392279 
392486 
392636 
392854 
392985 
393182 
393326 
393457 
393750 
393889 
394110 
394257 
394445 
394580 
394827 
394955 
395179 
395326 
395582 
395734 
395964 
396084 
396291 
396434 
396682 
396830 
397090 
397266 
397390 
397623 
397774 
397991 
398139 
398367 
398559 
398699 
398972 
399118 
399371 
399502 
399760 
400003 
400223 
400424 
400610 
400802 
400982 
401175 
401390 
401596 
401784 
401970 
402130 
402385 
402527 
402780 
402926 
403205 
403368 
403614 
403768 
403869 
404176 
404345 
404565 
404787 
404968 
405148 
405313 
405484 
405675 
405854 
405998 
406199 
406349 
406591 
406726 
406927 
407085 
407272 
407414 
407643 
407799 
408069 
408192 
408435 
408576 
408835 
409034 
409229 
409433 
409610 
409791 
409976 
410143 
410309 
410459 
410675 
410854 
411159 
411283 
411534 
411660 
411907 
412089 
412312 
412505 
412684 
412876 
413038 
413236 
413429 
413624 
413823 
414027 
414229 
414376 
414623 
414748 
415034 
415190 
415490 
415690 
415813 
416061 
416217 
416467 
416674 
416877 
417070 
417241 
417381 
417657 
417774 
418003 
418145 
418392 
418550 
418771 
418962 
419123 
419299 
419471 
419672 
419867 
420055 
420214 
420463 
420607 
420863 
420990 
421245 
421390 
421677 
421880 
422062 
422218 
422395 
422562 
422749 
422951 
423125 
423328 
423491 
423664 
423852 
424026 
424187 
424434 
424587 
424860 
425001 
425259 
425413 
425627 
425843 
426078 
426290 
426451 
426647 
426790 
426973 
427118 
427409 
427552 
427838 
428042 
428245 
428395 
428592 
428737 
429032 
429172 
429452 
429657 
429784 
429908 
430179 
430340 
430604 
430829 
431018 
431177 
431384 
431530 
431835 
431975 
432251 
432466 
432677 
432861 
433032 
433174 
433417 
433555 
433844 
433992 
434251 
434435 
434633 
434836 
435042 
435240 
435443 
435639 
435829 
436011 
436184 
436361 
436530 
436689 
436907 
437070 
437342 
437470 
437709 
437887 
438056 
438280 
438478 
438602 
438832 
438997 
439201 
439387 
439627 
439902 
440057 
440292 
440476 
440644 
440795 
440972 
441173 
441367 
441572 
441725 
441923 
442106 
442292 
442480 
442668 
442829 
443080 
443231 
443512 
443648 
443887 
444076 
444271 
444442 
444684 
444841 
445100 
445220 
445477 
445627 
445899 
446102 
446297 
446463 
446677 
446826 
447046 
447189 
447396 
447544 
447825 
447969 
448192 
448319 
448528 
448658 
448888 
449093 
449269 
449458 
449626 
449803 
449989 
450156 
450343 
450535 
450739 
450929 
451094 
451353 
451486 
451740 
451956 
452186 
452403 
452594 
452752 
452961 
453099 
453353 
453498 
453764 
453920 
454156 
454352 
454529 
454695 
454869 
455041 
455246 
455424 
455671 
455805 
456016 
456145 
456401 
456573 
456819 
457010 
457190 
457372 
457555 
457737 
457911 
458089 
458273 
458469 
458671 
458850 
459025 
459181 
459354 
459510 
459726 
459929 
460127 
460287 
460463 
460591 
460849 
461038 
461233 
461426 
461611 
461786 
461972 
462156 
