77 
260 
447 
623 
805 
978 
1160 
1333 
1514 
1690 
1858 
2036 
2213 
2390 
2563 
2741 
2917 
3095 
3276 
3452 
3629 
3800 
3982 
4159 
4332 
4511 
4689 
4868 
5049 
5235 
5416 
5597 
5783 
5966 
6145 
6323 
6508 
6689 
6870 
7057 
7238 
7416 
7599 
7784 
7967 
8141 
8330 
8506 
8686 
8871 
9051 
9231 
9410 
9597 
9775 
9953 
10128 
10303 
10482 
10655 
10839 
11017 
11195 
11376 
11557 
11741 
11920 
12101 
12278 
12458 
12639 
12823 
12998 
13176 
13358 
13535 
13716 
13892 
14073 
14251 
14434 
14619 
14803 
14984 
15167 
15349 
15532 
15710 
15893 
16067 
16247 
16426 
16609 
16786 
16961 
17144 
17318 
17500 
17675 
17854 
18031 
18212 
18390 
18565 
18740 
18916 
19094 
19269 
19445 
19622 
19798 
19975 
20151 
20333 
20509 
20688 
20866 
21044 
21226 
21400 
21578 
21754 
21931 
22107 
22285 
22459 
22635 
22811 
22989 
23166 
23339 
23514 
23692 
23868 
24045 
24223 
24396 
24568 
24747 
24920 
25093 
25266 
25438 
25613 
25789 
25968 
26145 
26321 
26498 
26679 
26857 
27032 
27213 
27393 
27569 
27751 
27931 
28110 
28285 
28468 
28647 
28825 
29004 
29184 
29364 
29539 
29724 
29901 
30077 
30259 
30439 
30619 
30792 
30973 
31147 
31326 
31502 
31679 
31855 
32030 
32213 
32391 
32569 
32746 
32927 
33105 
33285 
33471 
33651 
33830 
34014 
34199 
34380 
34556 
34741 
34920 
35101 
35286 
35469 
35648 
35828 
36016 
36198 
36382 
36565 
36748 
36930 
37112 
37299 
37479 
37662 
37845 
38029 
38208 
38381 
38560 
38735 
38912 
39094 
39272 
39448 
39626 
39807 
39984 
40164 
40341 
40522 
40700 
40880 
41063 
41240 
41420 
41600 
41779 
41960 
42137 
42319 
42498 
42677 
42857 
43036 
43214 
43390 
43572 
43749 
43927 
44102 
44281 
44461 
44640 
44822 
45000 
45180 
45362 
45549 
45734 
45914 
46098 
46281 
46462 
46645 
46829 
47011 
47191 
47380 
47562 
47747 
47931 
48115 
48302 
48486 
48674 
48858 
49041 
49231 
49418 
49603 
49785 
49968 
50148 
50331 
50516 
50696 
50872 
51058 
51237 
51420 
51597 
51781 
51963 
52142 
52328 
52506 
52685 
52862 
53043 
53220 
53391 
53572 
53748 
53925 
54105 
54288 
54471 
54650 
54839 
55022 
55204 
55382 
55564 
55746 
55926 
56112 
56290 
56465 
56650 
56831 
57010 
57186 
57370 
57551 
57734 
57920 
58105 
58282 
58464 
58650 
58832 
59010 
59192 
59372 
59554 
59735 
59922 
60100 
60282 
60471 
60658 
60845 
61028 
61213 
61394 
61581 
61771 
61958 
62142 
62332 
62516 
62702 
62882 
63067 
63249 
63431 
63619 
63799 
63983 
64164 
64350 
64529 
64709 
64888 
65066 
65244 
65422 
65598 
65774 
65949 
66129 
66304 
66483 
66655 
66833 
67005 
67180 
67353 
67528 
67700 
67872 
68050 
68222 
68399 
68569 
68744 
68917 
69093 
69266 
69443 
69613 
69787 
69964 
70139 
70315 
70487 
70664 
70845 
71025 
71205 
71383 
71562 
71738 
71920 
72102 
72280 
72462 
72640 
72823 
73000 
73185 
73364 
73541 
73724 
73903 
74083 
74254 
74432 
74605 
74780 
74958 
75133 
75307 
75479 
75658 
75832 
76005 
76178 
76352 
76526 
76697 
76877 
77049 
77221 
77396 
77576 
77749 
77919 
78098 
78270 
78444 
78620 
78800 
78977 
79151 
79336 
79515 
79697 
79873 
80057 
80236 
80418 
80604 
80784 
80964 
81147 
81332 
81516 
81692 
81876 
82054 
82235 
82421 
82602 
82782 
82960 
83149 
83330 
83510 
83691 
83873 
84053 
84241 
84429 
84610 
84794 
84984 
85170 
85351 
85537 
85715 
85898 
86080 
86267 
86448 
86630 
86812 
86994 
87172 
87344 
87528 
87701 
87878 
88057 
88238 
88414 
88594 
88777 
88955 
89135 
89309 
89484 
89662 
89836 
90018 
90189 
90365 
90542 
90722 
90899 
91077 
91258 
91431 
91612 
91789 
91972 
92148 
92324 
92505 
92684 
92862 
93039 
93218 
93397 
93575 
93757 
93936 
94117 
94295 
94478 
94656 
94833 
95012 
95184 
95363 
95539 
95718 
95893 
96068 
96245 
96424 
96601 
96776 
96952 
97130 
97308 
97488 
97667 
97846 
98024 
98204 
98382 
98561 
98734 
98912 
99088 
99264 
99441 
99619 
99794 
99969 
100151 
100328 
100503 
100683 
100859 
101034 
101212 
101393 
101568 
101739 
101917 
102095 
102272 
102444 
102626 
102804 
102982 
103165 
103345 
103526 
103706 
103895 
104079 
104261 
104445 
104629 
104809 
104994 
105176 
105356 
105533 
105721 
105902 
106084 
106263 
106447 
106629 
106813 
107002 
107186 
107368 
107557 
107741 
107927 
108105 
108290 
108471 
108655 
108843 
109025 
109208 
109392 
109577 
109759 
109937 
110123 
110303 
110484 
110670 
110852 
111035 
111216 
111402 
111580 
111757 
111936 
112115 
112287 
112467 
112645 
112822 
112997 
113181 
113358 
113536 
113707 
113889 
114064 
114240 
114419 
114599 
114776 
114954 
115138 
115318 
115498 
115677 
115856 
116038 
116221 
116405 
116584 
116766 
116950 
117135 
117317 
117495 
117678 
117853 
118035 
118218 
118398 
118579 
118757 
118944 
119122 
119303 
119481 
119659 
119839 
120020 
120202 
120382 
120562 
120743 
120924 
121107 
121288 
121471 
121652 
121835 
122019 
122200 
122387 
122569 
122761 
122945 
123128 
123313 
123494 
123680 
123861 
124045 
124225 
124406 
124590 
124774 
124955 
125133 
125316 
125498 
125680 
125867 
126048 
126229 
126416 
126600 
126783 
126961 
127142 
127324 
127505 
127689 
127870 
128051 
128234 
128421 
128605 
128785 
128968 
129150 
129333 
129521 
129705 
129891 
130071 
130261 
130446 
130628 
130816 
131000 
131186 
131376 
131567 
131757 
131946 
132139 
132331 
132513 
132705 
132892 
133077 
133267 
133451 
133635 
133818 
134009 
134196 
134377 
134568 
134753 
134937 
135125 
135312 
135497 
135682 
135874 
136057 
136238 
136424 
136605 
136789 
136975 
137157 
137337 
137520 
137704 
137886 
138065 
138241 
138422 
138596 
138771 
138951 
139126 
139294 
139472 
139651 
139828 
139999 
140181 
140353 
140530 
140710 
140891 
141067 
141243 
141425 
141604 
141782 
141956 
142131 
142308 
142486 
142664 
142845 
143021 
143201 
143386 
143566 
143746 
143926 
144105 
144282 
144460 
144640 
144816 
144992 
145167 
145347 
145523 
145699 
145878 
146055 
146233 
146412 
146592 
146767 
146945 
147124 
147299 
147477 
147646 
147825 
148001 
148174 
148353 
148529 
148705 
148882 
149063 
149240 
149420 
149595 
149773 
149949 
150129 
150306 
150480 
150654 
150829 
151006 
151182 
151351 
151525 
151698 
151872 
152048 
152225 
152399 
152574 
152751 
152929 
153109 
153280 
153459 
153633 
153810 
153989 
154166 
154343 
154517 
154698 
154876 
155053 
155229 
155403 
155582 
155760 
155943 
156124 
156301 
156486 
156666 
156848 
157020 
157202 
157378 
157556 
157736 
157916 
158096 
158274 
158459 
158640 
158818 
158999 
159180 
159358 
159540 
159721 
159902 
160078 
160265 
160444 
160622 
160798 
160978 
161155 
161331 
161515 
161694 
161869 
162050 
162232 
162416 
162591 
162776 
162954 
163135 
163320 
163503 
163680 
163858 
164045 
164225 
164405 
164583 
164765 
164941 
165122 
165303 
165481 
165656 
165836 
166018 
166195 
166370 
166551 
166727 
166901 
167079 
167258 
167431 
167607 
167790 
167965 
168146 
168320 
168501 
168676 
168857 
169036 
169212 
169389 
169566 
169749 
169923 
170098 
170277 
170453 
170629 
170808 
170990 
171167 
171345 
171527 
171707 
171888 
172062 
172244 
172418 
172595 
172773 
172947 
173120 
173295 
173474 
173650 
173829 
174002 
174181 
174361 
174543 
174726 
174904 
175082 
175262 
175442 
175620 
175798 
175974 
176149 
176327 
176505 
176685 
176860 
177038 
177220 
177403 
177587 
177767 
177949 
178134 
178315 
178498 
178676 
178857 
179037 
179219 
179404 
179587 
179779 
179969 
180164 
180325 
180571 
180779 
180994 
181196 
181388 
181579 
181767 
181951 
182136 
182317 
182501 
182677 
182864 
183044 
183225 
183400 
183581 
183759 
183937 
184121 
184297 
184473 
184650 
184828 
185006 
185176 
185354 
185530 
185705 
185883 
186063 
186242 
186414 
186599 
186777 
186956 
187132 
187311 
187488 
187664 
187844 
188024 
188196 
188370 
188549 
188722 
188891 
189068 
189238 
189412 
189588 
189768 
189942 
190116 
190297 
190475 
190650 
190824 
191005 
191184 
191362 
191542 
191728 
191903 
192083 
192267 
192447 
192623 
192802 
192979 
193156 
193331 
193509 
193683 
193858 
194035 
194215 
194389 
194559 
194739 
194909 
195084 
195262 
195438 
195612 
195789 
195968 
196146 
196321 
196494 
196671 
196843 
197016 
197194 
197369 
197539 
197710 
197891 
198029 
198239 
198409 
198588 
198762 
198943 
199124 
199305 
199487 
199667 
199852 
200036 
200216 
200397 
200574 
200749 
200932 
201109 
201286 
201464 
201649 
201827 
202010 
202186 
202368 
202547 
202725 
202909 
203082 
203259 
203437 
203614 
203790 
203965 
204140 
204315 
204491 
204668 
204847 
205021 
205196 
205374 
205551 
205728 
205897 
206073 
206244 
206416 
206589 
206764 
206932 
207102 
207275 
207447 
207619 
207788 
207960 
208132 
208306 
208484 
208657 
208832 
209004 
209183 
209356 
209532 
209702 
209874 
210044 
210213 
210387 
210558 
210725 
210893 
211065 
211238 
211407 
211574 
211743 
211915 
212084 
212257 
212429 
212586 
212729 
212944 
213114 
213285 
213455 
213627 
213798 
213968 
214147 
214319 
214489 
214661 
214841 
215011 
215180 
215353 
215524 
215695 
215865 
216039 
216207 
216376 
216547 
216722 
216894 
217064 
217236 
217410 
217585 
217757 
217933 
218107 
218278 
218452 
218629 
218803 
218971 
219148 
219320 
219491 
219668 
219845 
220016 
220189 
220364 
220541 
220717 
220886 
221065 
221239 
221412 
221589 
221768 
221941 
222117 
222296 
222473 
222649 
222821 
222998 
223172 
223348 
223529 
223704 
223881 
224056 
224237 
224412 
224585 
224761 
224938 
225111 
225288 
225468 
225644 
225823 
226004 
226186 
226365 
226544 
226726 
226908 
227089 
227276 
227458 
227641 
227822 
228011 
228189 
228371 
228552 
228733 
228916 
229096 
229280 
229459 
229637 
229823 
230003 
230188 
230367 
230549 
230728 
230910 
231093 
231272 
231450 
231631 
231812 
231995 
232171 
232354 
232533 
232717 
232903 
233087 
233271 
233453 
233637 
233821 
234000 
234180 
234357 
234538 
234721 
234903 
235086 
235266 
235454 
235633 
235815 
235994 
236175 
236354 
236537 
236719 
236900 
237081 
237266 
237446 
237630 
237808 
237992 
238174 
238358 
238541 
238724 
238903 
239086 
239268 
239452 
239628 
239813 
239993 
240177 
240359 
240544 
240721 
240898 
241082 
241263 
241440 
241616 
241796 
241975 
242157 
242338 
242519 
242695 
242876 
243056 
243238 
243413 
243593 
243772 
243950 
244132 
244312 
244488 
244668 
244851 
245032 
245209 
245393 
245573 
245755 
245936 
246122 
246300 
246479 
246661 
246842 
247024 
247199 
247382 
247560 
247738 
247921 
248101 
248277 
248456 
248639 
248818 
248994 
249172 
249352 
249529 
249709 
249890 
250068 
250245 
250428 
250607 
250790 
250967 
251155 
251340 
251527 
251716 
251903 
252088 
252278 
252469 
252655 
252838 
253027 
253210 
253393 
253583 
253768 
253951 
254138 
254329 
254516 
254698 
254886 
255069 
255253 
255441 
255622 
255802 
255983 
256166 
256341 
256518 
256696 
256873 
257051 
257232 
257418 
257598 
257779 
257966 
258147 
258333 
258511 
258693 
258871 
259052 
259233 
259406 
259582 
259762 
259940 
260119 
260294 
260476 
260652 
260832 
261012 
261191 
261370 
261546 
261732 
261907 
262088 
262264 
262444 
262627 
262812 
262996 
263179 
263362 
263553 
263736 
263923 
264102 
264283 
264464 
264646 
264830 
265010 
265188 
265369 
265550 
265735 
265913 
266098 
266283 
266470 
266659 
266845 
267034 
267222 
267411 
267601 
267783 
267970 
268155 
268341 
268527 
268711 
268895 
269078 
269263 
269447 
269628 
269808 
269991 
270172 
270352 
270534 
270712 
270890 
271073 
271250 
271428 
271603 
271783 
271960 
272138 
272319 
272498 
272676 
272856 
273041 
273222 
273399 
273578 
273759 
273941 
274123 
274306 
274487 
274665 
274854 
275034 
275217 
275394 
275577 
275757 
275937 
276122 
276301 
276476 
276659 
276842 
277023 
277198 
277382 
277559 
277737 
277919 
278102 
278282 
278459 
278649 
278831 
279014 
279199 
279382 
279564 
279746 
279933 
280113 
280292 
280479 
280659 
280842 
281017 
281200 
281378 
281560 
281745 
281926 
282103 
282287 
282471 
282652 
282828 
283012 
283189 
283368 
283548 
283731 
283909 
284085 
284275 
284452 
284635 
284817 
284999 
285181 
285370 
285560 
285743 
285929 
286123 
286309 
286496 
286681 
286863 
287048 
287235 
287424 
287608 
287794 
287986 
288171 
288358 
288544 
288729 
288912 
289103 
289289 
289473 
289657 
289847 
290030 
290215 
290403 
290586 
290771 
290960 
291149 
291335 
291522 
291716 
291899 
292086 
292270 
292451 
292635 
292820 
293006 
293189 
293372 
293559 
293743 
293927 
294108 
294291 
294476 
294663 
294852 
295036 
295220 
295409 
295593 
295778 
295958 
296140 
296321 
296505 
296691 
296874 
297055 
297240 
297428 
297616 
297799 
297986 
298171 
298358 
298545 
298729 
298913 
299096 
299280 
299464 
299644 
299830 
300013 
300198 
300383 
300572 
300757 
300939 
301128 
301312 
301496 
301679 
301863 
302047 
302231 
302420 
302604 
302789 
302978 
303164 
303350 
303535 
303723 
303908 
304095 
304285 
304471 
304655 
304843 
305029 
305214 
305397 
305584 
305770 
305956 
306148 
306334 
306517 
306709 
306896 
307082 
307266 
307452 
307637 
307824 
308013 
308196 
308377 
308569 
308756 
308946 
309131 
309321 
309510 
309698 
309892 
310079 
310264 
310454 
310641 
310828 
311014 
311202 
311386 
311570 
311762 
311945 
312127 
312319 
312503 
312690 
312874 
313061 
313245 
313429 
313619 
313801 
313985 
314172 
314360 
314542 
314724 
314911 
315096 
315284 
315474 
315659 
315844 
316035 
316222 
316407 
316590 
316775 
316958 
317144 
317331 
317512 
317693 
317880 
318063 
318248 
318429 
318615 
318799 
318985 
319177 
319360 
319542 
319730 
319917 
320102 
320285 
320474 
320657 
320845 
321037 
321225 
321412 
321604 
321795 
321987 
322173 
322363 
322548 
322734 
322921 
323104 
323287 
323472 
323657 
323840 
324021 
324207 
324389 
324575 
324764 
324948 
325134 
325318 
325508 
325692 
325872 
326060 
326242 
326428 
326613 
326798 
326980 
327164 
327354 
327535 
327719 
327900 
328083 
328268 
328453 
328638 
328821 
329003 
329192 
329374 
329560 
329739 
329923 
330107 
330291 
330480 
330662 
330848 
331034 
331222 
331411 
331592 
331780 
331966 
332153 
332341 
332527 
332710 
332894 
333080 
333265 
333445 
333631 
333817 
334001 
334191 
334378 
334566 
334755 
334946 
335136 
335318 
335509 
335697 
335884 
336075 
336266 
336453 
336646 
336838 
337028 
337215 
337409 
337601 
337792 
337990 
338179 
338366 
338562 
338750 
338938 
339124 
339311 
339497 
339684 
339874 
340060 
340244 
340439 
340631 
340817 
341009 
341196 
341383 
341572 
341760 
341945 
342127 
342318 
342503 
342685 
342872 
343055 
343238 
343424 
343613 
343798 
343979 
344169 
344352 
344535 
344719 
344903 
345086 
345272 
345462 
345645 
345828 
346021 
346209 
346396 
346584 
346773 
346958 
347148 
347335 
347518 
347701 
347891 
348074 
348253 
348433 
348616 
348797 
348979 
349168 
349350 
349536 
349724 
349911 
350096 
350276 
350463 
350645 
350831 
351019 
351203 
351386 
351576 
351763 
351953 
352138 
352327 
352514 
352705 
352897 
353084 
353268 
353457 
353646 
353830 
354014 
354199 
354380 
354563 
354751 
354936 
355119 
355305 
355494 
355681 
355863 
356054 
356236 
356420 
356609 
356796 
356985 
357171 
357360 
357547 
357732 
357921 
358105 
358291 
358481 
358668 
358856 
359043 
359234 
359423 
359608 
359801 
359985 
360176 
360366 
360553 
360742 
360930 
361121 
361311 
361497 
361687 
361877 
362067 
362258 
362449 
362636 
362827 
363018 
363210 
363394 
363583 
363769 
363958 
364148 
364334 
364521 
364710 
364899 
365089 
365271 
365459 
365643 
365830 
366016 
366201 
366386 
366572 
366759 
366945 
367125 
367311 
367495 
367679 
367867 
368053 
368239 
368428 
368617 
368806 
368988 
369175 
369363 
369547 
369736 
369921 
370104 
370292 
370477 
370665 
370842 
371028 
371212 
371398 
371585 
371771 
371954 
372139 
372329 
372516 
372697 
372884 
373071 
373256 
373449 
373639 
373827 
374016 
374211 
374404 
374588 
374783 
374970 
375160 
375353 
375542 
375728 
375916 
376106 
376293 
376475 
376664 
376850 
377034 
377226 
377414 
377601 
377793 
377982 
378174 
378358 
378550 
378738 
378924 
379116 
379305 
379492 
379684 
379876 
380064 
380252 
380445 
380634 
380824 
381019 
381206 
381394 
381584 
381772 
381959 
382140 
382329 
382511 
382699 
382889 
383072 
383258 
383449 
383641 
383830 
384015 
384206 
384392 
384581 
384775 
384960 
385147 
385341 
385532 
385726 
385915 
386105 
386297 
386494 
386692 
386879 
387069 
387265 
387454 
387647 
387836 
388022 
388211 
388399 
388588 
388775 
388960 
389157 
389344 
389533 
389724 
389909 
390099 
390292 
390481 
390669 
390860 
391051 
391241 
391426 
391616 
391805 
391994 
392188 
392377 
392567 
392758 
392950 
393139 
393321 
393509 
393692 
393880 
394067 
394252 
394435 
394624 
394813 
395002 
395187 
395376 
395563 
395754 
395945 
396132 
396321 
396509 
396699 
396888 
397071 
397259 
397443 
397631 
397821 
398007 
398193 
398382 
398570 
398759 
398944 
399132 
399317 
399504 
399693 
399878 
400062 
400250 
400434 
400620 
400803 
400987 
401174 
401358 
401547 
401730 
401914 
402100 
402283 
402471 
402649 
402836 
403018 
403201 
403385 
403569 
403751 
403934 
404121 
404306 
404485 
404671 
404855 
405039 
405226 
405411 
405597 
405778 
405969 
406153 
406337 
406519 
406702 
406885 
407066 
407255 
407435 
407617 
407802 
407987 
408171 
408352 
408537 
408721 
408904 
409093 
409278 
409459 
409648 
409832 
410019 
410197 
410387 
410569 
410751 
410938 
411120 
411302 
411486 
411673 
411855 
412034 
412220 
412403 
412584 
412770 
412954 
413137 
413321 
413511 
413695 
413875 
414065 
414250 
414436 
414624 
414813 
414997 
415184 
415375 
415559 
415740 
415925 
416109 
416288 
416475 
416657 
416838 
417021 
417210 
417395 
417576 
417765 
417949 
418135 
418323 
418511 
418695 
418881 
419073 
419259 
419443 
419632 
419817 
420001 
420191 
420378 
420562 
420750 
420940 
421122 
421302 
421488 
421670 
421850 
422037 
422219 
422403 
422586 
422776 
422961 
423142 
423331 
423514 
423701 
423893 
424081 
424267 
424452 
424645 
424827 
425011 
425197 
425379 
425565 
425752 
425940 
426124 
426310 
426503 
426689 
426875 
427061 
427246 
427431 
427617 
427804 
427986 
428169 
428358 
428542 
428726 
428912 
429095 
429280 
429468 
429656 
429841 
430024 
430216 
430398 
430585 
430766 
430949 
431132 
431315 
431501 
431682 
431866 
432051 
432235 
432421 
432603 
432788 
432973 
433157 
433344 
433526 
433709 
433892 
434075 
434258 
434434 
434616 
434797 
434980 
435165 
435349 
435535 
435718 
435907 
436094 
436275 
436461 
436644 
436828 
437014 
437199 
437383 
437564 
437753 
437938 
438123 
438307 
438491 
438678 
438862 
439053 
439237 
439419 
439608 
439795 
439980 
440164 
440349 
440534 
440723 
440912 
441100 
441286 
441481 
441673 
441862 
442053 
442242 
442430 
442620 
442811 
442999 
443186 
443380 
443569 
443752 
443944 
444131 
444318 
444507 
444693 
444882 
445068 
445260 
445445 
445624 
445814 
445996 
446180 
446365 
446550 
446730 
446914 
447100 
447286 
447465 
447654 
447838 
448022 
448212 
448399 
448586 
448770 
448961 
449149 
449330 
449521 
449705 
449889 
450078 
450265 
450448 
450633 
450823 
451009 
451191 
451380 
451565 
451751 
451940 
452129 
452313 
452499 
452690 
452875 
453058 
453246 
453433 
453617 
453807 
453996 
454179 
454366 
454557 
454742 
454922 
455110 
455294 
455476 
455663 
455846 
456029 
456209 
456400 
456581 
456763 
456946 
457130 
457312 
457498 
457688 
457870 
458054 
458246 
458431 
458614 
458797 
458980 
459162 
459347 
459536 
459718 
459900 
460089 
460274 
460462 
460644 
460830 
461015 
461202 
461392 
461573 
461757 
461944 
462127 
