4.609375 1.1625320000000001 0.540988 -0.621544
4.93359375 0.27455799999999997 0.084877 -0.189681
5.2890625 1.129526 0.55976 -0.569766
5.5390625 0.559839 0.064863 -0.494976
5.9921875 0.965099 0.362306 -0.602793
7.859375 0.81358 0.276172 -0.537408
8.51953125 0.770115 0.279912 -0.490203
10.1875 0.710843 0.141518 -0.569325
10.86328125 0.868379 0.269058 -0.599321
12.53515625 0.894357 0.299357 -0.595
13.19921875 0.858134 0.303858 -0.554276
14.84375 0.729736 0.197936 -0.5318
15.515625 0.744235 0.319242 -0.424993
16.26953125 0.969714 0.404914 -0.5648
18.0078125 0.791082 0.2421 -0.548982
18.671875 0.674072 0.169382 -0.50469
19.3984375 0.965419 0.398083 -0.567336
20.09375 1.0505140000000002 0.512117 -0.538397
20.81640625 1.12134 0.48953 -0.63181
21.54296875 1.1291609999999999 0.49963 -0.629531
22.234375 1.108827 0.454761 -0.654066
22.93359375 1.064954 0.454215 -0.610739
24.83984375 1.03514 0.449372 -0.585768
27.4765625 0.816299 0.318341 -0.497958
28.59765625 0.915878 0.360878 -0.555
29.28125 0.854557 0.315 -0.539557
29.9921875 0.837346 0.27837 -0.558976
31.83984375 0.836639 0.339679 -0.49696
32.515625 1.01658 0.50158 -0.515
33.26171875 1.07769 0.505044 -0.572646
33.9921875 1.103028 0.480632 -0.622396
34.703125 1.144382 0.464382 -0.68
35.41015625 0.951401 0.330658 -0.620743
36.12109375 0.874873 0.274914 -0.599959
36.84765625 1.047901 0.493849 -0.554052
37.57421875 1.0697679999999998 0.436071 -0.633697
38.3125 1.248447 0.518468 -0.729979
39.05078125 1.1645429999999999 0.454543 -0.71
39.77734375 1.1705079999999999 0.442472 -0.728036
42.55078125 0.843569 0.276596 -0.566973
43.69140625 0.967226 0.352403 -0.614823
44.3515625 0.9835670000000001 0.390944 -0.592623
45.07421875 0.946947 0.329019 -0.617928
46.99609375 0.859701 0.289707 -0.569994
47.67578125 0.747946 0.219114 -0.528832
48.3984375 0.7965990000000001 0.291599 -0.505
49.125 0.850278 0.35 -0.500278
51.12109375 0.741153 0.266936 -0.474217
52.484375 0.7865150000000001 0.251515 -0.535
53.14453125 0.82473 0.384898 -0.439832
53.8671875 0.869506 0.404808 -0.464698
54.58984375 0.928548 0.413895 -0.514653
55.296875 1.163576 0.569707 -0.593869
56.0234375 1.1769180000000001 0.615 -0.561918
58.69140625 1.003881 0.518881 -0.485
59.890625 0.8750249999999999 0.336406 -0.538619
60.5703125 0.972668 0.474904 -0.497764
61.296875 1.029771 0.564819 -0.464952
63.12890625 0.906713 0.348533 -0.55818
63.796875 1.017011 0.517177 -0.499834
64.53125 0.9602189999999999 0.398871 -0.561348
66.35546875 1.1848960000000002 0.669896 -0.515
67.01953125 1.071148 0.566171 -0.504977
67.73828125 1.083806 0.579434 -0.504372
68.44921875 1.020694 0.432361 -0.588333
70.42578125 0.887313 0.352313 -0.535
72.50390625 0.947534 0.481159 -0.466375
74.4765625 1.069015 0.522042 -0.546973
75.140625 0.954434 0.451841 -0.502593
75.85546875 0.9499709999999999 0.369971 -0.58
76.5546875 0.9229160000000001 0.393832 -0.529084
77.28125 0.9920340000000001 0.445594 -0.54644
78.0078125 1.064967 0.447832 -0.617135
78.71875 1.024585 0.377748 -0.646837
79.421875 1.0429080000000002 0.362908 -0.68
80.14453125 1.178828 0.529883 -0.648945
80.875 1.15828 0.545 -0.61328
81.59765625 1.207117 0.538685 -0.668432
83.359375 1.16842 0.528303 -0.640117
84.05078125 1.255478 0.531027 -0.724451
84.78125 1.1318009999999998 0.422268 -0.709533
85.5 1.151991 0.425 -0.726991
86.9296875 1.091626 0.426626 -0.665
87.59765625 1.020638 0.442605 -0.578033
88.32421875 0.943701 0.301682 -0.642019
90.21875 1.135909 0.572821 -0.563088
90.9140625 1.224909 0.654682 -0.570227
91.65234375 1.201917 0.552695 -0.649222
92.37109375 1.157724 0.546277 -0.611447
93.08984375 1.2384680000000001 0.580106 -0.658362
93.80859375 1.123407 0.473764 -0.649643
95.296875 1.108744 0.429912 -0.678832
95.9921875 1.173787 0.596604 -0.577183
96.73828125 1.204015 0.5572 -0.646815
98.64453125 1.1099890000000001 0.504989 -0.605
99.30859375 1.048861 0.524218 -0.524643
100.05859375 0.849647 0.304647 -0.545
100.79296875 0.888169 0.387511 -0.500658
102.703125 0.76338 0.219386 -0.543994
103.3671875 0.788087 0.244588 -0.543499
104.1328125 1.043486 0.439999 -0.603487
106.09375 0.967703 0.410537 -0.557166
106.7734375 0.8299080000000001 0.349254 -0.480654
107.5078125 0.780526 0.276544 -0.503982
108.2265625 1.046422 0.517643 -0.528779
110.19140625 0.9199280000000001 0.414951 -0.504977
110.86328125 0.8167150000000001 0.358549 -0.458166
111.58203125 0.7269479999999999 0.273474 -0.453474
113.5390625 1.024178 0.649803 -0.374375
114.23828125 1.045741 0.641765 -0.403976
114.95703125 1.063507 0.591948 -0.471559
116.859375 0.915885 0.560885 -0.355
117.54296875 0.815277 0.517095 -0.298182
118.2734375 0.7542260000000001 0.399121 -0.355105
120.140625 1.012262 0.687474 -0.324788
120.828125 1.0396159999999999 0.691031 -0.348585
121.578125 0.838951 0.503951 -0.335
123.453125 1.057953 0.652953 -0.405
124.125 1.0249869999999999 0.615 -0.409987
124.8515625 0.8523769999999999 0.455 -0.397377
125.55859375 0.8592230000000001 0.449425 -0.409798
126.28515625 0.786925 0.364658 -0.422267
126.99609375 0.787552 0.348089 -0.439463
128.875 1.075 0.63 -0.445
129.55859375 1.128374 0.658599 -0.469775
130.3046875 1.036354 0.601865 -0.434489
131.046875 1.069242 0.579689 -0.489553
131.77734375 1.03904 0.552987 -0.486053
132.49609375 1.199758 0.624252 -0.575506
133.2109375 0.9845299999999999 0.549615 -0.434915
133.93359375 0.973049 0.598703 -0.374346
134.66015625 0.9943 0.525411 -0.468889
135.390625 0.984662 0.56483 -0.419832
136.13671875 0.998644 0.544906 -0.453738
138.53515625 1.215155 0.765623 -0.449532
139.9140625 1.103443 0.724872 -0.378571
140.6015625 1.130265 0.770265 -0.36
141.33984375 1.035919 0.638374 -0.397545
142.04296875 0.959793 0.609916 -0.349877
142.7734375 0.95134 0.591394 -0.359946
144.46484375 1.146156 0.696458 -0.449698
145.171875 1.074763 0.664419 -0.410344
145.90234375 0.9253229999999999 0.527021 -0.398302
147.7265625 1.1542350000000001 0.689235 -0.465
148.4296875 1.178755 0.758132 -0.420623
149.1484375 0.960297 0.569364 -0.390933
151.0 1.133889 0.645 -0.488889
151.68359375 1.042544 0.569952 -0.472592
152.40234375 0.958655 0.458845 -0.49981
154.3125 0.8714649999999999 0.39561 -0.475855
155.0 1.009925 0.545 -0.464925
155.73046875 1.097834 0.54492 -0.552914
157.6328125 0.9708140000000001 0.466832 -0.503982
158.3125 0.984885 0.563681 -0.421204
159.02734375 1.015168 0.465168 -0.55
159.7421875 1.029702 0.500477 -0.529225
160.47265625 1.1009440000000001 0.566399 -0.534545
161.1875 1.033701 0.558824 -0.474877
163.72265625 0.911318 0.531589 -0.379729
165.15625 0.8541300000000001 0.427969 -0.426161
165.83203125 0.881559 0.456074 -0.425485
166.55859375 0.844492 0.354709 -0.489783
168.44140625 1.054653 0.609828 -0.444825
169.14453125 1.030512 0.624943 -0.405569
169.87890625 1.065476 0.578948 -0.486528
170.609375 1.311537 0.753634 -0.557903
171.34375 1.240336 0.686929 -0.553407
172.06640625 1.260999 0.634396 -0.626603
173.96484375 1.124417 0.627691 -0.496726
174.6484375 1.065578 0.615578 -0.45
176.37890625 0.8150710000000001 0.343911 -0.47116
177.03515625 0.8055140000000001 0.32515 -0.480364
178.6953125 0.945407 0.38624 -0.559167
179.375 0.8849940000000001 0.4 -0.484994
181.02734375 1.1674440000000001 0.548772 -0.618672
181.70703125 1.2128709999999998 0.575 -0.637871
182.42578125 1.089354 0.450575 -0.638779
184.234375 1.033667 0.428667 -0.605
184.921875 1.159219 0.559915 -0.599304
185.6328125 1.112648 0.460578 -0.65207
187.3984375 1.1912500000000001 0.521572 -0.669678
188.08203125 1.201786 0.546786 -0.655
188.8125 1.1187399999999998 0.448889 -0.669851
190.5859375 0.914674 0.309674 -0.605
191.23828125 0.929316 0.324739 -0.604577
192.89453125 1.096638 0.424989 -0.671649
193.58203125 1.151739 0.460406 -0.691333
194.29296875 1.014738 0.306167 -0.708571
196.07421875 0.897613 0.307613 -0.59
196.75 0.86998 0.31 -0.55998
197.48828125 1.066998 0.483711 -0.583287
198.20703125 1.2267009999999998 0.531735 -0.694966
200.0078125 1.0174539999999999 0.502454 -0.515
200.68359375 0.926076 0.455 -0.471076
202.40234375 0.803815 0.384292 -0.419523
203.046875 0.7011160000000001 0.336116 -0.365
203.75390625 0.51877 0.20552 -0.31325
204.45703125 0.477785 0.256296 -0.221489
205.17578125 0.5239750000000001 0.254004 -0.269971
206.9921875 0.7262379999999999 0.421295 -0.304943
208.921875 0.461607 0.244888 -0.216719
209.6015625 0.5578420000000001 0.343303 -0.214539
210.32421875 0.860239 0.527768 -0.332471
212.19140625 0.9002669999999999 0.609366 -0.290901
212.84765625 0.96265 0.617861 -0.344789
213.58203125 1.055475 0.62154 -0.433935
215.453125 0.9033559999999999 0.578737 -0.324619
216.11328125 0.8316349999999999 0.481635 -0.35
216.83984375 0.759131 0.386377 -0.372754
218.6875 1.019951 0.6 -0.419951
219.37890625 1.080419 0.613033 -0.467386
220.11328125 1.160562 0.635031 -0.525531
220.8046875 1.033417 0.558844 -0.474573
221.50390625 0.987652 0.501093 -0.486559
222.21875 0.9981789999999999 0.51625 -0.481929
224.14453125 0.910551 0.429995 -0.480556
224.81640625 0.9462619999999999 0.52909 -0.417172
225.5390625 0.8948389999999999 0.434839 -0.46
226.2421875 0.851989 0.404572 -0.447417
226.9609375 0.829871 0.384921 -0.44495
227.703125 0.828492 0.373839 -0.454653
228.4140625 0.809936 0.29 -0.519936
229.16015625 0.8993610000000001 0.359361 -0.54
229.87890625 0.9356479999999999 0.35 -0.585648
230.609375 0.930703 0.345703 -0.585
231.33984375 0.868996 0.27517 -0.593826
232.0859375 0.854994 0.255 -0.599994
232.8125 0.928552 0.292548 -0.636004
233.55859375 1.024268 0.359366 -0.664902
234.2890625 0.9547370000000001 0.326404 -0.628333
235.0078125 0.8738239999999999 0.209802 -0.664022
236.60546875 0.947854 0.370288 -0.577566
237.30078125 1.047313 0.497313 -0.55
238.05859375 1.230331 0.599239 -0.631092
238.7890625 1.1842890000000001 0.569412 -0.614877
239.515625 1.080814 0.490934 -0.58988
242.32421875 0.978375 0.584561 -0.393814
243.640625 0.9168540000000001 0.507451 -0.409403
244.3203125 1.005882 0.609945 -0.395937
245.06640625 0.95048 0.524394 -0.426086
245.796875 1.016393 0.484914 -0.531479
246.51953125 0.996564 0.464995 -0.531569
247.21875 0.9004239999999999 0.397121 -0.503303
247.94921875 0.996421 0.456767 -0.539654
248.69140625 1.043928 0.544417 -0.499511
249.421875 1.014084 0.549454 -0.46463
251.43359375 1.017342 0.603019 -0.414323
252.13671875 1.076695 0.585318 -0.491377
252.87109375 0.863056 0.438089 -0.424967
254.8125 1.025529 0.570688 -0.454841
255.51171875 1.045249 0.607181 -0.438068
257.25390625 1.125913 0.653127 -0.472786
257.93359375 1.0785870000000002 0.618975 -0.459612
258.67578125 0.802604 0.390478 -0.412126
259.40234375 0.949086 0.512485 -0.436601
260.1328125 0.977749 0.503992 -0.473757
261.84375 0.840785 0.413224 -0.427561
262.54296875 0.951098 0.524098 -0.427
263.3046875 0.942119 0.555919 -0.3862
265.234375 0.849613 0.495623 -0.35399
265.90625 0.806623 0.45707 -0.349553
266.63671875 0.793982 0.38992 -0.404062
267.37890625 0.910168 0.495168 -0.415
268.125 0.959964 0.475 -0.484964
268.85546875 0.959963 0.444963 -0.515
270.8359375 0.833217 0.409479 -0.423738
271.52734375 0.735452 0.343614 -0.391838
273.35546875 0.764945 0.229945 -0.535
274.0390625 0.894236 0.35972 -0.534516
274.78515625 0.903823 0.373964 -0.529859
275.50390625 0.854086 0.389086 -0.465
276.25 0.91346 0.395 -0.51846
277.984375 0.7949999999999999 0.445 -0.35
278.671875 1.072244 0.688668 -0.383576
279.40234375 1.216378 0.679681 -0.536697
281.28515625 1.122621 0.692621 -0.43
281.96875 1.2406350000000002 0.791814 -0.448821
282.69140625 1.09392 0.624409 -0.469511
283.40234375 0.9427049999999999 0.508725 -0.43398
286.0625 0.874215 0.343036 -0.531179
287.19140625 1.089382 0.464382 -0.625
287.87890625 1.1731099999999999 0.583395 -0.589715
288.6171875 1.1132360000000001 0.49785 -0.615386
290.54296875 1.21014 0.67014 -0.54
291.203125 1.183868 0.67925 -0.504618
291.93359375 1.0849129999999998 0.552186 -0.532727
293.9296875 1.020715 0.475919 -0.544796
295.37890625 1.0385 0.490893 -0.547607
296.0625 0.950833 0.415833 -0.535
296.78125 0.8965839999999999 0.329271 -0.567313
297.5078125 0.885766 0.338033 -0.547733
298.25 0.919962 0.365 -0.554962
298.98046875 0.997627 0.439931 -0.557696
299.7109375 1.049706 0.489706 -0.56
300.44921875 1.104854 0.54655 -0.558304
302.33984375 0.930021 0.465323 -0.464698
303.76171875 0.9068240000000001 0.403364 -0.50346
304.4375 1.1270440000000002 0.6026 -0.524444
305.171875 1.08178 0.50678 -0.575
305.8984375 1.063151 0.489423 -0.573728
306.6328125 1.089411 0.471875 -0.617536
308.52734375 0.9093709999999999 0.282253 -0.627118
309.203125 0.941101 0.272055 -0.669046
309.94140625 0.9686889999999999 0.283804 -0.684885
310.66796875 1.110436 0.390687 -0.719749
311.4140625 1.150394 0.429577 -0.720817
312.15625 1.065974 0.392598 -0.673376
314.93359375 1.251616 0.611616 -0.64
316.33203125 1.183169 0.571646 -0.611523
317.0078125 1.0760450000000001 0.572366 -0.503679
318.68359375 0.840792 0.374707 -0.466085
319.34375 0.776502 0.309687 -0.466815
320.07421875 0.888191 0.351423 -0.536768
320.796875 0.865818 0.417954 -0.447864
321.515625 0.73316 0.267686 -0.465474
322.22265625 0.881604 0.46 -0.421604
322.94140625 0.864771 0.31482 -0.549951
323.66015625 0.870312 0.270753 -0.599559
324.4140625 1.059729 0.389849 -0.66988
326.26953125 1.074744 0.404871 -0.669873
326.94140625 1.014033 0.369356 -0.644677
328.69921875 0.794543 0.229543 -0.565
329.390625 0.958264 0.368721 -0.589543
330.140625 0.92601 0.24409 -0.68192
331.953125 0.827996 0.203594 -0.624402
332.625 0.735 0.125 -0.61
333.375 0.7224999999999999 0.07 -0.6525
334.078125 0.867588 0.153594 -0.713994
334.8125 0.962001 0.232143 -0.729858
335.53125 0.968765 0.268984 -0.699781
337.37890625 1.0699990000000001 0.434999 -0.635
338.0625 0.987094 0.373333 -0.613761
338.80859375 0.988348 0.399566 -0.588782
339.53125 1.1210010000000001 0.496614 -0.624387
340.26953125 1.204776 0.454907 -0.749869
341.921875 0.7889189999999999 0.244689 -0.54423
342.58984375 0.824171 0.31 -0.514171
343.30859375 0.879697 0.344697 -0.535
344.0234375 0.957067 0.409992 -0.547075
344.73828125 0.833464 0.321971 -0.511493
346.33984375 0.752942 0.245 -0.507942
347.01171875 0.813906 0.299739 -0.514167
347.75 0.888923 0.38 -0.508923
348.45703125 0.898826 0.396004 -0.502822
349.18359375 0.8294539999999999 0.344701 -0.484753
351.1484375 1.042295 0.542506 -0.499789
351.83984375 0.973513 0.462712 -0.510801
352.57421875 0.916015 0.391015 -0.525
354.515625 0.9651669999999999 0.538121 -0.427046
357.078125 0.868941 0.549572 -0.319369
358.46875 0.854975 0.487281 -0.367694
359.15234375 0.8823529999999999 0.52326 -0.359093
359.91015625 0.984585 0.599986 -0.384599
360.640625 1.1266159999999998 0.646616 -0.48
361.3828125 1.042439 0.574028 -0.468411
362.09375 0.981825 0.489263 -0.492562
362.8203125 0.9829840000000001 0.489234 -0.49375
363.55859375 0.956601 0.454952 -0.501649
366.3203125 0.8802300000000001 0.511596 -0.368634
367.60546875 0.84 0.41 -0.43
368.2890625 0.845256 0.419978 -0.425278
369.03125 0.9870920000000001 0.482581 -0.504511
369.75 0.929959 0.395 -0.534959
370.46875 0.919122 0.39 -0.529122
372.13671875 1.087885 0.56354 -0.524345
372.82421875 1.10533 0.646856 -0.458474
373.58203125 0.941492 0.453785 -0.487707
375.47265625 1.100233 0.626017 -0.474216
376.1484375 1.1041699999999999 0.667145 -0.437025
376.89453125 1.090153 0.62995 -0.460203
377.64453125 1.029439 0.579559 -0.44988
378.359375 0.804366 0.437914 -0.366452
379.078125 0.952901 0.478625 -0.474276
379.79296875 0.977641 0.447641 -0.53
382.49609375 0.780339 0.492914 -0.287425
383.83203125 0.6818 0.339832 -0.341968
384.5 0.8049999999999999 0.495 -0.31
385.23828125 0.826355 0.463414 -0.362941
385.9765625 0.800211 0.459296 -0.340915
386.70703125 0.803409 0.414438 -0.388971
387.43359375 0.848442 0.4 -0.448442
388.140625 0.941751 0.515 -0.426751
388.359375 0.057224 -0.017178 -0.074402
389.75390625 0.917729 0.466138 -0.451591
390.44140625 1.249315 0.749764 -0.499551
391.1875 1.435948 0.955948 -0.48
391.94140625 1.467384 0.972483 -0.494901
392.67578125 1.258195 0.903654 -0.354541
393.3984375 1.313613 0.829391 -0.484222
394.1328125 1.233087 0.760626 -0.472461
394.88671875 1.146194 0.703512 -0.442682
397.734375 1.207552 0.748067 -0.459485
398.87109375 1.257313 0.707313 -0.55
399.5703125 1.440707 0.872332 -0.568375
400.3046875 1.307083 0.732578 -0.574505
401.0234375 1.250789 0.7161 -0.534689
402.9453125 1.144513 0.716544 -0.427969
403.640625 1.127268 0.612495 -0.514773
404.390625 1.0716539999999999 0.467983 -0.603671
406.19921875 0.994799 0.515536 -0.479263
406.87109375 0.954043 0.524809 -0.429234
407.6015625 0.934191 0.427647 -0.506544
408.34765625 1.063744 0.45059 -0.613154
409.109375 1.070526 0.521491 -0.549035
409.83203125 0.931632 0.447815 -0.483817
410.5703125 0.870595 0.458143 -0.412452
411.2890625 1.064637 0.519637 -0.545
412.03125 1.034991 0.47707 -0.557921
412.78515625 1.084708 0.505 -0.579708
413.51953125 1.049855 0.469881 -0.579974
415.4375 1.061 0.491 -0.57
416.12109375 0.9961309999999999 0.47916 -0.516971
416.85546875 0.994955 0.414955 -0.58
418.84375 0.978183 0.500922 -0.477261
419.5234375 0.937661 0.475442 -0.462219
420.26171875 0.903233 0.471208 -0.432025
421.01171875 1.083072 0.583072 -0.5
421.76171875 1.0886230000000001 0.588502 -0.500121
422.4921875 1.095898 0.582315 -0.513583
425.08203125 1.095796 0.645366 -0.45043
426.31640625 1.097921 0.605857 -0.492064
427.0078125 1.136406 0.641875 -0.494531
427.73046875 1.004972 0.574972 -0.43
429.59375 1.009266 0.689585 -0.319681
430.30078125 1.167184 0.809629 -0.357555
431.04296875 1.190564 0.785613 -0.404951
431.765625 1.041272 0.716491 -0.324781
432.49609375 1.0534810000000001 0.720597 -0.332884
434.34765625 1.191503 0.843624 -0.347879
435.0390625 1.155779 0.859779 -0.296
435.7890625 1.045521 0.710573 -0.334948
437.62890625 0.965139 0.723148 -0.241991
438.3046875 0.928136 0.740961 -0.187175
439.046875 1.034005 0.754308 -0.279697
439.7734375 1.074109 0.720317 -0.353792
440.5 1.081489 0.695 -0.386489
441.22265625 1.082603 0.762603 -0.32
441.9453125 0.953581 0.693311 -0.26027
443.42578125 0.9756180000000001 0.688104 -0.287514
444.125 1.180734 0.88 -0.300734
444.8828125 1.201857 0.874591 -0.327266
445.61328125 1.23682 0.835139 -0.401681
446.3359375 1.091999 0.712084 -0.379915
447.0703125 1.068719 0.673319 -0.3954
449.14453125 1.0134239999999999 0.7 -0.313424
449.8125 1.148444 0.770875 -0.377569
450.55078125 1.131381 0.751698 -0.379683
451.28515625 1.14184 0.727966 -0.413874
452.015625 1.114894 0.680305 -0.434589
453.7734375 1.0668060000000001 0.711806 -0.355
454.46875 1.172173 0.773068 -0.399105
455.1953125 1.04754 0.694878 -0.352662
455.9296875 1.056984 0.694672 -0.362312
456.69140625 1.167552 0.709063 -0.458489
457.42578125 1.1124960000000002 0.758824 -0.353672
458.16796875 1.133147 0.6968 -0.436347
459.95703125 1.155388 0.760395 -0.394993
460.6328125 1.100776 0.746206 -0.35457
461.3984375 1.057721 0.745 -0.312721
462.140625 1.078942 0.719116 -0.359826
464.85546875 1.161267 0.744877 -0.41639
466.19140625 1.184012 0.724389 -0.459623
466.890625 1.164597 0.719597 -0.445
467.61328125 1.008843 0.599737 -0.409106
469.453125 1.151104 0.711104 -0.44
470.15625 1.158499 0.794062 -0.364437
470.92578125 1.076594 0.655234 -0.42136
472.76171875 1.082838 0.7444 -0.338438
473.453125 1.140803 0.784145 -0.356658
474.203125 1.033266 0.645309 -0.387957
474.92578125 1.078506 0.658506 -0.42
476.640625 1.0798809999999999 0.572292 -0.507589
477.3125 1.099857 0.65 -0.449857
478.05078125 1.150001 0.616276 -0.533725
478.77734375 1.07171 0.532578 -0.539132
480.7890625 1.14946 0.61446 -0.535
481.46875 1.2562600000000002 0.687073 -0.569187
482.21484375 1.284368 0.708711 -0.575657
482.96484375 1.191168 0.640555 -0.550613
483.703125 1.256985 0.603765 -0.65322
484.421875 1.138343 0.492076 -0.646267
486.375 1.049942 0.415 -0.634942
487.02734375 1.037497 0.432679 -0.604818
487.7734375 1.106259 0.42677 -0.679489
488.50390625 1.1051769999999999 0.468186 -0.636991
489.23046875 1.288971 0.644981 -0.64399
489.9609375 1.3047680000000001 0.654768 -0.65
490.67578125 1.273761 0.546552 -0.727209
492.5078125 1.122202 0.488764 -0.633438
493.1796875 1.061509 0.467719 -0.59379
493.87890625 0.962583 0.331093 -0.63149
495.69921875 1.396982 0.733022 -0.66396
496.3828125 1.403087 0.710487 -0.6926
497.125 1.184994 0.48 -0.704994
497.828125 1.134138 0.414281 -0.719857
498.546875 1.396251 0.628219 -0.768032
499.25 1.404019 0.66 -0.744019
499.9765625 1.5158049999999998 0.665805 -0.85
500.7109375 1.444602 0.599602 -0.845
501.4375 1.4250379999999998 0.558696 -0.866342
503.39453125 1.1960410000000001 0.569922 -0.626119
504.08203125 1.214265 0.572557 -0.641708
504.796875 0.966966 0.414438 -0.552528
505.5234375 1.1410079999999998 0.5811 -0.559908
506.28125 1.3649909999999998 0.729725 -0.635266
507.0 1.326162 0.7 -0.626162
507.7265625 1.366892 0.709002 -0.65789
508.453125 1.320466 0.686097 -0.634369
510.1015625 1.282847 0.722847 -0.56
510.80078125 1.267501 0.74265 -0.524851
511.53515625 1.354265 0.779421 -0.574844
512.2578125 1.3811010000000001 0.778835 -0.602266
513.0 1.33497 0.675 -0.65997
514.8046875 1.447482 0.83758 -0.609902
515.484375 1.435791 0.805791 -0.63
516.234375 1.224001 0.626211 -0.59779
518.19921875 1.10947 0.585965 -0.523505
518.8828125 1.0843440000000002 0.524344 -0.56
520.65234375 1.222942 0.675551 -0.547391
521.35546875 1.337571 0.784875 -0.552696
522.08984375 1.2801779999999998 0.710178 -0.57
522.81640625 1.259244 0.674766 -0.584478
523.5625 1.391885 0.788045 -0.60384
524.2890625 1.403016 0.829266 -0.57375
525.015625 1.3865530000000001 0.831578 -0.554975
526.53515625 1.347863 0.811077 -0.536786
527.23046875 1.240656 0.74881 -0.491846
527.984375 1.123381 0.661578 -0.461803
529.8671875 0.953667 0.558667 -0.395
530.55078125 0.962724 0.571563 -0.391161
532.265625 1.205468 0.75 -0.455468
532.953125 1.219653 0.761466 -0.458187
533.69140625 1.107797 0.589366 -0.518431
534.39453125 1.1756419999999999 0.604893 -0.570749
535.125 1.275 0.665 -0.61
535.87109375 1.264986 0.655 -0.609986
536.58984375 1.279181 0.668009 -0.611172
538.0703125 1.0553 0.511959 -0.543341
538.73828125 1.060505 0.53117 -0.529335
539.4765625 1.004384 0.449735 -0.554649
541.3203125 1.2513969999999999 0.712356 -0.539041
542.01171875 1.166338 0.627803 -0.538535
542.75390625 1.091538 0.503193 -0.588345
544.70703125 1.230416 0.670464 -0.559952
545.40234375 1.1646990000000002 0.632418 -0.532281
546.140625 1.093067 0.499487 -0.59358
546.86328125 1.032863 0.499422 -0.533441
547.58984375 0.940078 0.400364 -0.539714
549.37109375 1.204081 0.624117 -0.579964
550.08984375 1.247902 0.702153 -0.545749
550.83203125 1.232386 0.671966 -0.56042
551.5625 1.176485 0.615714 -0.560771
552.296875 1.080837 0.49857 -0.582267
554.13671875 1.071606 0.541606 -0.53
554.83984375 1.2014420000000001 0.594615 -0.606827
555.57421875 1.190801 0.512376 -0.678425
556.296875 1.096625 0.432131 -0.664494
557.80078125 0.976457 0.346457 -0.63
558.4765625 0.9909030000000001 0.345903 -0.645
559.22265625 1.0628 0.448765 -0.614035
559.95703125 1.119826 0.504845 -0.614981
560.6796875 1.147782 0.481045 -0.666737
561.4140625 1.144689 0.439689 -0.705
563.55078125 1.125067 0.590067 -0.535
564.23828125 1.153251 0.63 -0.523251
564.98828125 1.2289029999999999 0.625674 -0.603229
565.734375 1.192797 0.563467 -0.62933
566.48046875 1.11998 0.49498 -0.625
567.21484375 1.009591 0.389859 -0.619732
569.1875 1.2049750000000001 0.625 -0.579975
569.8671875 1.194761 0.596216 -0.598545
570.62109375 1.039074 0.454122 -0.584952
572.59375 1.09638 0.518068 -0.578312
573.2890625 1.174954 0.594954 -0.58
574.03125 1.119946 0.522614 -0.597332
574.7578125 1.115897 0.461193 -0.654704
575.49609375 1.014142 0.429908 -0.584234
577.3671875 1.1093959999999998 0.571642 -0.537754
578.05859375 1.1305429999999999 0.634435 -0.496108
578.8125 1.150491 0.578 -0.572491
579.55078125 1.064033 0.514471 -0.549562
581.109375 1.004704 0.450798 -0.553906
581.77734375 1.113917 0.599866 -0.514051
582.53125 1.2113800000000001 0.678787 -0.532593
583.265625 1.133146 0.568483 -0.564663
585.1796875 1.047233 0.590315 -0.456918
585.87109375 1.132683 0.694216 -0.438467
586.625 1.0750000000000002 0.525 -0.55
587.3359375 0.969859 0.429921 -0.539938
588.078125 0.9744929999999999 0.374718 -0.599775
588.83203125 0.9505110000000001 0.3502 -0.600311
589.57421875 0.9678169999999999 0.303448 -0.664369
590.328125 1.0475789999999998 0.452742 -0.594837
591.08203125 1.1891479999999999 0.533694 -0.655454
591.8359375 1.062206 0.489647 -0.572559
592.58203125 1.0649769999999998 0.474989 -0.589988
594.6015625 0.977711 0.453348 -0.524363
595.30078125 1.033094 0.536161 -0.496933
596.0546875 1.142749 0.56326 -0.579489
596.80078125 1.0333459999999999 0.490873 -0.542473
597.578125 0.991637 0.463882 -0.527755
599.421875 1.1383240000000001 0.693324 -0.445
600.14453125 1.164841 0.689841 -0.475
600.921875 1.137403 0.643763 -0.49364
601.6640625 1.094433 0.579433 -0.515
603.234375 1.011255 0.498408 -0.512847
603.921875 1.05978 0.543747 -0.516033
604.6796875 1.133943 0.579474 -0.554469
605.43359375 1.1225079999999998 0.567603 -0.554905
606.1875 1.067609 0.537187 -0.530422
607.73046875 0.964947 0.459947 -0.505
608.41015625 1.004845 0.490066 -0.514779
609.17578125 1.018849 0.479083 -0.539766
609.92578125 1.05934 0.450892 -0.608448
610.6875 1.058619 0.443693 -0.614926
612.58203125 1.0326460000000002 0.457662 -0.574984
613.2890625 1.064784 0.524784 -0.54
614.0546875 1.069496 0.475027 -0.594469
614.8125 0.9935970000000001 0.396086 -0.597511
616.390625 1.025934 0.500934 -0.525
617.078125 1.0573839999999999 0.609139 -0.448245
617.83984375 1.082717 0.607717 -0.475
618.59765625 1.0679509999999999 0.54 -0.527951
619.34765625 1.042033 0.457033 -0.585
620.09765625 1.18052 0.6 -0.58052
620.87109375 1.167115 0.591672 -0.575443
622.953125 1.13003 0.682073 -0.447957
623.67578125 1.136634 0.699508 -0.437126
624.44140625 1.130961 0.61873 -0.512231
626.3515625 1.2289940000000001 0.723994 -0.505
627.0546875 1.327341 0.813882 -0.513459
627.80078125 1.262261 0.688536 -0.573725
629.71875 1.197036 0.624141 -0.572895
630.39453125 1.167284 0.62 -0.547284
631.12109375 1.015542 0.432861 -0.582681
633.01953125 1.004827 0.524859 -0.479968
633.69921875 1.0384060000000002 0.569169 -0.469237
634.4375 1.0651160000000002 0.550259 -0.514857
635.16015625 1.094731 0.56515 -0.529581
635.9140625 1.022077 0.459929 -0.562148
638.99609375 1.153804 0.660093 -0.493711
640.390625 1.092411 0.597435 -0.494976
641.11328125 1.039696 0.556318 -0.483378
641.8828125 0.938944 0.4448 -0.494144
642.63671875 0.965939 0.442126 -0.523813
643.375 1.0780720000000001 0.505 -0.573072
644.12890625 1.175749 0.570749 -0.605
644.890625 1.108954 0.486477 -0.622477
645.64453125 1.0649199999999999 0.45492 -0.61
648.73046875 1.1730909999999999 0.644896 -0.528195
650.08984375 1.0817700000000001 0.592103 -0.489667
650.796875 1.0748280000000001 0.56 -0.514828
651.55078125 1.026126 0.503104 -0.523022
653.45703125 1.07678 0.555343 -0.521437
654.140625 1.0413510000000001 0.505824 -0.535527
654.90625 0.972341 0.4 -0.572341
655.66015625 1.0420880000000001 0.459137 -0.582951
656.39453125 0.9705269999999999 0.399967 -0.57056
658.15625 1.136506 0.577662 -0.558844
658.87890625 1.112207 0.594962 -0.517245
659.6484375 1.124802 0.560517 -0.564285
660.39453125 1.0899429999999999 0.479943 -0.61
661.8828125 1.021805 0.482184 -0.539621
662.578125 1.082694 0.54717 -0.535524
663.34375 1.0813760000000001 0.511855 -0.569521
664.09765625 1.0593940000000002 0.509394 -0.55
664.84375 1.000241 0.428309 -0.571932
666.65234375 1.077649 0.548234 -0.529415
667.36328125 1.1307749999999999 0.603758 -0.527017
668.1328125 1.062566 0.518781 -0.543785
668.8671875 1.088847 0.533603 -0.555244
669.59765625 1.009345 0.444568 -0.564777
671.375 1.088684 0.505 -0.583684
672.09375 1.10521 0.527476 -0.577734
672.86328125 1.056501 0.447166 -0.609335
673.61328125 0.989272 0.39 -0.599272
674.36328125 0.990891 0.382089 -0.608802
675.10546875 1.109956 0.434956 -0.675
675.859375 1.158337 0.581491 -0.576846
676.625 1.020289 0.45 -0.570289
678.50390625 1.348476 0.953476 -0.395
679.19140625 1.343667 0.793763 -0.549904
679.953125 1.194882 0.488503 -0.706379
680.671875 0.862892 0.287131 -0.575761
681.4140625 0.836054 0.226054 -0.61
682.1484375 0.721826 0.116826 -0.605
682.87109375 0.7949189999999999 0.334433 -0.460486
683.609375 1.4632100000000001 0.348457 -1.114753
683.96875 0.037938000000000006 0.073008 0.03507
684.3359375 0.89121 0.189758 -0.701452
684.62890625 1.0340179999999999 0.332566 -0.701452
685.078125 0.733666 0.198817 -0.534849
685.625 0.7699999999999999 -0.045 -0.815
685.83203125 1.106804 0.611804 -0.495
686.69140625 1.1988400000000001 0.08 -1.11884
687.28125 0.777427 0.223672 -0.553755
687.9140625 0.165434 -0.090332 -0.255766
688.74609375 0.862663 0.284093 -0.57857
689.4609375 0.9546319999999999 0.19471 -0.759922
690.18359375 1.124635 0.404726 -0.719909
690.91796875 0.764286 0.27 -0.494286
691.6171875 0.891031 0.393089 -0.497942
692.328125 0.6693830000000001 0.27971 -0.389673
693.0546875 0.833529 0.34 -0.493529
693.81640625 1.204154 0.609154 -0.595
694.5703125 1.1706210000000001 0.542312 -0.628309
695.30859375 1.038541 0.393934 -0.644607
696.03125 1.237882 0.588359 -0.649523
696.7578125 1.1985649999999999 0.493186 -0.705379
697.50390625 0.963657 0.403921 -0.559736
698.23046875 0.884897 0.39494 -0.489957
698.97265625 0.848198 0.254553 -0.593645
699.7265625 1.245525 0.645525 -0.6
700.4765625 1.338574 0.618574 -0.72
701.22265625 1.426391 0.636933 -0.789458
701.96484375 1.276867 0.607753 -0.669114
702.734375 1.248629 0.641906 -0.606723
703.4921875 1.1610049999999998 0.567143 -0.593862
704.2421875 1.1554259999999998 0.596911 -0.558515
704.984375 1.136574 0.566172 -0.570402
706.625 1.074986 0.48 -0.594986
707.3125 0.901265 0.480769 -0.420496
708.890625 0.8333649999999999 0.323027 -0.510338
709.578125 0.819689 0.359689 -0.46
710.3203125 1.072994 0.487555 -0.585439
711.05859375 1.2449530000000002 0.579953 -0.665
711.81640625 1.182147 0.534206 -0.647941
712.546875 1.302902 0.769177 -0.533725
713.2890625 1.043968 0.469411 -0.574557
715.0546875 1.028425 0.489052 -0.539373
715.72265625 1.190013 0.608341 -0.581672
716.4765625 0.767586 0.314587 -0.452999
717.21875 0.62552 0.032928 -0.592592
717.50390625 0.604077 0.284077 -0.32
717.7578125 0.063244 -0.225911 -0.289155
718.19921875 0.57226 0.324002 -0.248258
718.69921875 1.0004520000000001 0.539796 -0.460656
718.984375 0.442349 0.143418 -0.298931
719.19921875 0.155915 -0.218985 -0.3749
719.4296875 1.167773 0.549874 -0.617899
719.84375 0.12343799999999996 -0.161562 -0.285
720.18359375 1.012572 0.459889 -0.552683
720.953125 1.217488 0.730653 -0.486835
721.703125 1.171112 0.561112 -0.61
722.453125 1.133944 0.605 -0.528944
723.1953125 1.110827 0.449224 -0.661603
723.95703125 1.120754 0.452662 -0.668092
725.75390625 0.9347989999999999 0.583031 -0.351768
726.43359375 0.903405 0.438863 -0.464542
727.16015625 0.845209 0.374892 -0.470317
728.9453125 0.919454 0.405303 -0.514151
729.65625 1.1505299999999998 0.659005 -0.491525
730.3984375 1.314487 0.611587 -0.7029
731.125 1.164994 0.525 -0.639994
732.94921875 0.816987 0.332336 -0.484651
733.61328125 0.7657780000000001 0.27647 -0.489308
734.35546875 0.826552 0.24491 -0.581642
735.1015625 1.190644 0.52075 -0.669894
735.83203125 1.143278 0.506795 -0.636483
736.5703125 1.3415599999999999 0.703591 -0.637969
737.3046875 1.267335 0.607891 -0.659444
739.11328125 1.2775759999999998 0.664198 -0.613378
739.80078125 1.148047 0.589122 -0.558925
740.54296875 1.049822 0.4626 -0.587222
742.26953125 1.0648819999999999 0.594882 -0.47
742.96484375 1.077111 0.581095 -0.496016
744.7421875 1.245 0.56 -0.685
745.43359375 1.428639 0.733968 -0.694671
746.1796875 1.127739 0.570005 -0.557734
748.01171875 1.167354 0.589824 -0.57753
748.68359375 1.148314 0.514015 -0.634299
749.41015625 1.0407 0.446907 -0.593793
751.2578125 1.014376 0.474806 -0.53957
751.9453125 1.231363 0.669681 -0.561682
752.703125 1.273473 0.639267 -0.634206
753.4140625 1.201206 0.579956 -0.62125
754.1328125 1.18338 0.550312 -0.633068
756.109375 1.097642 0.522961 -0.574681
756.78125 1.032211 0.47929 -0.552921
757.51171875 0.9678150000000001 0.34818 -0.619635
758.23046875 0.984897 0.319897 -0.665
758.94921875 1.1375920000000002 0.497939 -0.639653
759.671875 1.218704 0.504205 -0.714499
760.4140625 1.2026530000000002 0.594875 -0.607778
761.16796875 1.230197 0.579432 -0.650765
761.890625 1.263822 0.545898 -0.717924
763.79296875 1.157371 0.550459 -0.606912
764.4921875 1.189541 0.580293 -0.609248
765.2421875 1.106743 0.498591 -0.608152
767.0703125 1.2768030000000001 0.667147 -0.609656
767.76953125 1.311538 0.654969 -0.656569
768.50390625 1.21249 0.556173 -0.656317
769.24609375 1.210955 0.546277 -0.664678
771.390625 1.1505049999999999 0.540529 -0.609976
772.07421875 1.2952279999999998 0.67743 -0.617798
772.8203125 1.20245 0.583529 -0.618921
774.62890625 1.174285 0.57562 -0.598665
775.29296875 1.119254 0.541476 -0.577778
776.03515625 1.114543 0.525669 -0.588874
777.8671875 1.247213 0.605367 -0.641846
778.5546875 1.2009539999999999 0.56724 -0.633714
779.30078125 1.058783 0.445 -0.613783
781.18359375 0.988027 0.423261 -0.564766
781.875 0.964968 0.415 -0.549968
782.6328125 1.148771 0.476066 -0.672705
783.375 1.279979 0.55 -0.729979
785.26953125 1.178407 0.609877 -0.56853
785.94921875 1.329603 0.769573 -0.56003
786.703125 1.3328790000000001 0.692879 -0.64
788.53125 1.2627220000000001 0.745381 -0.517341
789.19921875 1.27722 0.758694 -0.518526
789.921875 1.108698 0.564473 -0.544225
791.8125 1.076069 0.541094 -0.534975
792.49609375 1.2022439999999999 0.612244 -0.59
793.23046875 1.206181 0.564335 -0.641846
795.0859375 1.089679 0.504757 -0.584922
795.7734375 1.029598 0.454598 -0.575
796.5234375 0.931702 0.386702 -0.545
797.234375 0.9026959999999999 0.318066 -0.58463
797.94921875 0.831814 0.145 -0.686814
798.66796875 1.074709 0.287721 -0.786988
799.4140625 1.3297569999999999 0.699757 -0.63
800.1640625 1.443529 0.769529 -0.674
800.90625 1.454195 0.699725 -0.75447
801.62890625 1.374473 0.721264 -0.653209
802.3671875 1.333428 0.678428 -0.655
803.12109375 1.357376 0.687376 -0.67
803.859375 1.329714 0.620903 -0.708811
804.60546875 1.260296 0.580296 -0.68
805.37109375 1.4058190000000002 0.656375 -0.749444
807.26953125 1.478245 0.74951 -0.728735
807.97265625 1.432899 0.763794 -0.669105
808.7421875 1.431262 0.759714 -0.671548
809.48046875 1.2582520000000001 0.634614 -0.623638
810.22265625 1.345 0.635 -0.71
812.0859375 1.165191 0.51941 -0.645781
812.78125 1.206367 0.544665 -0.661702
813.5390625 0.9792810000000001 0.339532 -0.639749
815.56640625 0.93266 0.314617 -0.618043
816.25 0.9249769999999999 0.31 -0.614977
817.01953125 0.809869 0.204932 -0.604937
819.0 1.037548 0.29 -0.747548
819.69921875 1.121745 0.412917 -0.708828
820.453125 1.195656 0.429281 -0.766375
822.3671875 1.128202 0.481441 -0.646761
823.0546875 1.1572230000000001 0.44256 -0.714663
823.796875 1.179812 0.274812 -0.905
825.6796875 1.259642 0.54613 -0.713512
826.39453125 1.333735 0.74 -0.593735
827.13671875 1.2604199999999999 0.692738 -0.567682
827.859375 1.272215 0.747974 -0.524241
830.11328125 1.310749 0.725749 -0.585
830.80078125 1.239319 0.627042 -0.612277
831.5625 1.058655 0.384295 -0.67436
833.453125 1.3330199999999999 0.581703 -0.751317
834.1328125 1.326076 0.593231 -0.732845
834.890625 1.260375 0.560438 -0.699937
836.765625 1.350645 0.620671 -0.729974
837.44921875 1.421639 0.692571 -0.729068
838.1796875 1.118368 0.408899 -0.709469
838.89453125 1.030518 0.319967 -0.710551
840.703125 1.17 0.495 -0.675
841.39453125 1.2691439999999998 0.59925 -0.669894
842.1328125 1.127656 0.413103 -0.714553
844.0 1.159956 0.475 -0.684956
844.66796875 1.124588 0.533241 -0.591347
845.40625 1.063836 0.429293 -0.634543
847.3671875 0.8865959999999999 0.256596 -0.63
848.046875 0.8866769999999999 0.274689 -0.611988
848.7890625 1.159351 0.439479 -0.719872
849.5234375 1.215188 0.509359 -0.705829
850.25 1.2057470000000001 0.525 -0.680747
852.07421875 1.039466 0.430254 -0.609212
852.765625 1.008995 0.433175 -0.57582
853.5234375 1.169194 0.510286 -0.658908
854.25390625 1.255821 0.564482 -0.691339
854.984375 1.179882 0.536734 -0.643148
855.72265625 1.120008 0.473696 -0.646312
856.44921875 1.179425 0.519762 -0.659663
857.19921875 1.148812 0.435 -0.713812
858.58984375 1.174696 0.458683 -0.716013
859.265625 1.1192250000000001 0.486896 -0.632329
860.0 0.995 0.345 -0.65
861.8828125 1.2890920000000001 0.569377 -0.719715
862.58203125 1.164748 0.564748 -0.6
864.42578125 0.963049 0.41232 -0.550729
865.11328125 0.951517 0.391929 -0.559588
865.87109375 0.828646 0.324914 -0.503732
867.80859375 1.13 0.49 -0.64
868.48828125 1.046317 0.449455 -0.596862
869.23046875 0.924973 0.334973 -0.59
869.9765625 0.824502 0.311503 -0.512999
870.7109375 1.164581 0.44969 -0.714891
871.4453125 1.155046 0.510046 -0.645
872.15625 1.166214 0.581214 -0.585
874.1875 1.0305499999999999 0.597182 -0.433368
876.90625 0.9338500000000001 0.480676 -0.453174
878.015625 1.197368 0.699577 -0.497791
878.73046875 1.21488 0.68988 -0.525
879.30859375 1.125533 0.599951 -0.525582
880.1484375 1.07083 0.54903 -0.5218
880.8515625 1.092944 0.580884 -0.51206
881.5703125 1.042129 0.494422 -0.547707
883.50390625 0.871649 0.400428 -0.471221
884.1875 0.834338 0.403187 -0.431151
884.9140625 0.736028 0.346028 -0.39
885.6328125 0.797354 0.367992 -0.429362
888.12109375 0.9803140000000001 0.427951 -0.552363
889.4765625 1.123252 0.429883 -0.693369
890.16796875 1.30935 0.638526 -0.670824
890.91015625 1.2881610000000001 0.596322 -0.691839
891.625 1.373908 0.705 -0.668908
892.3671875 1.260726 0.622315 -0.638411
893.1171875 1.241417 0.612854 -0.628563
893.84765625 1.349988 0.724988 -0.625
894.5859375 1.3449680000000002 0.679979 -0.664989
895.30859375 1.261326 0.664256 -0.59707
896.05859375 1.343537 0.739782 -0.603755
899.21484375 1.171467 0.642551 -0.528916
900.44921875 1.12916 0.544669 -0.584491
901.1640625 1.2961610000000001 0.739815 -0.556346
901.92578125 1.312192 0.722192 -0.59
902.65234375 1.1411319999999998 0.586622 -0.55451
903.3828125 1.1397300000000001 0.541605 -0.598125
904.1171875 1.184599 0.549387 -0.635212
904.8671875 1.0640990000000001 0.450153 -0.613946
906.61328125 1.2763550000000001 0.649136 -0.627219
907.28125 1.294819 0.703071 -0.591748
908.02734375 1.233559 0.57971 -0.653849
909.9609375 1.3036379999999999 0.716626 -0.587012
910.671875 1.204206 0.654707 -0.549499
911.41796875 1.266915 0.632463 -0.634452
912.15625 1.3213050000000002 0.681305 -0.64
914.84375 1.2716669999999999 0.768796 -0.502871
916.2890625 1.3567049999999998 0.794562 -0.562143
916.98046875 1.410832 0.840832 -0.57
917.71875 1.322201 0.667801 -0.6544
918.453125 1.244862 0.594862 -0.65
919.1875 1.222036 0.580714 -0.641322
919.91796875 1.14627 0.526497 -0.619773
920.65234375 1.155972 0.586384 -0.569588
922.53515625 1.307674 0.757729 -0.549945
923.23046875 1.3509769999999999 0.764289 -0.586688
923.97265625 1.195522 0.628676 -0.566846
925.89453125 1.304896 0.754896 -0.55
926.5703125 1.299372 0.743907 -0.555465
927.3203125 1.1832799999999999 0.620532 -0.562748
928.06640625 1.095148 0.579593 -0.515555
928.7890625 1.01973 0.419787 -0.599943
929.52734375 1.059338 0.414338 -0.645
931.3671875 1.099372 0.489138 -0.610234
932.078125 1.143326 0.573471 -0.569855
932.83984375 1.2459310000000001 0.709809 -0.536122
933.56640625 1.414935 0.788074 -0.626861
934.296875 1.335195 0.768928 -0.566267
935.05078125 1.28315 0.67315 -0.61
935.79296875 1.292007 0.653371 -0.638636
937.41796875 1.215091 0.5952 -0.619891
938.09765625 1.184763 0.591043 -0.59372
938.83984375 1.035795 0.427588 -0.608207
939.58203125 1.108168 0.50818 -0.599988
942.2578125 1.056081 0.522019 -0.534062
943.41796875 1.209527 0.664701 -0.544826
944.12109375 1.264627 0.70818 -0.556447
944.8671875 1.252032 0.688905 -0.563127
946.80078125 1.161869 0.614592 -0.547277
947.4765625 1.052643 0.527643 -0.525
948.21875 1.161934 0.558674 -0.60326
948.98046875 1.254947 0.769947 -0.485
949.734375 1.367111 0.743594 -0.623517
950.4765625 1.335092 0.678996 -0.656096
951.20703125 1.246166 0.641179 -0.604987
951.9453125 1.404595 0.812689 -0.591906
952.69921875 1.500261 0.750699 -0.749562
956.90234375 1.426572 0.732742 -0.69383
958.171875 1.345795 0.659355 -0.68644
958.859375 1.23887 0.61887 -0.62
959.60546875 1.361104 0.771104 -0.59
960.33203125 1.37447 0.84884 -0.52563
961.06640625 1.398062 0.838062 -0.56
961.8046875 1.326181 0.662387 -0.663794
962.55859375 1.2814 0.607958 -0.673442
963.3125 1.228947 0.508947 -0.72
966.41015625 1.358629 0.750678 -0.607951
967.66015625 1.260506 0.720658 -0.539848
968.359375 1.372033 0.805 -0.567033
969.0859375 1.27032 0.729695 -0.540625
971.04296875 1.2002920000000001 0.711716 -0.488576
971.73828125 1.211029 0.713004 -0.498025
972.4921875 1.0662669999999999 0.508591 -0.557676
973.23046875 1.1899950000000001 0.594995 -0.595
973.97265625 1.3148680000000001 0.784868 -0.53
974.73046875 1.507981 0.864982 -0.642999
975.4921875 1.426739 0.814727 -0.612012
976.2421875 1.466035 0.816035 -0.65
976.98828125 1.399454 0.784454 -0.615
979.16796875 1.445977 0.936145 -0.509832
983.26953125 1.243942 0.814876 -0.429066
984.51171875 1.043529 0.633529 -0.41
985.2109375 1.014918 0.654924 -0.359994
985.94140625 1.064812 0.694382 -0.37043
986.6640625 1.18952 0.83452 -0.355
987.41015625 1.404275 0.929526 -0.474749
988.14453125 1.399837 0.909837 -0.49
988.8828125 1.408104 0.846104 -0.562
989.62890625 1.324044 0.740062 -0.583982
990.375 1.3627989999999999 0.745 -0.617799
991.109375 1.326915 0.648826 -0.678089
991.8359375 1.2823419999999999 0.669627 -0.612715
995.12109375 1.365764 0.865764 -0.5
996.36328125 1.248492 0.758794 -0.489698
997.05078125 1.267158 0.778075 -0.489083
997.8046875 1.213022 0.645037 -0.567985
999.625 1.144986 0.665 -0.479986
1000.296875 1.004699 0.604807 -0.399892
1001.03515625 0.872403 0.412776 -0.459627
1001.77734375 0.9013230000000001 0.517325 -0.383998
1002.51171875 0.903353 0.359166 -0.544187
1003.23828125 1.044446 0.541361 -0.503085
1003.9609375 1.069331 0.539678 -0.529653
1005.71875 0.970945 0.493142 -0.477803
1006.41796875 0.941905 0.514961 -0.426944
1007.1640625 0.982059 0.456934 -0.525125
1007.9140625 1.164228 0.669361 -0.494867
1008.66015625 1.053136 0.583288 -0.469848
1010.7734375 0.955669 0.532288 -0.423381
1012.23828125 0.9340839999999999 0.344084 -0.59
1012.9140625 1.0337779999999999 0.454233 -0.579545
1013.66796875 1.204167 0.555 -0.649167
1014.3984375 1.2288839999999999 0.56918 -0.659704
1015.1328125 1.194722 0.592561 -0.602161
1015.8828125 1.2880479999999999 0.604811 -0.683237
1016.62109375 1.231334 0.601663 -0.629671
1019.515625 1.2273619999999998 0.717417 -0.509945
1020.65625 1.343811 0.844339 -0.499472
1021.36328125 1.41052 0.883838 -0.526682
1022.109375 1.250529 0.760529 -0.49
1022.85546875 1.204231 0.709888 -0.494343
1023.58984375 1.225562 0.727288 -0.498274
1024.3359375 1.247874 0.774782 -0.473092
1025.09765625 1.300416 0.749229 -0.551187
1025.83203125 1.212126 0.666911 -0.545215
1028.23828125 1.4095019999999998 0.875354 -0.534148
1030.9375 1.383808 0.889295 -0.494513
1032.21484375 1.282214 0.823806 -0.458408
1032.921875 1.407699 0.953558 -0.454141
1033.68359375 1.2565330000000001 0.764356 -0.492177
1034.40625 1.179596 0.727094 -0.452502
1035.14453125 1.198744 0.724989 -0.473755
1035.87109375 1.080409 0.605719 -0.47469
1036.6171875 1.050275 0.57173 -0.478545
1038.10546875 1.1327180000000001 0.629928 -0.50279
1038.78515625 1.2595459999999998 0.71481 -0.544736
1039.5234375 1.123811 0.603895 -0.519916
1041.3359375 1.291805 0.816626 -0.475179
1042.03515625 1.232355 0.80159 -0.430765
1042.79296875 1.325717 0.785889 -0.539828
1043.51953125 1.314656 0.769811 -0.544845
1045.4140625 1.278316 0.729878 -0.548438
1046.1171875 1.356671 0.767429 -0.589242
1046.875 1.266248 0.645 -0.621248
1047.60546875 1.324856 0.694856 -0.63
1048.34375 1.3132769999999998 0.702131 -0.611146
1049.08984375 1.2590210000000002 0.63031 -0.628711
1049.8203125 1.215544 0.557544 -0.658
1050.57421875 1.309854 0.7012 -0.608654
1051.3359375 1.341844 0.693482 -0.648362
1057.2109375 1.154864 0.804864 -0.35
1058.40234375 1.072075 0.793993 -0.278082
1059.12109375 1.161399 0.836439 -0.32496
1059.890625 1.214846 0.764388 -0.450458
1060.6171875 1.1583700000000001 0.63837 -0.52
1061.359375 1.1599789999999999 0.517618 -0.642361
1062.08203125 1.120045 0.475045 -0.645
1062.8359375 1.234778 0.519828 -0.71495
1063.6015625 1.265352 0.570352 -0.695
1064.33984375 1.163034 0.502249 -0.660785
1065.07421875 1.2268940000000002 0.548787 -0.678107
1065.8203125 1.172544 0.542544 -0.63
1066.5703125 1.123188 0.534714 -0.588474
1069.33203125 1.202501 0.712053 -0.490448
1070.83203125 1.329159 0.687515 -0.641644
1071.5390625 1.4092630000000002 0.71938 -0.689883
1072.296875 1.190027 0.502513 -0.687514
1073.0390625 1.344425 0.644489 -0.699936
1073.78125 1.2771919999999999 0.587681 -0.689511
1074.50390625 1.316082 0.637174 -0.678908
1075.2265625 1.3184619999999998 0.638369 -0.680093
1075.96875 1.323405 0.634961 -0.688444
1076.72265625 1.1817199999999999 0.533849 -0.647871
1078.71875 1.234783 0.63 -0.604783
1080.140625 1.038854 0.629053 -0.409801
1080.83984375 0.892759 0.448036 -0.444723
1081.59375 1.0468229999999998 0.493409 -0.553414
1082.3359375 1.198427 0.534453 -0.663974
1084.2890625 0.9793339999999999 0.614528 -0.364806
1084.96875 0.91262 0.477879 -0.434741
1085.72265625 0.8211379999999999 0.267603 -0.553535
1087.62890625 1.230902 0.605848 -0.625054
1088.3203125 1.188757 0.604851 -0.583906
1089.07421875 1.168341 0.53095 -0.637391
1089.828125 1.1231870000000002 0.495 -0.628187
1090.56640625 1.0549970000000002 0.394336 -0.660661
1091.3046875 1.1861769999999998 0.542387 -0.64379
1092.046875 1.197033 0.599812 -0.597221
1094.6015625 1.1883650000000001 0.658365 -0.53
1097.25390625 1.058936 0.58463 -0.474306
1098.41796875 1.153664 0.679983 -0.473681
1099.12109375 1.17417 0.666306 -0.507864
1099.859375 1.061233 0.528453 -0.53278
1100.57421875 1.058078 0.494084 -0.563994
1101.3046875 1.007275 0.420972 -0.586303
1105.71484375 0.9650749999999999 0.395954 -0.569121
1106.9296875 1.109289 0.670107 -0.439182
1107.66796875 1.139901 0.769776 -0.370125
1108.40625 1.108552 0.704263 -0.404289
1109.140625 1.145799 0.656035 -0.489764
1109.87890625 1.206694 0.626177 -0.580517
1110.61328125 1.17389 0.511223 -0.662667
1111.33203125 1.147891 0.432569 -0.715322
1112.08984375 1.11595 0.427985 -0.687965
1112.8359375 1.2137229999999999 0.409506 -0.804217
1113.58203125 1.26431 0.536898 -0.727412
1115.77734375 1.2901340000000001 0.657878 -0.632256
1118.5625 1.100574 0.525625 -0.574949
1119.7890625 1.251106 0.631106 -0.62
1120.48046875 1.284967 0.689967 -0.595
1121.22265625 1.156508 0.548557 -0.607951
1121.95703125 1.122361 0.521852 -0.600509
1122.6796875 1.192348 0.582879 -0.609469
1123.3984375 1.326804 0.66 -0.666804
1124.1328125 1.236717 0.604998 -0.631719
1124.8828125 1.1847029999999998 0.576634 -0.608069
1125.62109375 1.170938 0.518184 -0.652754
1127.5 0.987957 0.425 -0.562957
1128.19140625 0.954668 0.40469 -0.549978
1128.9140625 0.854936 0.28 -0.574936
1129.65234375 0.997775 0.408234 -0.589541
1130.4140625 1.134146 0.489338 -0.644808
1131.140625 1.031891 0.421856 -0.610035
1134.62109375 0.9855349999999999 0.513172 -0.472363
1135.984375 1.198659 0.598513 -0.600146
1136.66015625 1.331861 0.78772 -0.544141
1137.39453125 1.330556 0.669976 -0.66058
1138.125 1.245 0.61 -0.635
1138.8515625 1.235328 0.601417 -0.633911
1139.57421875 1.183063 0.609626 -0.573437
1140.3046875 1.0691359999999999 0.520015 -0.549121
1141.02734375 1.155506 0.591209 -0.564297
1141.75 1.129847 0.52 -0.609847
1142.50390625 1.429241 0.850727 -0.578514
1143.234375 1.370329 0.79125 -0.579079
1143.9765625 1.279218 0.764218 -0.515
1146.6953125 0.971484 0.51 -0.461484
1148.7109375 1.164757 0.664757 -0.5
1149.40625 1.165109 0.61927 -0.545839
1150.13671875 1.079992 0.498072 -0.58192
1150.8828125 1.044179 0.454669 -0.58951
1151.62890625 0.9161349999999999 0.338996 -0.577139
1152.37109375 1.037249 0.445874 -0.591375
1153.1015625 1.062847 0.462847 -0.6
1153.83984375 1.082188 0.468826 -0.613362
1155.91796875 1.237254 0.67098 -0.566274
1159.9375 1.2265709999999999 0.650909 -0.575662
1161.13671875 1.170982 0.583505 -0.587477
1161.8203125 1.1849340000000002 0.628229 -0.556705
1162.56640625 1.210979 0.613527 -0.597452
1163.30859375 1.255199 0.6242 -0.630999
1164.0390625 1.174664 0.589664 -0.585
1164.7890625 1.128825 0.514128 -0.614697
1165.546875 1.189643 0.488483 -0.70116
1166.29296875 1.2823 0.495133 -0.787167
1167.046875 1.31082 0.573668 -0.737152
1167.79296875 1.2171859999999999 0.591369 -0.625817
1168.55859375 1.22382 0.568912 -0.654908
1169.32421875 1.2504 0.533257 -0.717143
1172.09375 1.261111 0.528107 -0.733004
1173.31640625 1.24188 0.629403 -0.612477
1174.03515625 1.257311 0.667439 -0.589872
1174.79296875 1.28044 0.616145 -0.664295
1175.5234375 1.237353 0.601277 -0.636076
1176.2578125 1.1383320000000001 0.449361 -0.688971
1177.01171875 1.1968999999999999 0.53277 -0.66413
1177.7890625 1.286711 0.644666 -0.642045
1178.546875 1.303936 0.679704 -0.624232
1179.29296875 1.2484199999999999 0.606476 -0.641944
1182.26953125 1.376376 0.834989 -0.541387
1183.4765625 1.228644 0.705854 -0.52279
1184.1796875 1.285214 0.735214 -0.55
1184.91015625 1.109834 0.550126 -0.559708
1185.65625 1.165745 0.561188 -0.604557
1186.421875 1.053503 0.424454 -0.629049
1187.16015625 1.0515599999999998 0.357093 -0.694467
1187.90234375 1.003972 0.389525 -0.614447
1191.125 1.253684 0.785 -0.468684
1191.4375 0.812258 0.428333 -0.383925
1192.38671875 1.228791 0.884468 -0.344323
1193.0859375 1.18922 0.803439 -0.385781
1193.8125 1.210897 0.765875 -0.445022
1194.56640625 1.267415 0.804114 -0.463301
1195.33203125 1.306128 0.780659 -0.525469
1196.078125 1.266099 0.832155 -0.433944
1196.8125 1.198952 0.774028 -0.424924
1197.56640625 1.269468 0.759626 -0.509842
1198.30859375 1.1006049999999998 0.652148 -0.448457
1199.0546875 1.12782 0.649467 -0.478353
1202.19140625 1.331988 0.959326 -0.372662
1203.796875 1.114515 0.799973 -0.314542
1204.49609375 1.19561 0.825102 -0.370508
1205.265625 1.190328 0.790639 -0.399689
1205.984375 1.251381 0.877977 -0.373404
1206.73046875 1.272 0.874891 -0.397109
1207.484375 1.255036 0.845984 -0.409052
1208.2265625 1.278188 0.82782 -0.450368
1208.98046875 1.246704 0.839981 -0.406723
1209.75390625 1.183602 0.752218 -0.431384
1210.49609375 1.1509070000000001 0.715947 -0.43496
1213.49609375 1.291284 0.891284 -0.4
1215.00390625 1.292624 0.886816 -0.405808
1215.69140625 1.254512 0.858003 -0.396509
1216.44921875 1.244037 0.771921 -0.472116
1217.203125 1.305666 0.884522 -0.421144
1217.94921875 1.255407 0.844576 -0.410831
1218.69140625 1.399126 0.92442 -0.474706
1219.44140625 1.395376 0.945861 -0.449515
1220.171875 1.361247 0.854487 -0.50676
1220.91796875 1.208591 0.712807 -0.495784
1221.703125 1.148625 0.663625 -0.485
1222.4453125 1.006998 0.530011 -0.476987
1224.21484375 1.232213 0.744596 -0.487617
1224.9296875 1.390623 0.956104 -0.434519
1225.2109375 0.494641 0.324912 -0.169729
1225.66796875 1.3874719999999998 0.869972 -0.5175
1227.5390625 1.457996 0.934454 -0.523542
1228.234375 1.575483 0.989281 -0.586202
1228.96484375 1.40592 0.812509 -0.593411
1229.70703125 1.316957 0.782997 -0.53396
1230.47265625 1.397509 0.852942 -0.544567
1231.2109375 1.289884 0.739951 -0.549933
1231.9609375 1.3177349999999999 0.792941 -0.524794
1232.72265625 1.501173 0.911381 -0.589792
1234.81640625 1.367291 0.814839 -0.552452
1238.9609375 1.313471 0.919697 -0.393774
1239.80859375 1.369107 0.936616 -0.432491
1240.31640625 1.316405 0.954647 -0.361758
1240.7734375 1.65039 1.178341 -0.472049
1241.33984375 1.1765880000000002 0.845466 -0.331122
1241.97265625 1.2927819999999999 0.812986 -0.479796
1242.70703125 1.385847 0.850576 -0.535271
1243.328125 1.249743 0.723085 -0.526658
1243.9765625 1.334238 0.869792 -0.464446
1244.66015625 1.166963 0.719364 -0.447599
1246.80078125 1.289541 0.816628 -0.472913
1247.9375 1.275815 0.849158 -0.426657
1248.62890625 1.275412 0.80413 -0.471282
1249.3828125 1.2279339999999999 0.69435 -0.533584
1250.109375 1.3213300000000001 0.776734 -0.544596
1250.83984375 1.333029 0.754615 -0.578414
1256.45703125 1.3953119999999999 0.975312 -0.42
1257.76953125 1.424879 1.039879 -0.385
1258.4609375 1.430461 1.199836 -0.230625
1259.1875 1.35749 1.186339 -0.171151
1259.92578125 1.273841 1.071535 -0.202306
1260.640625 1.324157 0.969406 -0.354751
1261.38671875 1.351408 0.938558 -0.41285
1262.140625 1.365398 0.860458 -0.50494
1262.86328125 1.305555 0.738718 -0.566837
1263.58984375 1.294966 0.685323 -0.609643
1264.31640625 1.234627 0.654893 -0.579734
1265.05859375 1.170358 0.644239 -0.526119
1267.6484375 1.004526 0.564631 -0.439895
1268.86328125 0.9619570000000001 0.444095 -0.517862
1269.5390625 1.074202 0.475577 -0.598625
1270.28515625 1.237422 0.528092 -0.70933
1271.01171875 1.308505 0.563505 -0.745
1271.73046875 1.307964 0.549931 -0.758033
1272.4609375 1.403438 0.70431 -0.699128
1273.1953125 1.546638 0.892824 -0.653814
1273.94921875 1.444579 0.834579 -0.61
1274.703125 1.5100289999999998 0.883203 -0.626826
1275.44921875 1.366151 0.827454 -0.538697
1276.18359375 1.341342 0.813615 -0.527727
1279.29296875 1.38098 0.731395 -0.649585
1281.58203125 1.5599819999999998 1.00002 -0.559962
1284.1796875 1.456824 0.972212 -0.484612
1286.6875 1.231154 0.816154 -0.415
1288.16015625 1.322957 0.809457 -0.5135
1288.83203125 1.260735 0.742688 -0.518047
1289.5625 1.267497 0.713041 -0.554456
1290.25390625 1.273165 0.679754 -0.593411
1290.96875 1.171972 0.623437 -0.548535
1291.6953125 1.177013 0.629052 -0.547961
1292.421875 1.316885 0.769912 -0.546973
1293.140625 1.283025 0.748125 -0.5349
1293.86328125 1.2453239999999999 0.760909 -0.484415
1298.2421875 1.228891 0.883891 -0.345
1299.40234375 1.27042 0.991384 -0.279036
1300.109375 1.327785 1.062969 -0.264816
1300.85546875 1.340838 0.980838 -0.36
1301.578125 1.3013919999999999 0.961399 -0.339993
1302.2734375 1.224723 0.892926 -0.331797
1302.98828125 1.1909589999999999 0.83843 -0.352529
1303.70703125 1.076598 0.71161 -0.364988
1304.4140625 1.034468 0.624532 -0.409936
1305.140625 0.962624 0.543359 -0.419265
1305.8828125 1.183987 0.744597 -0.43939
1306.6015625 1.249473 0.784473 -0.465
1308.54296875 1.237435 0.863041 -0.374394
1310.06640625 1.3344939999999998 1.019494 -0.315
1310.7578125 1.453529 1.094139 -0.35939
1311.484375 1.279706 0.928184 -0.351522
1312.21484375 1.227415 0.903072 -0.324343
1312.953125 1.26226 0.882596 -0.379664
1313.69140625 1.266491 0.8688 -0.397691
1314.42578125 1.1501190000000001 0.777564 -0.372555
1318.57421875 1.385036 0.966076 -0.41896
1319.69140625 1.407222 0.987488 -0.419734
1320.375 1.335 1.075 -0.26
1321.09765625 1.232831 0.943732 -0.289099
1321.8125 1.260625 0.925625 -0.335
1322.546875 1.2075740000000001 0.843466 -0.364108
1323.26953125 1.135535 0.764969 -0.370566
1323.9921875 1.130392 0.70735 -0.423042
1324.71875 0.9597439999999999 0.496016 -0.463728
1325.43359375 1.2796349999999999 0.733537 -0.546098
1326.16796875 1.350756 0.824972 -0.525784
1326.921875 1.473265 0.958828 -0.514437
1327.640625 1.460272 0.99176 -0.468512
1328.38671875 1.344335 0.845317 -0.499018
1329.11328125 1.360974 0.887671 -0.473303
1333.55859375 1.442013 0.959599 -0.482414
1334.671875 1.318336 0.993336 -0.325
1335.375 1.185 0.79 -0.395
1336.125 1.02 0.56 -0.46
1336.86328125 1.325997 0.776725 -0.549272
1337.578125 1.3658109999999999 0.771505 -0.594306
1338.29296875 1.287299 0.708645 -0.578654
1339.01953125 1.229791 0.644848 -0.584943
1339.734375 1.1726429999999999 0.607643 -0.565
1340.4609375 1.205152 0.604527 -0.600625
1342.44140625 1.397774 0.839145 -0.558629
1343.91015625 1.170939 0.803205 -0.367734
1344.60546875 1.11993 0.73493 -0.385
1346.3984375 1.072808 0.552906 -0.519902
1347.10546875 1.1660789999999999 0.691079 -0.475
1347.859375 1.0750030000000002 0.585003 -0.49
1349.74609375 1.078905 0.503963 -0.574942
1350.421875 0.969079 0.409697 -0.559382
1351.16796875 1.086423 0.392529 -0.693894
1351.88671875 1.180288 0.451265 -0.729023
1352.6171875 1.128101 0.405425 -0.722676
1353.390625 1.330764 0.635884 -0.69488
1354.1171875 1.280084 0.647281 -0.632803
1354.859375 1.268013 0.61119 -0.656823
1356.9765625 1.195525 0.725525 -0.47
1361.13671875 1.265779 0.836481 -0.429298
1362.375 1.185271 0.76 -0.425271
1363.0546875 1.062189 0.739048 -0.323141
1363.76953125 0.993298 0.654974 -0.338324
1364.48046875 0.984988 0.634988 -0.35
1365.21875 1.181657 0.684607 -0.49705
1365.9453125 1.2702209999999998 0.72512 -0.545101
1366.68359375 1.3680249999999998 0.804657 -0.563368
1367.4375 1.4160629999999998 0.796053 -0.62001
1368.16796875 1.3261370000000001 0.716329 -0.609808
1368.89453125 1.13158 0.556043 -0.575537
1371.828125 1.367178 0.822184 -0.544994
1374.3515625 1.338983 0.858983 -0.48
1376.84375 1.185 0.725 -0.46
1378.2421875 1.312498 0.822498 -0.49
1378.94140625 1.144499 0.764521 -0.379978
1379.6875 1.10698 0.655714 -0.451266
1380.41015625 1.099678 0.604361 -0.495317
1381.1328125 1.2255660000000002 0.712963 -0.512603
1381.859375 1.2049949999999998 0.680418 -0.524577
1382.58203125 1.167557 0.667557 -0.5
1383.29296875 1.1110440000000001 0.581164 -0.52988
1383.609375 0.563662 0.401309 -0.162353
1384.0390625 0.976048 0.559646 -0.416402
1384.34765625 0.555087 0.194591 -0.360496
1384.77734375 1.042573 0.654491 -0.388082
1385.5078125 1.091709 0.604337 -0.487372
1387.4296875 0.953553 0.524519 -0.429034
1390.00390625 1.296399 0.741399 -0.555
1391.45703125 1.262486 0.792486 -0.47
1392.12890625 1.1484109999999998 0.715 -0.433411
1392.87109375 1.323742 0.787295 -0.536447
1393.62109375 1.407062 0.857098 -0.549964
1394.33984375 1.3382100000000001 0.810382 -0.527828
1395.0546875 1.266137 0.691913 -0.574224
1395.765625 1.197235 0.647292 -0.549943
1396.50390625 1.113802 0.529067 -0.584735
1397.24609375 1.202481 0.637535 -0.564946
1397.97265625 1.204361 0.655938 -0.548423
1398.703125 1.241622 0.691984 -0.549638
1399.421875 1.348529 0.771556 -0.576973
1400.15625 1.206002 0.662031 -0.543971
1400.87890625 1.236467 0.696869 -0.539598
1401.6171875 1.267248 0.702562 -0.564686
1402.3671875 1.22199 0.680153 -0.541837
1404.7578125 1.192669 0.674601 -0.518068
1408.75390625 1.3422939999999999 0.788153 -0.554141
1409.89453125 1.138447 0.599935 -0.538512
1410.59375 1.097909 0.610139 -0.48777
1411.3359375 1.104924 0.57995 -0.524974
1412.05078125 1.04947 0.50947 -0.54
1412.76953125 1.034881 0.514976 -0.519905
1413.5 1.144993 0.56 -0.584993
1414.23046875 1.115572 0.605572 -0.51
1414.9609375 1.089406 0.614782 -0.474624
1415.703125 1.225676 0.705653 -0.520023
1416.42578125 1.3539400000000001 0.701767 -0.652173
1417.15625 1.264397 0.624397 -0.64
1417.90625 1.1582439999999998 0.543244 -0.615
1423.59765625 1.372022 0.884988 -0.487034
1424.7734375 1.3917959999999998 0.866984 -0.524812
1425.45703125 1.225219 0.815238 -0.409981
1426.1796875 1.14512 0.728199 -0.416921
1426.89453125 1.172884 0.724974 -0.44791
1427.62109375 1.063486 0.598486 -0.465
1428.34765625 0.9971570000000001 0.512672 -0.484485
1429.08203125 1.144987 0.603238 -0.541749
1429.82421875 1.41338 0.774122 -0.639258
1430.54296875 1.3555220000000001 0.748534 -0.606988
1433.46875 1.4700069999999998 0.891126 -0.578881
1435.796875 1.369195 0.889818 -0.479377
1438.36328125 1.330787 0.907288 -0.423499
1440.87890625 1.308638 0.869137 -0.439501
1443.37890625 1.355622 0.843161 -0.512461
1444.78515625 1.3543720000000001 0.799372 -0.555
1445.46875 1.126342 0.584839 -0.541503
1446.203125 1.3089279999999999 0.718928 -0.59
1446.5 0.434601 0.26 -0.174601
1446.92578125 1.280814 0.696706 -0.584108
1447.64453125 1.1246269999999998 0.52977 -0.594857
1448.34765625 1.057252 0.507499 -0.549753
1449.0703125 0.977894 0.429593 -0.548301
1449.796875 0.9895339999999999 0.399704 -0.58983
1450.50390625 0.974371 0.357232 -0.617139
1451.22265625 0.9684299999999999 0.363677 -0.604753
1451.9296875 0.939229 0.384672 -0.554557
1452.62890625 0.964197 0.409197 -0.555
1454.578125 1.094334 0.494334 -0.6
1455.984375 1.055212 0.415954 -0.639258
1456.66796875 1.294845 0.639896 -0.654949
1457.40234375 1.2909000000000002 0.601352 -0.689548
1458.12890625 1.3111009999999998 0.658033 -0.653068
1458.875 1.331321 0.615 -0.716321
1459.59375 1.163133 0.554661 -0.608472
1460.30859375 1.188729 0.529066 -0.659663
1461.03125 1.083078 0.465589 -0.617489
1461.7734375 1.253707 0.659756 -0.593951
1462.49609375 1.1894770000000001 0.595 -0.594477
1463.23828125 1.209537 0.621038 -0.588499
1463.9921875 1.104392 0.464392 -0.64
1464.7109375 1.050523 0.509742 -0.540781
1466.83203125 0.998103 0.463117 -0.534986
1468.2734375 0.9176070000000001 0.343822 -0.573785
1468.94140625 1.204533 0.769249 -0.435284
1469.68359375 1.401511 0.712553 -0.688958
1470.40625 1.314387 0.724844 -0.589543
1471.1171875 1.347599 0.718193 -0.629406
1471.84765625 1.25073 0.656543 -0.594187
1472.58203125 1.129338 0.569344 -0.559994
1473.30859375 1.3366829999999998 0.812029 -0.524654
1474.02734375 1.328694 0.794866 -0.533828
1474.75 1.363037 0.79 -0.573037
1475.49609375 1.2742529999999999 0.753767 -0.520486
1476.2421875 1.138323 0.695 -0.443323
1476.9921875 1.2478639999999999 0.832607 -0.415257
1478.7265625 1.23 0.865 -0.365
1479.42578125 1.272556 0.872578 -0.399978
1480.1875 1.210569 0.86 -0.350569
1480.92578125 1.157022 0.78741 -0.369612
1481.6875 1.1467100000000001 0.69413 -0.45258
1485.9921875 1.339753 1.004753 -0.335
1487.2265625 1.2220149999999999 0.881296 -0.340719
1487.93359375 1.207007 0.869443 -0.337564
1488.66796875 1.175405 0.770454 -0.404951
1489.421875 1.22336 0.92336 -0.3
1490.18359375 1.116983 0.782088 -0.334895
1490.91015625 1.093813 0.659281 -0.434532
1491.640625 1.026703 0.551856 -0.474847
1492.37109375 1.047717 0.61127 -0.436447
1493.140625 1.306072 0.741129 -0.564943
1493.8984375 1.205627 0.64782 -0.557807
1494.64453125 1.26482 0.684844 -0.579976
1497.703125 1.199512 0.669512 -0.53
1498.90625 1.3814799999999998 0.832224 -0.549256
1499.58984375 1.315242 0.845242 -0.47
1500.33984375 1.23291 0.68818 -0.54473
1501.07421875 1.1934559999999999 0.641601 -0.551855
1501.828125 1.18794 0.66294 -0.525
1502.58984375 1.095534 0.545534 -0.55
1503.3125 1.0509680000000001 0.5155 -0.535468
1506.0546875 1.392738 0.873095 -0.519643
1507.64453125 1.186803 0.719778 -0.467025
1508.31640625 1.075866 0.650866 -0.425
1509.04296875 1.046866 0.557113 -0.489753
1509.75390625 1.028179 0.538179 -0.49
1510.4921875 1.00536 0.526052 -0.479308
1511.234375 0.91337 0.449391 -0.463979
1511.9609375 0.924558 0.419627 -0.504931
1512.6953125 1.052921 0.529771 -0.52315
1513.44921875 1.210763 0.727113 -0.48365
1514.20703125 1.17971 0.674716 -0.504994
1516.25390625 1.186529 0.751891 -0.434638
1518.9921875 1.2259419999999999 0.884633 -0.341309
1520.34375 1.1112060000000001 0.698207 -0.412999
1521.0390625 1.084077 0.685577 -0.3985
1521.76953125 1.144869 0.734869 -0.41
1522.5078125 1.328522 0.869114 -0.459408
1523.25390625 1.276088 0.841088 -0.435
1524.0 1.174985 0.78 -0.394985
1524.7421875 1.135816 0.748911 -0.386905
1525.49609375 1.158703 0.802101 -0.356602
1526.23828125 1.07359 0.745955 -0.327635
1526.96875 1.051014 0.722754 -0.32826
1527.72265625 1.0411000000000001 0.71226 -0.32884
1528.48828125 1.037174 0.673312 -0.363862
1529.234375 1.070449 0.708541 -0.361908
1529.99609375 1.2210459999999999 0.857104 -0.363942
1533.18359375 1.3333629999999999 0.939085 -0.394278
1534.44921875 1.13343 0.793581 -0.339849
1535.1484375 1.172564 0.822564 -0.35
1535.8828125 1.1193359999999999 0.706336 -0.413
1536.62109375 1.0706120000000001 0.655688 -0.414924
1537.3828125 1.000478 0.632561 -0.367917
1538.11328125 0.913457 0.574434 -0.339023
1538.83984375 0.817153 0.492153 -0.325
1539.56640625 0.9448449999999999 0.549951 -0.394894
1540.3125 1.041219 0.666219 -0.375
1541.04296875 1.090677 0.747135 -0.343542
1541.8125 1.2606009999999999 0.885929 -0.374672
1544.45703125 1.170546 0.86028 -0.310266
1545.93359375 1.1225 0.772593 -0.349907
1546.64453125 1.169771 0.884771 -0.285
1547.40625 1.222642 0.860329 -0.362313
1548.1328125 1.22936 0.86981 -0.35955
1548.875 1.22529 0.86 -0.36529
1549.6328125 1.248761 0.854577 -0.394184
1550.37890625 1.144603 0.779737 -0.364866
1551.14453125 1.095334 0.71982 -0.375514
1551.89453125 1.094982 0.659982 -0.435
1552.63671875 1.0718320000000001 0.819762 -0.25207
1553.37109375 0.938583 0.646936 -0.291647
1554.1171875 0.7982750000000001 0.443018 -0.355257
1554.89453125 1.372504 0.939912 -0.432592
1557.94140625 1.22793 0.87336 -0.35457
1559.18359375 1.210836 0.82932 -0.381516
1559.890625 1.2306620000000001 0.868715 -0.361947
1560.6484375 1.179773 0.807926 -0.371847
1561.40234375 1.299269 0.916761 -0.382508
1562.140625 1.2115960000000001 0.788686 -0.42291
1562.89453125 1.149529 0.704811 -0.444718
1563.6640625 1.07648 0.639874 -0.436606
1564.40234375 1.032213 0.578945 -0.453268
1565.1640625 1.1456439999999999 0.724815 -0.420829
1565.921875 1.234095 0.809454 -0.424641
1566.6796875 1.223582 0.815017 -0.408565
1567.421875 1.2488679999999999 0.797708 -0.45116
1569.359375 1.270923 0.781351 -0.489572
1570.765625 1.173803 0.733926 -0.439877
1571.45703125 1.220186 0.745238 -0.474948
1572.23828125 1.271176 0.767314 -0.503862
1572.9921875 1.293545 0.808545 -0.485
1573.76171875 1.374076 0.870076 -0.504
1574.5 1.229449 0.755 -0.474449
1575.25 1.198904 0.73 -0.468904
1576.0078125 1.0589110000000002 0.590473 -0.468438
1576.7734375 1.1176300000000001 0.634151 -0.483479
1577.55859375 1.15497 0.648872 -0.506098
1578.33203125 1.144366 0.690383 -0.453983
1579.10546875 1.169994 0.689994 -0.48
1579.86328125 1.206223 0.706837 -0.499386
1580.65625 1.1991559999999999 0.675856 -0.5233
1583.12109375 1.116236 0.626236 -0.49
1584.65234375 1.271324 0.788363 -0.482961
1585.3671875 1.192721 0.714594 -0.478127
1586.13671875 1.117269 0.648672 -0.468597
1586.90625 1.138363 0.641288 -0.497075
1587.66796875 1.185819 0.642135 -0.543684
1588.4140625 1.1879089999999999 0.639409 -0.5485
1589.18359375 1.256826 0.703458 -0.553368
1592.73046875 1.3088980000000001 0.829968 -0.47893
1594.40625 1.168104 0.685 -0.483104
1595.109375 1.158251 0.673447 -0.484804
1595.87109375 1.242823 0.676308 -0.566515
1596.625 1.227225 0.72 -0.507225
1597.37109375 1.294294 0.746843 -0.547451
1598.12890625 1.235717 0.673522 -0.562195
1598.91015625 1.294176 0.703157 -0.591019
1599.65625 1.328487 0.734286 -0.594201
1600.40625 1.268869 0.679669 -0.5892
1601.16015625 1.292648 0.682831 -0.609817
1604.25390625 1.4726629999999998 0.893345 -0.579318
1605.4921875 1.327451 0.73 -0.597451
1606.1953125 1.316439 0.697689 -0.61875
1606.9765625 1.321355 0.676355 -0.645
1607.75 1.38 0.72 -0.66
1608.50390625 1.3857140000000001 0.693238 -0.692476
1609.26171875 1.2527400000000002 0.590728 -0.662012
1610.00390625 1.2801040000000001 0.595394 -0.68471
1610.7734375 1.16259 0.506074 -0.656516
1611.5234375 1.170476 0.520476 -0.65
1612.3046875 1.4235929999999999 0.76226 -0.661333
1613.08203125 1.305815 0.699808 -0.606007
1613.828125 1.320325 0.694973 -0.625352
1616.515625 1.21932 0.629463 -0.589857
1617.609375 1.335914 0.682054 -0.65386
1618.3046875 1.412457 0.784942 -0.627515
1619.05078125 1.280969 0.648663 -0.632306
1619.796875 1.186404 0.589334 -0.59707
1620.55078125 1.122587 0.489011 -0.633576
1621.3046875 1.320497 0.670885 -0.649612
1622.0703125 1.422041 0.691696 -0.730345
1624.01953125 1.303468 0.6998 -0.603668
1626.80859375 1.373394 0.748826 -0.624568
1627.96484375 1.392912 0.742912 -0.65
1628.66015625 1.2424870000000001 0.657888 -0.584599
1629.41796875 1.300421 0.62185 -0.678571
1630.14453125 1.17251 0.545291 -0.627219
1630.875 1.161674 0.545 -0.616674
1631.60546875 1.180163 0.494889 -0.685274
1632.328125 1.077607 0.402758 -0.674849
1634.5625 1.316208 0.701208 -0.615
1635.953125 1.318076 0.692031 -0.626045
1636.64453125 1.3448959999999999 0.734896 -0.61
1637.40234375 1.261882 0.646392 -0.61549
1638.15234375 1.273596 0.654374 -0.619222
1638.9140625 1.221813 0.624646 -0.597167
1639.6484375 1.115628 0.484562 -0.631066
1640.40234375 1.147841 0.458636 -0.689205
1641.15234375 1.251115 0.556408 -0.694707
1641.921875 1.338966 0.639915 -0.699051
1642.703125 1.3307829999999998 0.656913 -0.67387
1643.453125 1.3290920000000002 0.682744 -0.646348
1645.89453125 1.189691 0.614816 -0.574875
1647.41015625 1.169689 0.570465 -0.599224
1648.12890625 1.265727 0.700727 -0.565
1648.8828125 1.242904 0.621681 -0.621223
1649.6171875 1.097379 0.505807 -0.591572
1650.375 1.24 0.66 -0.58
1651.14453125 1.346052 0.754946 -0.591106
1651.8984375 1.3203909999999999 0.805481 -0.51491
1652.6484375 1.239147 0.689575 -0.549572
1653.38671875 1.112416 0.603228 -0.509188
1654.12890625 0.996166 0.495421 -0.500745
1654.88671875 1.1344750000000001 0.519475 -0.615
1655.65625 1.241832 0.643103 -0.598729
1658.88671875 1.3394629999999998 0.829463 -0.51
1661.5703125 1.1732209999999998 0.679483 -0.493738
1663.06640625 1.268994 0.853994 -0.415
1663.74609375 1.296257 0.886343 -0.409914
1664.50390625 1.1862409999999999 0.706384 -0.479857
1665.25 1.1099999999999999 0.605 -0.505
1665.98046875 1.0149569999999999 0.439957 -0.575
1666.7265625 1.0283630000000001 0.473363 -0.555
1667.4453125 1.104174 0.494174 -0.61
1668.1953125 1.0797080000000001 0.449708 -0.63
1668.9609375 0.984931 0.38495 -0.599981
1669.703125 0.912974 0.353605 -0.559369
1670.4296875 0.901354 0.34732 -0.554034
1671.1640625 1.189963 0.546526 -0.643437
1671.91796875 1.1515879999999998 0.536754 -0.614834
1672.65625 1.2575370000000001 0.649671 -0.607866
1675.10546875 1.1805720000000002 0.625572 -0.555
1676.44921875 1.066522 0.517376 -0.549146
1677.1484375 0.949454 0.44651 -0.502944
1677.90234375 0.93307 0.399292 -0.533778
1678.64453125 1.144799 0.569859 -0.57494
1679.3671875 1.124875 0.572346 -0.552529
1680.1015625 1.0824829999999999 0.57336 -0.509123
1680.8515625 1.005831 0.515072 -0.490759
1682.72265625 1.004962 0.512102 -0.49286
1685.30859375 1.221232 0.737414 -0.483818
1686.56640625 1.2071239999999999 0.694769 -0.512355
1687.2578125 1.1327319999999999 0.643222 -0.48951
1687.98046875 1.2149139999999998 0.639914 -0.575
1688.703125 1.203843 0.609162 -0.594681
1689.43359375 1.144511 0.519511 -0.625
1690.1484375 1.157173 0.497363 -0.65981
1690.890625 1.069487 0.474534 -0.594953
1691.6171875 0.986611 0.446611 -0.54
1692.34765625 0.9278820000000001 0.363462 -0.56442
1693.078125 0.8909130000000001 0.295 -0.595913
1693.796875 1.038193 0.397982 -0.640211
1694.55078125 1.161864 0.489133 -0.672731
1696.328125 1.383581 0.742226 -0.641355
1697.01171875 1.368823 0.773929 -0.594894
1697.78515625 1.4488509999999999 0.774043 -0.674808
1698.55078125 1.373878 0.691535 -0.682343
1699.30859375 1.2233 0.5849 -0.6384
1703.7578125 1.1053549999999999 0.571605 -0.53375
1704.953125 1.3260969999999999 0.67337 -0.652727
1705.66796875 1.366009 0.752398 -0.613611
1706.48828125 1.402715 0.802715 -0.6
1707.27734375 1.379845 0.767727 -0.612118
1709.29296875 1.20886 0.65886 -0.55
1711.8046875 1.339871 0.773281 -0.56659
1714.21875 1.4430830000000001 0.890212 -0.552871
1716.56640625 1.387092 0.894499 -0.492593
1718.89453125 1.317294 0.799889 -0.517405
1721.20703125 1.104679 0.639716 -0.464963
1721.890625 1.018632 0.554959 -0.463673
1722.6015625 1.3187440000000001 0.773744 -0.545
1723.2890625 1.278897 0.704171 -0.574726
1723.9921875 1.141083 0.610966 -0.530117
1724.7109375 1.189947 0.599952 -0.589995
1725.40625 1.192352 0.619137 -0.573215
1726.13671875 1.3575300000000001 0.70753 -0.65
1726.8671875 1.3507570000000002 0.658545 -0.692212
1727.5703125 1.3903050000000001 0.676007 -0.714298
1728.29296875 1.295756 0.598589 -0.697167
1729.00390625 1.346682 0.657897 -0.688785
1729.75 1.064949 0.5 -0.564949
1730.49609375 1.144691 0.51476 -0.629931
1731.23046875 1.019994 0.554994 -0.465
1733.01953125 1.194667 0.639983 -0.554684
1734.390625 1.0502340000000001 0.495234 -0.555
1735.08203125 1.0072860000000001 0.428416 -0.57887
1735.83984375 0.847302 0.224368 -0.622934
1736.55078125 0.893864 0.291412 -0.602452
1737.265625 0.927789 0.344116 -0.583673
1738.00390625 1.089562 0.5 -0.589562
1738.7578125 1.11094 0.472717 -0.638223
1739.48828125 1.018884 0.329841 -0.689043
1740.2265625 1.2019570000000002 0.521957 -0.68
1740.97265625 1.224765 0.48612 -0.738645
1741.703125 1.145063 0.396119 -0.748944
1742.4375 1.054508 0.293981 -0.760527
1743.17578125 1.071434 0.351434 -0.72
1743.92578125 1.065055 0.428474 -0.636581
1744.66796875 1.117963 0.42463 -0.693333
1745.40625 1.013611 0.405 -0.608611
1747.359375 1.067275 0.507855 -0.55942
1749.92578125 1.2081469999999999 0.588185 -0.619962
1751.3203125 1.245 0.61 -0.635
1752.01171875 1.186607 0.594841 -0.591766
1752.75 1.1281439999999998 0.475 -0.653144
1753.47265625 1.19456 0.51059 -0.68397
1754.19140625 1.0279669999999999 0.377471 -0.650496
1754.90625 1.0134880000000002 0.390243 -0.623245
1755.62890625 0.9141030000000001 0.300329 -0.613774
1756.3828125 1.07956 0.415 -0.66456
1757.140625 1.172356 0.433701 -0.738655
1757.88671875 1.149021 0.424456 -0.724565
1759.90234375 1.293226 0.632984 -0.660242
1762.83203125 1.2937729999999998 0.703753 -0.59002
1764.04296875 1.2886790000000001 0.738728 -0.549951
1764.75390625 1.281188 0.726188 -0.555
1765.515625 1.11809 0.518327 -0.599763
1766.25390625 1.097237 0.502675 -0.594562
1766.98046875 1.099966 0.419966 -0.68
1767.70703125 1.017521 0.388048 -0.629473
1768.45703125 1.0499260000000001 0.444013 -0.605913
1769.20703125 1.130242 0.485248 -0.644994
1769.953125 1.047386 0.446104 -0.601282
1770.70703125 1.1172849999999999 0.566974 -0.550311
1771.4609375 1.202112 0.602138 -0.599974
1772.19921875 1.191427 0.626808 -0.564619
1774.8359375 1.194928 0.754928 -0.44
1776.23828125 1.219306 0.660444 -0.558862
1776.953125 1.3081 0.734827 -0.573273
1777.70703125 1.3553039999999998 0.730366 -0.624938
1778.45703125 1.2990979999999999 0.664098 -0.635
1779.2109375 1.262653 0.618482 -0.644171
1779.94921875 1.195851 0.567113 -0.628738
1780.6953125 1.1352630000000001 0.484005 -0.651258
1781.43359375 1.173267 0.549899 -0.623368
1782.1953125 1.185716 0.555716 -0.63
1782.97265625 1.426898 0.753905 -0.672993
1783.7265625 1.3701219999999998 0.70348 -0.666642
1786.8359375 1.143544 0.659521 -0.484023
1788.4296875 1.068415 0.613539 -0.454876
1789.125 1.094967 0.62 -0.474967
1789.86328125 1.1738140000000001 0.6672 -0.506614
1790.62109375 1.305927 0.761306 -0.544621
1791.37890625 1.2355079999999998 0.64486 -0.590648
1792.140625 1.285349 0.725486 -0.559863
1792.8984375 1.254264 0.698331 -0.555933
1793.640625 1.288291 0.678418 -0.609873
1794.37890625 1.2773379999999999 0.641238 -0.6361
1795.12109375 1.278202 0.648256 -0.629946
1795.88671875 1.2751350000000001 0.651073 -0.624062
1797.66796875 1.131307 0.609192 -0.522115
1798.36328125 1.262799 0.69527 -0.567529
1799.11328125 1.230825 0.71813 -0.512695
1799.875 1.21149 0.73 -0.48149
1800.63671875 1.143147 0.628582 -0.514565
1802.34765625 1.30016 0.753266 -0.546894
1803.05078125 1.2861989999999999 0.817399 -0.4688
1803.796875 1.1358329999999999 0.678763 -0.45707
