4.01171875 1.228733 0.598774 -0.629959
4.734375 2.85 1.8 -1.05
5.81640625 2.808725 2.033787 -0.774938
6.9765625 2.6685549999999996 2.053555 -0.615
7.98046875 2.786851 2.234881 -0.55197
9.03125 2.7623480000000002 2.007839 -0.754509
10.12890625 2.778693 2.08757 -0.691123
11.15625 2.6125 2.094063 -0.518437
12.08984375 2.723703 2.064207 -0.659496
13.0546875 2.6955359999999997 2.114982 -0.580554
14.125 2.7197440000000004 2.14 -0.579744
15.1484375 2.666151 2.006285 -0.659866
16.0390625 2.702155 2.034382 -0.667773
17.09375 2.676507 1.983246 -0.693261
18.29296875 2.695754 2.083122 -0.612632
19.3828125 2.578783 1.939897 -0.638886
20.359375 2.643834 1.973834 -0.67
21.47265625 2.6722919999999997 2.045 -0.627292
22.546875 2.647636 2.125832 -0.521804
23.4765625 2.50258 2.162981 -0.339599
24.01171875 2.402341 2.116377 -0.285964
25.1328125 2.534796 1.892659 -0.642137
26.2578125 2.68019 1.72 -0.96019
27.3046875 2.602937 1.755312 -0.847625
28.32421875 2.6133610000000003 1.889267 -0.724094
29.3828125 2.711832 2.028478 -0.683354
30.52734375 2.7314030000000002 1.977805 -0.753598
31.625 2.534681 2.325 -0.209681
32.62109375 2.548245 2.209466 -0.338779
33.6640625 2.689893 1.924935 -0.764958
34.70703125 2.661972 1.876694 -0.785278
35.76171875 2.572031 2.082412 -0.489619
36.7734375 2.5441260000000003 2.135025 -0.409101
37.8046875 2.595153 1.970153 -0.625
38.83984375 2.638496 2.12401 -0.514486
39.90625 2.6209480000000003 2.109071 -0.511877
40.83203125 2.64759 1.863494 -0.784096
41.80859375 2.618068 1.834009 -0.784059
42.9453125 2.5930619999999998 2.103262 -0.4898
43.98828125 2.531254 2.107965 -0.423289
44.90234375 2.527064 1.711416 -0.815648
45.89453125 2.579924 1.705584 -0.87434
46.94921875 2.675338 1.942749 -0.732589
48.03125 2.520432 2.000333 -0.520099
49.01953125 2.555657 2.021611 -0.534046
50.0390625 2.714259 2.189209 -0.52505
51.09765625 2.710161 2.188379 -0.521782
52.1484375 2.62263 2.120859 -0.501771
53.09375 2.5445979999999997 1.976565 -0.568033
54.203125 2.6649469999999997 1.992422 -0.672525
55.33984375 2.628448 2.110948 -0.5175
56.42578125 2.507993 2.086373 -0.42162
57.40625 2.647593 2.182887 -0.464706
58.41015625 2.640582 2.187606 -0.452976
59.4140625 2.65918 2.203819 -0.455361
60.4765625 2.515078 2.060078 -0.455
61.50390625 2.6431940000000003 2.018311 -0.624883
62.49609375 2.578537 1.885059 -0.693478
63.62109375 2.378972 1.771066 -0.607906
64.60546875 1.963665 1.784803 -0.178862
65.625 2.059892 1.755 -0.304892
66.76171875 2.5760009999999998 1.879751 -0.69625
67.89453125 2.5539959999999997 1.899595 -0.654401
68.8671875 2.565816 1.949812 -0.616004
69.8125 2.580989 1.97622 -0.604769
70.87890625 2.642882 2.03328 -0.609602
71.9375 2.592498 2.080185 -0.512313
72.9296875 2.533532 1.996125 -0.537407
73.99609375 2.639173 2.025165 -0.614008
75.078125 2.1700779999999997 2.280156 0.110078
76.09765625 2.206569 1.724872 -0.481697
77.0 2.429739 1.455 -0.974739
78.1171875 2.599226 1.40657 -1.192656
79.2421875 2.609458 1.658765 -0.950693
80.3203125 2.511165 1.946679 -0.564486
81.3828125 2.62051 2.003727 -0.616783
82.44921875 2.573798 1.941531 -0.632267
83.4765625 2.596185 1.845512 -0.750673
84.48828125 2.4954840000000003 2.26955 -0.225934
85.49609375 2.3802160000000003 2.177236 -0.20298
86.4921875 2.544491 1.843765 -0.700726
87.515625 2.6298649999999997 1.709291 -0.920574
88.5 2.615243 1.795 -0.820243
89.515625 2.6232569999999997 1.966122 -0.657135
90.6015625 2.664833 2.051602 -0.613231
91.67578125 2.609299 2.196662 -0.412637
92.62109375 2.589279 2.193586 -0.395693
93.6328125 2.552917 2.072172 -0.480745
94.69921875 2.631525 2.0715 -0.560025
95.78125 2.4951420000000004 2.134199 -0.360943
96.8359375 2.286505 2.174466 -0.112039
97.8671875 2.391029 1.708243 -0.682786
98.96484375 2.550453 1.552419 -0.998034
100.0234375 2.626108 1.601689 -1.024419
100.9453125 2.533191 1.708443 -0.824748
101.96484375 2.724215 1.999897 -0.724318
103.09375 2.658048 1.964119 -0.693929
104.1796875 2.568254 1.833125 -0.735129
105.15625 2.646083 1.811215 -0.834868
106.1484375 2.675973 1.926044 -0.749929
107.14453125 2.637162 2.129401 -0.507761
108.23046875 2.634658 2.284658 -0.35
109.2421875 2.649125 2.24214 -0.406985
110.2421875 2.747278 2.334817 -0.412461
111.34765625 2.550405 2.524739 -0.025666
112.390625 2.50973 2.310241 -0.199489
113.32421875 2.553555 2.142477 -0.411078
114.421875 2.404204 2.403072 -0.001132
115.5234375 2.252604 2.014313 -0.238291
116.51171875 2.324154 1.624946 -0.699208
117.46484375 2.549833 1.709289 -0.840544
118.5390625 2.495044 2.309307 -0.185737
119.50390625 2.182028 2.102763 -0.079265
120.53515625 2.4224829999999997 1.862804 -0.559679
121.546875 2.559942 1.685607 -0.874335
122.5390625 2.646112 1.742337 -0.903775
123.53125 2.595395 1.809687 -0.785708
124.44140625 2.601647 2.088196 -0.513451
125.41796875 2.554037 1.930244 -0.623793
126.53125 2.60826 1.801149 -0.807111
127.6953125 2.5999030000000003 1.8923 -0.707603
128.70703125 2.614842 2.037997 -0.576845
129.73046875 2.635779 2.174943 -0.460836
130.78125 2.664556 2.207227 -0.457329
131.8671875 2.471906 2.092344 -0.379562
132.89453125 2.610044 2.124786 -0.485258
133.92578125 2.632505 2.131409 -0.501096
135.02734375 2.577153 2.203168 -0.373985
136.0859375 2.466646 2.063314 -0.403332
137.0 2.42377 1.925 -0.49877
138.04296875 2.473612 1.95768 -0.515932
139.18359375 2.292232 2.344732 0.0525
140.2578125 2.23544 1.895725 -0.339715
141.23046875 2.31861 1.39861 -0.92
142.20703125 2.363537 1.622251 -0.741286
143.1796875 2.414921 1.639473 -0.775448
144.2734375 2.401811 1.452253 -0.949558
145.28125 2.431969 1.552813 -0.879156
146.328125 2.500331 1.875 -0.625331
147.453125 2.484134 2.095055 -0.389079
148.53125 2.446559 1.994086 -0.452473
149.5859375 2.50423 2.069264 -0.434966
150.71875 2.48463 2.105125 -0.379505
151.83984375 2.431572 2.009485 -0.422087
152.83203125 2.4054029999999997 2.030538 -0.374865
153.8828125 2.4268 1.991636 -0.435164
154.91015625 2.476643 2.060179 -0.416464
156.0703125 2.464212 1.937089 -0.527123
157.125 2.3647720000000003 1.87 -0.494772
158.16015625 2.489101 1.97 -0.519101
159.20703125 2.231735 2.337208 0.105473
160.24609375 2.083688 1.870675 -0.213013
161.12890625 2.327058 1.482202 -0.844856
162.16796875 2.4758269999999998 1.401764 -1.074063
163.30859375 2.425792 1.495 -0.930792
164.36328125 2.322958 1.605854 -0.717104
165.3203125 1.803976 1.283937 -0.520039
166.31640625 2.048965 1.469953 -0.579012
167.32421875 2.53413 1.843679 -0.690451
168.33203125 2.499461 1.804663 -0.694798
169.25 2.579819 1.83 -0.749819
170.2890625 2.674086 1.959244 -0.714842
171.328125 2.37281 2.509832 0.137022
172.3359375 2.17398 2.149707 -0.024273
173.22265625 2.37097 1.714828 -0.656142
174.3671875 2.545528 1.856943 -0.688585
175.50390625 2.272261 2.112279 -0.159982
176.53515625 2.38768 1.640648 -0.747032
177.5 2.5380719999999997 1.515 -1.023072
178.4921875 2.688161 1.624232 -1.063929
179.5546875 2.644441 1.82496 -0.819481
180.67578125 2.588881 2.029379 -0.559502
181.71484375 2.582031 2.198061 -0.38397
182.75390625 2.552455 1.922679 -0.629776
183.82421875 2.607698 1.853011 -0.754687
184.859375 2.6361369999999997 1.751137 -0.885
185.78515625 2.572327 1.668852 -0.903475
186.71875 2.609617 1.802616 -0.807001
187.75 2.7397620000000003 1.995 -0.744762
188.8828125 2.609992 1.895338 -0.714654
189.7578125 2.54431 1.659818 -0.884492
190.5390625 2.58882 1.794936 -0.793884
190.83984375 1.164065 0.645569 -0.518496
191.3359375 2.718966 2.003976 -0.71499
192.2734375 2.62296 2.033378 -0.589582
193.15625 2.5210749999999997 1.952909 -0.568166
194.07421875 2.726508 2.153265 -0.573243
195.33203125 2.656944 2.155605 -0.501339
196.58203125 2.543165 2.067041 -0.476124
197.68359375 2.578818 2.117297 -0.461521
198.953125 2.683069 2.216069 -0.467
200.12890625 2.647123 2.107301 -0.539822
201.31640625 2.613536 1.895562 -0.717974
202.41015625 2.609018 1.906059 -0.702959
203.48046875 2.6198240000000004 2.064824 -0.555
204.6484375 2.6462000000000003 2.03947 -0.60673
205.84765625 2.659854 2.06883 -0.591024
206.9296875 2.576347 2.064499 -0.511848
207.90625 2.6273969999999998 2.208576 -0.418821
208.9375 2.651545 2.184177 -0.467368
210.09765625 2.62892 2.172208 -0.456712
211.22265625 2.621738 2.106383 -0.515355
212.21484375 2.5555309999999998 1.9707 -0.584831
213.29296875 2.7191660000000004 2.072077 -0.647089
214.34765625 2.7114000000000003 2.172857 -0.538543
215.34375 2.608441 2.11 -0.498441
216.3125 2.3978659999999996 2.312988 -0.084878
217.296875 2.4419250000000003 2.162621 -0.279304
218.32421875 2.520906 1.806309 -0.714597
219.3671875 2.564859 1.632808 -0.932051
220.3984375 2.61257 1.668835 -0.943735
221.33203125 2.628233 1.822201 -0.806032
222.41796875 2.5963060000000002 1.925157 -0.671149
223.5625 2.639134 1.984974 -0.65416
224.625 2.5038319999999996 2.55 0.046168
225.49609375 2.228596 2.21375 -0.014846
226.37109375 2.363461 1.776404 -0.587057
227.359375 2.49207 1.468803 -1.023267
228.51953125 2.5924430000000003 1.57484 -1.017603
229.60546875 2.639995 1.719963 -0.920032
230.65625 2.686916 1.926892 -0.760024
231.7578125 2.740842 2.091751 -0.649091
232.79296875 2.60412 2.183048 -0.421072
233.76953125 2.521147 2.094137 -0.42701
234.8203125 2.72258 2.081229 -0.641351
235.86328125 2.669109 2.037503 -0.631606
236.9140625 2.657919 2.058875 -0.599044
237.86328125 2.565222 2.034462 -0.53076
238.84765625 2.552435 2.244806 -0.307629
239.9296875 2.478974 2.390634 -0.08834
241.10546875 2.4769959999999998 2.004908 -0.472088
242.1015625 2.588914 1.740513 -0.848401
243.06640625 2.634865 1.731444 -0.903421
244.046875 2.658257 1.799545 -0.858712
244.9453125 2.559049 1.709296 -0.849753
246.0 2.542691 1.835 -0.707691
247.16796875 2.540625 1.878863 -0.661762
248.32421875 2.3891590000000003 1.852473 -0.536686
249.328125 2.530269 2.00624 -0.524029
250.3828125 2.485454 2.021025 -0.464429
251.453125 2.3307979999999997 2.294084 -0.036714
252.56640625 2.312956 1.921284 -0.391672
253.54296875 2.511067 1.76123 -0.749837
254.5390625 2.5504480000000003 1.593971 -0.956477
255.6484375 2.583024 1.55346 -1.029564
256.703125 2.611107 1.758837 -0.85227
257.6640625 2.556957 2.029402 -0.527555
258.74609375 2.5837529999999997 2.20835 -0.375403
259.90625 2.572088 2.181687 -0.390401
260.984375 2.518761 2.053761 -0.465
261.9921875 2.391613 2.114818 -0.276795
263.01953125 2.474075 1.849989 -0.624086
264.125 2.5354579999999998 1.795 -0.740458
265.2265625 1.972787 1.943319 -0.029468
266.21875 1.574962 1.493269 -0.081693
267.27734375 2.0189529999999998 1.28661 -0.732343
268.33984375 2.460267 1.378093 -1.082174
269.40234375 2.579349 1.596571 -0.982778
270.44921875 2.5387769999999996 1.565975 -0.972802
271.453125 2.6833 1.834462 -0.848838
272.46484375 2.6514100000000003 1.938754 -0.712656
273.49609375 2.663929 2.022646 -0.641283
274.44140625 2.522729 2.434954 -0.087775
275.41015625 2.1449230000000004 2.320177 0.175254
276.61328125 2.338317 1.637878 -0.700439
277.73828125 2.558904 1.366724 -1.19218
278.76171875 2.641083 1.522437 -1.118646
279.8359375 2.676901 1.859285 -0.817616
280.91796875 2.561388 2.240286 -0.321102
281.97265625 2.416842 1.999438 -0.417404
282.921875 2.580222 1.66067 -0.919552
283.890625 2.753617 1.672494 -1.081123
284.89453125 2.744317 1.8603 -0.884017
285.9140625 2.590154 2.339195 -0.250959
286.80859375 2.48619 2.227341 -0.258849
287.76171875 2.631287 1.822146 -0.809141
288.92578125 2.6681749999999997 1.819707 -0.848468
290.046875 2.7423729999999997 1.984348 -0.758025
291.1015625 2.702629 2.109366 -0.593263
292.14453125 2.612358 2.444698 -0.16766
293.1953125 2.480891 2.229495 -0.251396
294.30859375 2.5349440000000003 1.697497 -0.837447
295.31640625 2.712898 1.62473 -1.088168
296.30859375 2.725316 1.72904 -0.996276
297.39453125 2.660508 2.224863 -0.435645
298.4375 2.5480880000000004 2.369667 -0.178421
299.33203125 2.353511 1.957453 -0.396058
300.34765625 2.616553 2.01928 -0.597273
301.48828125 2.656078 2.09656 -0.559518
302.58984375 2.6838770000000003 2.015 -0.668877
303.5625 2.655123 1.95822 -0.696903
304.55859375 2.667399 1.855 -0.812399
305.62109375 2.682738 1.809933 -0.872805
306.73828125 2.602284 1.90739 -0.694894
307.76953125 2.6594830000000003 2.169862 -0.489621
308.66015625 2.6290050000000003 2.121982 -0.507023
309.64453125 2.629846 2.172126 -0.45772
310.62890625 2.675246 1.975503 -0.699743
311.51953125 2.608927 1.839958 -0.768969
312.640625 2.659872 1.962108 -0.697764
313.8125 2.675247 2.084842 -0.590405
314.90234375 2.590851 2.227477 -0.363374
315.8828125 2.643729 1.941936 -0.701793
316.90234375 2.7237929999999997 1.922934 -0.800859
317.98046875 2.428522 2.339846 -0.088676
319.01953125 2.389209 1.984931 -0.404278
320.046875 2.570163 1.65073 -0.919433
321.1015625 2.6657650000000004 1.565827 -1.099938
322.140625 2.641887 1.543203 -1.098684
323.06640625 2.598779 1.619304 -0.979475
324.1171875 2.71875 1.986483 -0.732267
325.17578125 2.737436 2.156254 -0.581182
326.20703125 2.451831 2.222172 -0.229659
327.18359375 2.433011 1.806714 -0.626297
328.1796875 2.650456 1.559683 -1.090773
329.203125 2.7382099999999996 1.698238 -1.039972
330.34375 2.596965 1.866109 -0.730856
331.3984375 2.631 2.011074 -0.619926
332.41015625 2.668978 2.090998 -0.57798
333.5 2.7347799999999998 2.175 -0.55978
334.58984375 2.600302 2.065334 -0.534968
335.5390625 2.612786 2.189127 -0.423659
336.515625 2.559326 1.980508 -0.578818
337.6015625 2.570546 1.891686 -0.67886
338.7421875 2.65002 1.896366 -0.753654
339.78125 2.590669 1.911349 -0.67932
340.875 2.691875 2.13 -0.561875
342.015625 2.692488 2.174126 -0.518362
343.1953125 2.528144 2.182283 -0.345861
344.234375 2.564438 2.149438 -0.415
345.30078125 2.5969539999999998 2.074651 -0.522303
346.37890625 2.319072 1.990888 -0.328184
347.4453125 2.47165 1.522595 -0.949055
348.53125 2.4941370000000003 1.34512 -1.149017
349.63671875 2.557795 1.689638 -0.868157
350.7109375 2.6303430000000003 2.058314 -0.572029
351.78515625 2.5057159999999996 2.340724 -0.164992
352.76953125 2.5788919999999997 2.070864 -0.508028
353.78125 2.647989 1.933245 -0.714744
354.97265625 2.579787 1.947697 -0.63209
356.03125 2.63109 1.854299 -0.776791
356.96484375 2.5696939999999997 2.134953 -0.434741
357.9296875 2.415904 2.070344 -0.34556
358.9375 2.620102 1.822394 -0.797708
360.00390625 2.564967 1.8 -0.764967
360.9921875 2.614874 1.955 -0.659874
362.02734375 2.538336 2.21266 -0.325676
363.07421875 2.579793 1.916806 -0.662987
364.1015625 2.5769889999999998 1.779475 -0.797514
364.9921875 2.496106 1.776662 -0.719444
366.0234375 2.3562719999999997 1.7751 -0.581172
367.10546875 1.848246 1.489976 -0.35827
368.11328125 2.120996 1.643048 -0.477948
369.1171875 2.392246 2.20341 -0.188836
370.09375 2.4493590000000003 1.950668 -0.498691
371.16015625 2.5845070000000003 1.693453 -0.891054
372.296875 2.64319 1.792299 -0.850891
373.31640625 2.566765 1.822541 -0.744224
374.28125 2.60422 1.913245 -0.690975
375.33984375 2.644742 1.975913 -0.668829
376.44921875 2.617449 1.862749 -0.7547
377.33984375 2.558638 1.879396 -0.679242
378.30078125 2.574605 2.041594 -0.533011
379.40234375 2.6431929999999997 2.245732 -0.397461
380.5390625 2.646468 2.289501 -0.356967
381.578125 2.481868 1.924223 -0.557645
382.6484375 2.708229 1.923764 -0.784465
383.734375 2.5263530000000003 1.995 -0.531353
384.81640625 2.504604 2.117496 -0.387108
385.8203125 2.592468 1.875606 -0.716862
386.875 2.692826 1.755 -0.937826
387.9453125 2.68919 1.8355 -0.85369
388.90625 2.676217 1.926674 -0.749543
389.90625 2.632669 2.007295 -0.625374
390.953125 2.6797579999999996 2.114832 -0.564926
392.03515625 2.435978 2.243827 -0.192151
393.109375 2.515851 1.79514 -0.720711
394.09765625 2.718416 1.78277 -0.935646
394.59375 2.627618 1.716331 -0.911287
395.58203125 2.726617 1.975561 -0.751056
396.625 2.697631 2.09 -0.607631
397.59765625 2.662016 2.074875 -0.587141
398.484375 2.590444 2.370444 -0.22
399.48046875 2.583205 1.956382 -0.626823
400.5859375 2.708337 1.77 -0.938337
401.640625 2.6977349999999998 1.961279 -0.736456
402.79296875 2.739089 2.198935 -0.540154
403.94140625 2.733113 2.339483 -0.39363
405.0234375 2.653197 2.066873 -0.586324
406.01953125 2.6705099999999997 2.26827 -0.40224
407.0234375 2.658543 2.231354 -0.427189
407.5390625 2.5910149999999996 2.259667 -0.331348
408.703125 2.586854 1.88023 -0.706624
409.734375 2.726844 1.731844 -0.995
410.77734375 2.702979 1.803032 -0.899947
411.8828125 2.7805790000000004 2.026152 -0.754427
412.88671875 2.654541 2.15835 -0.496191
413.8515625 2.642038 2.07705 -0.564988
414.93359375 2.686297 2.097592 -0.588705
416.07421875 2.699669 2.228974 -0.470695
417.109375 2.425183 2.370183 -0.055
418.078125 2.6433690000000003 2.040328 -0.603041
419.1171875 2.6792670000000003 1.817282 -0.861985
420.26953125 2.556933 2.069854 -0.487079
421.359375 2.585789 1.715789 -0.87
422.3125 2.7211160000000003 1.799983 -0.921133
423.34765625 2.77407 2.030337 -0.743733
424.35546875 2.6657770000000003 2.469819 -0.195958
425.3515625 2.558621 2.257202 -0.301419
426.39453125 2.708272 2.119864 -0.588408
427.44921875 2.7466820000000003 2.039296 -0.707386
428.49609375 2.7550749999999997 2.067249 -0.687826
429.56640625 2.682606 2.139234 -0.543372
430.51953125 2.5746909999999996 2.326872 -0.247819
431.46484375 2.65274 2.268609 -0.384131
432.61328125 2.685613 2.120054 -0.565559
433.7265625 2.686153 1.997866 -0.688287
434.68359375 2.6869389999999997 2.093695 -0.593244
435.71875 2.524321 2.219895 -0.304426
436.7734375 2.751041 1.893027 -0.858014
437.80859375 2.698414 1.853733 -0.844681
438.91796875 2.633234 2.000352 -0.632882
440.0625 2.725845 2.205026 -0.520819
441.12890625 2.569941 2.315232 -0.254709
442.01953125 2.5470509999999997 2.179972 -0.367079
443.02734375 2.58493 2.04 -0.54493
444.19921875 2.5851699999999997 1.877381 -0.707789
445.3359375 2.6370709999999997 1.867262 -0.769809
446.32421875 2.626465 1.881465 -0.745
447.39453125 2.628609 1.914628 -0.713981
448.42578125 2.564291 2.02384 -0.540451
449.4765625 2.444457 2.047313 -0.397144
450.5390625 2.397288 2.019515 -0.377773
451.62890625 2.424953 1.949721 -0.475232
452.69140625 2.4323740000000003 1.969105 -0.463269
453.71875 2.419141 1.827344 -0.591797
454.6640625 2.426399 1.676155 -0.750244
455.65234375 2.411064 1.667033 -0.744031
456.7890625 2.464296 1.849109 -0.615187
457.87890625 2.426696 1.636956 -0.78974
458.84765625 2.5627139999999997 1.718098 -0.844616
459.84765625 2.6227039999999997 1.775213 -0.847491
460.90625 2.634016 1.887059 -0.746957
462.046875 2.572907 1.904727 -0.66818
463.05078125 2.620737 1.981074 -0.639663
464.05859375 2.6067810000000002 2.032014 -0.574767
465.12109375 2.589394 1.976367 -0.613027
466.16796875 2.468277 1.968895 -0.499382
467.0625 2.215034 1.583099 -0.631935
468.15234375 2.0499929999999997 1.446507 -0.603486
469.28515625 2.29983 1.768318 -0.531512
470.3203125 2.545177 1.960399 -0.584778
471.296875 2.650905 1.975392 -0.675513
472.3125 2.653751 1.881569 -0.772182
473.28515625 2.7258700000000005 2.025952 -0.699918
474.33203125 2.563273 1.963289 -0.599984
475.328125 2.588986 2.067087 -0.521899
476.32421875 2.676273 2.154591 -0.521682
477.35546875 2.596221 2.119995 -0.476226
478.40625 2.6241060000000003 1.934436 -0.68967
479.37109375 2.530035 1.861987 -0.668048
480.4375 2.607642 1.916429 -0.691213
481.48828125 2.617139 1.91344 -0.703699
482.53125 2.6229 1.728684 -0.894216
483.4453125 2.6943669999999997 1.784023 -0.910344
484.40625 2.751847 1.983109 -0.768738
485.40234375 2.741241 2.047086 -0.694155
486.50390625 2.6720550000000003 1.960482 -0.711573
487.5234375 2.7007209999999997 2.124377 -0.576344
488.5390625 2.7378489999999998 2.224834 -0.513015
489.625 2.7553929999999998 2.3 -0.455393
490.62890625 2.6791080000000003 2.184394 -0.494714
491.4921875 2.6864060000000003 2.043702 -0.642704
492.5390625 2.648839 1.924412 -0.724427
493.65234375 2.726181 2.13198 -0.594201
494.7265625 2.72087 2.094081 -0.626789
495.671875 2.656466 2.101881 -0.554585
496.66796875 2.706142 2.090993 -0.615149
497.7265625 2.626321 2.115634 -0.510687
498.828125 2.618531 2.008261 -0.61027
499.83203125 2.653127 1.901429 -0.751698
500.8515625 2.649161 1.967082 -0.682079
501.859375 2.64396 2.023682 -0.620278
502.8359375 2.615311 2.010961 -0.60435
503.8125 2.588082 1.991087 -0.596995
504.828125 2.68688 2.05315 -0.63373
505.87109375 2.68607 1.975267 -0.710803
506.890625 2.6431370000000003 1.818872 -0.824265
507.88671875 2.731985 1.895531 -0.836454
508.39453125 2.739754 1.929809 -0.809945
509.41015625 2.707224 1.991158 -0.716066
510.55859375 2.717891 2.059056 -0.658835
511.6484375 2.599475 1.944708 -0.654767
512.63671875 2.667303 2.093327 -0.573976
513.65625 2.733245 2.188841 -0.544404
514.703125 2.6353479999999996 2.134387 -0.500961
515.67578125 2.7122979999999997 1.994117 -0.718181
516.61328125 2.69847 1.93949 -0.75898
517.58203125 2.704287 1.899575 -0.804712
518.66015625 2.622921 1.778191 -0.84473
519.609375 2.7861659999999997 1.941166 -0.845
520.5625 2.706418 1.959529 -0.746889
521.59375 2.609755 1.975 -0.634755
522.79296875 2.649975 1.996339 -0.653636
523.8125 2.589951 1.904949 -0.685002
524.81640625 2.587316 1.903659 -0.683657
525.8828125 2.624099 1.953993 -0.670106
526.90234375 2.504214 1.806633 -0.697581
527.91796875 2.507155 1.78127 -0.725885
528.9453125 2.57897 1.831284 -0.747686
530.01171875 2.631184 1.919357 -0.711827
531.04296875 2.623563 1.755322 -0.868241
531.96484375 2.595554 1.671865 -0.923689
532.91015625 2.655688 1.847571 -0.808117
533.9921875 2.6685969999999997 2.006896 -0.661701
535.09375 2.567272 1.960526 -0.606746
536.03515625 2.720305 2.005796 -0.714509
537.0234375 2.72431 2.055 -0.66931
538.015625 2.586344 2.107624 -0.47872
539.01171875 2.66272 2.094754 -0.567966
540.06640625 2.5673719999999998 2.019606 -0.547766
541.09375 2.582875 2.026557 -0.556318
542.1640625 2.6679630000000003 1.938919 -0.729044
543.2265625 2.649137 1.886935 -0.762202
544.234375 2.582227 1.927227 -0.655
545.20703125 2.607942 1.975524 -0.632418
546.390625 2.586334 2.015872 -0.570462
547.49609375 2.548897 1.928982 -0.619915
548.40234375 2.4504669999999997 1.843367 -0.6071
549.4296875 2.5479700000000003 1.940479 -0.607491
550.50390625 2.5182580000000003 1.853509 -0.664749
551.51953125 2.35912 1.609424 -0.749696
552.609375 2.5478899999999998 1.83789 -0.71
553.734375 2.525668 1.910668 -0.615
554.77734375 2.574237 2.00281 -0.571427
555.703125 2.569589 1.95475 -0.614839
556.6015625 2.585528 1.933804 -0.651724
557.51953125 2.541384 1.994881 -0.546503
558.69140625 2.477321 1.952552 -0.524769
559.734375 2.457143 1.972143 -0.485
560.83203125 2.54529 2.051692 -0.493598
561.91796875 2.541461 2.037052 -0.504409
562.91796875 2.5153179999999997 2.000475 -0.514843
563.90625 2.494121 1.899947 -0.594174
564.98828125 2.531288 1.98186 -0.549428
566.05078125 2.5984 2.006471 -0.591929
567.109375 2.478526 1.918526 -0.56
568.1171875 2.4379210000000002 1.900551 -0.53737
569.078125 1.878291 1.505 -0.373291
570.1953125 1.980077 1.581696 -0.398381
571.296875 2.471431 1.837264 -0.634167
572.26953125 2.581679 1.979809 -0.60187
573.1953125 2.59036 1.981596 -0.608764
574.18359375 2.541242 1.984629 -0.556613
575.16015625 2.528123 1.908999 -0.619124
576.12109375 2.53134 1.903979 -0.627361
577.125 2.569758 1.94 -0.629758
578.171875 2.531417 2.063723 -0.467694
579.24609375 2.493257 1.903282 -0.589975
580.1640625 2.5568239999999998 1.84843 -0.708394
581.0078125 2.587068 1.916025 -0.671043
582.15234375 2.620788 2.095475 -0.525313
583.265625 2.636603 1.972677 -0.663926
584.26171875 2.546672 1.835969 -0.710703
585.28515625 2.581339 2.000851 -0.580488
586.3515625 2.6741930000000003 2.101484 -0.572709
587.37890625 2.64591 2.091105 -0.554805
588.4140625 2.581324 1.962178 -0.619146
589.54296875 2.6061129999999997 1.977601 -0.628512
590.5859375 2.6035570000000003 2.012744 -0.590813
591.65625 2.664144 2.079036 -0.585108
592.67578125 2.633254 2.059611 -0.573643
593.640625 2.613257 2.064342 -0.548915
594.7109375 2.6401700000000003 2.014342 -0.625828
595.80078125 2.723619 2.157955 -0.565664
596.84765625 2.6682799999999998 2.006337 -0.661943
597.76171875 2.692061 1.969218 -0.722843
598.75390625 2.7011920000000003 2.071232 -0.62996
599.859375 2.7479590000000003 2.147959 -0.6
600.9921875 2.657852 2.079613 -0.578239
601.97265625 2.6934549999999997 2.083455 -0.61
603.01953125 2.7162509999999997 2.104762 -0.611489
604.109375 2.771968 2.031968 -0.74
605.05859375 2.680673 1.967883 -0.71279
606.04296875 2.678972 2.01402 -0.664952
607.08984375 2.747745 2.07817 -0.669575
608.11328125 2.692126 2.029751 -0.662375
609.09375 2.652445 1.8104 -0.842045
609.98046875 2.737926 1.914989 -0.822937
610.94921875 2.760446 2.006279 -0.754167
612.0390625 2.8053120000000002 2.134354 -0.670958
613.06640625 2.687618 2.009852 -0.677766
614.0 2.768943 2.08 -0.688943
614.99609375 2.720804 2.104532 -0.616272
615.9921875 2.823676 2.023736 -0.79994
616.8984375 2.6425020000000004 1.819017 -0.823485
617.92578125 2.715667 1.978261 -0.737406
619.0234375 2.735732 2.036242 -0.69949
620.06640625 2.5936079999999997 2.028316 -0.565292
621.15234375 2.633692 2.048024 -0.585668
622.1484375 2.7068969999999997 2.047824 -0.659073
623.1640625 2.713316 2.153971 -0.559345
624.30859375 2.696743 2.149566 -0.547177
625.41015625 2.628744 2.0457 -0.583044
626.34765625 2.712538 2.132241 -0.580297
627.3671875 2.633292 2.124818 -0.508474
628.41015625 2.6280989999999997 2.140135 -0.487964
629.421875 2.555505 2.109503 -0.446002
630.4609375 2.646738 2.023203 -0.623535
631.52734375 2.640434 2.045949 -0.594485
632.56640625 2.683466 2.163528 -0.519938
633.53515625 2.576443 2.089677 -0.486766
634.40625 2.55647 2.08522 -0.47125
635.28515625 2.500048 2.028374 -0.471674
636.3671875 2.6073969999999997 2.069809 -0.537588
637.47265625 2.662655 2.108786 -0.553869
638.46875 2.5572030000000003 2.037161 -0.520042
639.484375 2.67886 2.15886 -0.52
640.50390625 2.576852 2.104146 -0.472706
641.484375 2.5276159999999996 2.141901 -0.385715
642.5 2.534921 2.08 -0.454921
643.58203125 2.577336 2.071212 -0.506124
644.62109375 2.5772839999999997 2.048631 -0.528653
645.58984375 2.458005 1.823358 -0.634647
646.57421875 2.585442 1.883662 -0.70178
647.5703125 2.5613770000000002 1.970251 -0.591126
648.71875 2.584575 2.066818 -0.517757
649.76953125 2.478605 1.964911 -0.513694
650.75 2.457263 1.985 -0.472263
651.78515625 2.542288 1.978636 -0.563652
652.796875 2.442565 1.979478 -0.463087
653.8828125 2.44442 1.834651 -0.609769
654.87109375 2.471283 1.78 -0.691283
655.859375 2.659283 1.964283 -0.695
656.91015625 2.540394 2.006708 -0.533686
657.97265625 2.560924 1.887492 -0.673432
658.91015625 2.5628200000000003 1.898082 -0.664738
660.0234375 2.50654 1.992265 -0.514275
661.1875 2.509563 1.941327 -0.568236
662.18359375 2.4466650000000003 1.84962 -0.597045
663.11328125 2.576765 1.960039 -0.616726
664.078125 2.578391 1.972417 -0.605974
665.06640625 2.570018 1.954356 -0.615662
666.171875 2.4864889999999997 1.858711 -0.627778
667.21875 2.500723 1.779844 -0.720879
668.26953125 2.585893 1.85207 -0.733823
669.2890625 2.4795309999999997 1.827227 -0.652304
670.2578125 2.005164 1.532315 -0.472849
671.1171875 1.889327 1.438192 -0.451135
672.1171875 2.181455 1.638762 -0.542693
673.08984375 2.598353 2.03597 -0.562383
674.109375 2.5269589999999997 2.000625 -0.526334
675.109375 2.62313 2.06813 -0.555
676.05859375 2.556335 2.058846 -0.497489
676.9765625 2.5381169999999997 2.039576 -0.498541
678.0078125 2.512787 1.934385 -0.578402
678.98828125 2.496652 1.842966 -0.653686
679.94140625 2.602019 1.898383 -0.703636
681.01171875 2.540118 1.848295 -0.691823
682.0859375 2.485407 1.724337 -0.76107
683.00390625 2.561285 1.746406 -0.814879
684.0625 2.577466 1.847381 -0.730085
685.18359375 2.549858 1.837224 -0.712634
686.25390625 2.561675 1.741069 -0.820606
687.2109375 2.544683 1.665829 -0.878854
688.18359375 2.606591 1.880515 -0.726076
689.18359375 2.611526 2.019192 -0.592334
690.28515625 2.572312 1.958323 -0.613989
691.28515625 2.5563640000000003 1.91331 -0.643054
692.21484375 2.697263 1.983446 -0.713817
693.2265625 2.583737 1.962814 -0.620923
694.2890625 2.635919 1.999029 -0.63689
695.265625 2.5791969999999997 1.951263 -0.627934
696.390625 2.657779 1.993027 -0.664752
697.49609375 2.638243 2.054268 -0.583975
698.53125 2.604064 2.005142 -0.598922
699.4765625 2.60393 2.042404 -0.561526
700.4609375 2.6379 2.088902 -0.548998
701.46875 2.6545300000000003 2.165484 -0.489046
702.609375 2.681918 2.076918 -0.605
703.65234375 2.627808 2.084845 -0.542963
704.65625 2.717739 2.12081 -0.596929
705.6484375 2.6925440000000003 2.17804 -0.514504
706.58984375 2.711625 2.073532 -0.638093
707.453125 2.6776340000000003 2.01425 -0.663384
708.2734375 2.581034 1.946392 -0.634642
709.05078125 2.732417 2.158246 -0.574171
709.86328125 2.730915 2.230174 -0.500741
710.69140625 2.7139919999999997 2.213659 -0.500333
711.44921875 2.645893 2.049623 -0.59627
712.17578125 2.7938 2.174212 -0.619588
712.94921875 2.769856 2.219287 -0.550569
714.30078125 2.696705 2.214146 -0.482559
715.5390625 2.6554379999999997 2.11948 -0.535958
716.48046875 2.181425 1.744983 -0.436442
717.3046875 2.2841329999999997 1.868944 -0.415189
718.10546875 2.5383690000000003 1.978369 -0.56
718.86328125 2.761788 2.121246 -0.640542
720.07421875 2.732821 2.196598 -0.536223
721.2109375 2.694896 2.119088 -0.575808
722.24609375 2.758588 2.162302 -0.596286
723.26953125 2.707518 2.044692 -0.662826
724.37109375 2.696681 2.021554 -0.675127
725.47265625 2.749936 2.156011 -0.593925
726.59765625 2.711334 2.16 -0.551334
727.7109375 2.711772 2.186798 -0.524974
728.8046875 2.6563169999999996 2.177764 -0.478553
729.734375 2.693695 2.138228 -0.555467
730.56640625 2.6658280000000003 2.10395 -0.561878
731.44921875 2.652883 2.049591 -0.603292
732.4609375 2.719731 2.094731 -0.625
733.50390625 2.713673 2.082218 -0.631455
734.546875 2.685491 2.059643 -0.625848
735.609375 2.7306290000000004 2.115629 -0.615
736.60546875 2.6691979999999997 2.154696 -0.514502
737.5 2.679901 2.1 -0.579901
738.45703125 2.6719679999999997 2.052408 -0.61956
739.35546875 2.62913 1.96413 -0.665
740.328125 2.6515269999999997 2.03876 -0.612767
741.3984375 2.757789 2.019023 -0.738766
742.4765625 2.656199 2.075805 -0.580394
743.4296875 2.634631 2.04334 -0.591291
744.33203125 2.629195 1.997466 -0.631729
745.16796875 2.67215 2.078156 -0.593994
745.9453125 2.708425 2.020416 -0.688009
746.703125 2.633922 1.955371 -0.678551
747.44921875 2.538104 1.767069 -0.771035
748.1875 2.665356 1.935994 -0.729362
748.859375 2.6509840000000002 1.940984 -0.71
749.6640625 2.6253230000000003 2.049043 -0.57628
750.69140625 2.5994870000000003 2.039083 -0.560404
751.67578125 2.489411 1.96 -0.529411
752.62109375 2.583511 2.110304 -0.473207
753.77734375 2.59973 2.099204 -0.500526
754.8671875 2.533505 2.083326 -0.450179
756.05859375 2.468363 1.989436 -0.478927
757.25 2.57625 2.075 -0.50125
758.3515625 2.6583300000000003 2.125027 -0.533303
759.4765625 2.587157 2.023574 -0.563583
760.6015625 2.591312 2.054468 -0.536844
761.66015625 2.583012 2.029388 -0.553624
762.71484375 2.62487 1.930097 -0.694773
763.7109375 2.658676 1.944641 -0.714035
764.7421875 2.631535 1.984428 -0.647107
765.79296875 2.5466349999999998 2.187114 -0.359521
766.79296875 2.6720430000000004 2.058914 -0.613129
767.9375 2.604379 1.853717 -0.750662
769.09375 2.635829 1.925993 -0.709836
770.203125 2.568968 1.9 -0.668968
771.25390625 2.471213 1.77645 -0.694763
772.1484375 1.989093 1.504677 -0.484416
773.01171875 1.948958 1.454648 -0.49431
774.15234375 2.505904 1.871487 -0.634417
775.26171875 2.6418 1.861218 -0.780582
776.25390625 2.744161 1.999326 -0.744835
777.38671875 2.732914 2.188988 -0.543926
778.5078125 2.697391 2.163294 -0.534097
779.59375 2.62963 2.169254 -0.460376
780.6796875 2.621619 2.062812 -0.558807
781.72265625 2.7193059999999996 2.137148 -0.582158
782.7265625 2.69193 2.067371 -0.624559
783.7265625 2.708605 1.990002 -0.718603
784.671875 2.6038 2.024074 -0.579726
785.55078125 2.605346 1.916252 -0.689094
786.47265625 2.65199 1.999074 -0.652916
787.5703125 2.675552 2.029983 -0.645569
788.6875 2.731008 1.989948 -0.74106
789.7109375 2.5868189999999998 2.003897 -0.582922
790.73046875 2.727506 2.189868 -0.537638
791.85546875 2.660348 2.155594 -0.504754
793.0234375 2.698252 2.153719 -0.544533
794.09765625 2.627562 2.064874 -0.562688
795.1015625 2.5888729999999995 2.032567 -0.556306
796.0703125 2.744601 2.012333 -0.732268
797.05078125 2.646533 2.07882 -0.567713
798.15234375 2.636838 2.099864 -0.536974
799.1875 2.585408 2.076543 -0.508865
800.1953125 2.6185300000000002 2.119984 -0.498546
801.25 2.651812 2.185 -0.466812
802.30078125 2.78777 2.165841 -0.621929
803.2265625 2.60535 2.038364 -0.566986
804.140625 2.6844859999999997 2.14438 -0.540106
805.16015625 2.698289 2.150883 -0.547406
806.2265625 2.619379 2.279279 -0.3401
807.26171875 2.6537629999999996 2.072539 -0.581224
808.16796875 2.618163 1.930626 -0.687537
809.1015625 2.65975 1.934939 -0.724811
810.28125 2.775376 1.953914 -0.821462
811.3828125 2.7339089999999997 2.030989 -0.70292
812.31640625 2.628711 2.102232 -0.526479
813.26953125 2.7388369999999997 2.203213 -0.535624
814.2734375 2.707917 2.200889 -0.507028
815.23828125 2.6371589999999996 2.161599 -0.47556
816.23828125 2.587064 1.989479 -0.597585
817.2578125 2.71026 1.967997 -0.742263
818.2578125 2.772532 2.03907 -0.733462
819.28515625 2.7065539999999997 1.997253 -0.709301
820.24609375 2.623696 1.950838 -0.672858
821.19140625 2.7526140000000003 2.102888 -0.649726
822.203125 2.78348 2.074833 -0.708647
823.2265625 2.6962960000000002 1.979656 -0.71664
824.1875 2.655525 2.003067 -0.652458
825.109375 2.741587 2.166587 -0.575
826.06640625 2.720882 1.990615 -0.730267
827.078125 2.6859669999999998 1.914919 -0.771048
828.0859375 2.557144 2.044139 -0.513005
828.96875 2.451547 2.103714 -0.347833
829.92578125 2.608872 1.945649 -0.663223
831.109375 2.7422370000000003 1.792237 -0.95
832.21484375 2.666804 1.752464 -0.91434
833.203125 2.768776 1.944913 -0.823863
834.4140625 2.7875199999999998 2.049588 -0.737932
835.6484375 2.701283 2.071701 -0.629582
836.71484375 2.6380049999999997 1.963358 -0.674647
837.59765625 2.727684 2.007177 -0.720507
838.54296875 2.759674 2.102939 -0.656735
839.640625 2.73374 2.186457 -0.547283
840.8125 2.607401 2.059452 -0.547949
841.828125 2.599839 2.092996 -0.506843
842.859375 2.744314 2.189314 -0.555
843.94140625 2.6136860000000004 2.130879 -0.482807
844.9765625 2.625372 2.084359 -0.541013
846.1640625 2.664283 2.119114 -0.545169
847.30078125 2.654189 2.162274 -0.491915
848.390625 2.574113 2.062943 -0.51117
849.359375 2.631268 2.026268 -0.605
850.23828125 2.616698 2.058926 -0.557772
851.21875 2.615407 2.109094 -0.506313
852.4375 2.569105 1.977433 -0.591672
853.51171875 2.559256 1.983427 -0.575829
854.55859375 2.546021 1.959745 -0.586276
855.671875 2.572094 1.949634 -0.62246
856.76171875 2.534322 1.886315 -0.648007
857.85546875 2.509758 1.929758 -0.58
859.05078125 2.617401 1.828694 -0.788707
860.2109375 2.6326219999999996 2.02946 -0.603162
861.2734375 2.523041 2.158807 -0.364234
862.21875 2.582048 1.992334 -0.589714
863.16796875 2.6182760000000003 2.071527 -0.546749
864.2890625 2.6408440000000004 2.13886 -0.501984
865.3984375 2.6211539999999998 2.094573 -0.526581
866.43359375 2.6144249999999998 2.042408 -0.572017
867.375 2.590243 2.055 -0.535243
868.32421875 2.597089 2.05498 -0.542109
869.328125 2.481668 1.974262 -0.507406
870.4921875 2.623042 2.015721 -0.607321
871.4765625 2.3632440000000003 2.268187 -0.095057
872.40234375 2.334019 2.0465 -0.287519
873.48046875 2.256379 1.551379 -0.705
874.5390625 1.951164 1.26918 -0.681984
875.5234375 2.151579 1.422634 -0.728945
876.62890625 2.610215 1.913885 -0.69633
877.765625 2.748075 2.063478 -0.684597
878.7890625 2.7037 2.039816 -0.663884
879.69921875 2.650506 2.172255 -0.478251
880.68359375 2.713185 2.205925 -0.50726
881.7421875 2.738408 2.013787 -0.724621
882.75 2.66429 1.92 -0.74429
883.671875 2.7356819999999997 2.064088 -0.671594
884.6484375 2.7756600000000002 2.092182 -0.683478
885.65625 2.729841 2.106404 -0.623437
886.56640625 2.7110760000000003 2.04962 -0.661456
887.55859375 2.773475 2.099681 -0.673794
888.671875 2.6626830000000004 2.361635 -0.301048
889.71484375 2.766684 2.237409 -0.529275
890.64453125 2.6411059999999997 2.004723 -0.636383
891.59765625 2.744157 2.018487 -0.72567
892.5546875 2.74635 2.09161 -0.65474
893.49609375 2.654217 1.97238 -0.681837
894.4453125 2.699859 2.039984 -0.659875
895.4296875 2.790193 2.134639 -0.655554
896.390625 2.784847 2.134312 -0.650535
897.40625 2.717726 2.070849 -0.646877
898.27734375 2.7070950000000003 2.14 -0.567095
899.1328125 2.63862 2.123299 -0.515321
900.08203125 2.5593850000000002 2.498673 -0.060712
901.0390625 2.4808719999999997 2.204659 -0.276213
901.9375 2.477499 1.66602 -0.811479
902.96484375 2.694236 1.770231 -0.924005
904.0078125 2.701469 1.894817 -0.806652
904.9921875 2.682436 2.03869 -0.643746
905.99609375 2.661416 2.183234 -0.478182
907.08203125 2.775648 2.242425 -0.533223
908.1484375 2.779667 2.250226 -0.529441
909.25 2.682827 2.2 -0.482827
910.2109375 2.6506680000000005 2.074584 -0.576084
911.09375 2.66081 2.107829 -0.552981
912.1875 2.65537 2.14872 -0.50665
913.375 2.6880699999999997 2.135 -0.55307
914.4140625 2.6356900000000003 2.058806 -0.576884
915.41015625 2.702414 2.147224 -0.55519
916.5 2.725861 2.145 -0.580861
917.54296875 2.7517009999999997 1.967727 -0.783974
918.51953125 2.6855510000000002 1.981834 -0.703717
919.55859375 2.681055 2.078326 -0.602729
920.640625 2.694098 2.080117 -0.613981
921.5859375 2.649939 1.989831 -0.660108
922.44921875 2.716869 2.116869 -0.6
923.3515625 2.664815 2.098269 -0.566546
924.3984375 2.6691320000000003 2.107415 -0.561717
925.296875 2.639508 2.032979 -0.606529
926.203125 2.755963 2.127113 -0.62885
927.3828125 2.6709490000000002 2.237127 -0.433822
928.50390625 2.685752 1.930985 -0.754767
929.515625 2.565207 1.822707 -0.7425
930.67578125 2.7065989999999998 1.84904 -0.857559
931.74609375 2.758657 1.891237 -0.86742
932.65625 2.632802 1.886268 -0.746534
933.51171875 2.8100560000000003 2.141693 -0.668363
934.44140625 2.660136 2.128965 -0.531171
935.4453125 2.76547 2.103117 -0.662353
936.43359375 2.657998 2.037445 -0.620553
937.4609375 2.73674 2.076991 -0.659749
938.51953125 2.7000260000000003 2.079768 -0.620258
939.515625 2.58529 2.035134 -0.550156
940.4140625 2.683995 2.069912 -0.614083
941.37890625 2.661671 2.059405 -0.602266
942.515625 2.688165 2.04728 -0.640885
943.578125 2.658625 2.019933 -0.638692
944.48046875 2.554783 1.989783 -0.565
945.35546875 2.643674 2.05992 -0.583754
946.26171875 2.690016 2.040373 -0.649643
947.1875 2.5352170000000003 1.968711 -0.566506
948.140625 2.558337 1.982779 -0.575558
949.12890625 2.627268 1.997317 -0.629951
950.09765625 2.635634 1.953652 -0.681982
951.16015625 2.521153 1.815969 -0.705184
952.1015625 2.5879130000000004 1.888543 -0.69937
953.03515625 2.61604 1.853686 -0.762354
954.171875 2.572439 1.877843 -0.694596
955.2734375 2.46637 1.782061 -0.684309
956.20703125 2.558986 1.880524 -0.678462
957.1171875 2.568035 1.862104 -0.705931
958.0234375 2.418107 1.752456 -0.665651
958.9609375 2.413409 1.72848 -0.684929
959.921875 2.4168060000000002 1.761768 -0.655038
960.87890625 2.536508 1.906733 -0.629775
961.88671875 2.560059 1.927676 -0.632383
962.99609375 2.513177 1.902435 -0.610742
963.93359375 2.47223 1.854322 -0.617908
964.8203125 2.503971 1.857973 -0.645998
965.921875 2.4863790000000003 1.868262 -0.618117
966.91796875 2.572551 1.808722 -0.763829
967.7578125 2.479673 1.749673 -0.73
968.640625 2.447495 1.821122 -0.626373
969.67578125 2.593371 1.876259 -0.717112
970.68359375 2.5151399999999997 1.837675 -0.677465
971.64453125 2.515113 1.874945 -0.640168
972.7734375 2.490771 1.871893 -0.618878
973.84765625 2.473595 1.876193 -0.597402
974.81640625 2.306138 1.692466 -0.613672
975.67578125 1.944088 1.40124 -0.542848
976.53125 1.845088 1.368951 -0.476137
977.57421875 2.230661 1.678591 -0.55207
978.765625 2.5395209999999997 1.786314 -0.753207
979.81640625 2.473515 1.848754 -0.624761
980.87109375 2.55497 1.932112 -0.622858
981.90234375 2.562162 1.79583 -0.766332
982.8125 2.519318 1.830688 -0.68863
983.7265625 2.438533 1.804683 -0.63385
984.640625 2.52803 1.879637 -0.648393
985.5234375 2.5332310000000002 1.901523 -0.631708
986.37890625 2.521279 1.798358 -0.722921
987.19921875 2.449944 1.824957 -0.624987
987.94921875 2.4656789999999997 1.839221 -0.626458
988.65625 2.60356 1.843208 -0.760352
989.484375 2.541816 1.716816 -0.825
990.44921875 2.5171729999999997 1.68315 -0.834023
991.58984375 2.499736 1.766561 -0.733175
992.65625 2.5032579999999998 1.852107 -0.651151
993.7578125 2.554974 1.946621 -0.608353
994.875 2.582901 1.985 -0.597901
995.9921875 2.567615 2.065124 -0.502491
997.17578125 2.591603 2.0602 -0.531403
998.2890625 2.61401 2.154603 -0.459407
999.38671875 2.627053 2.033132 -0.593921
1000.37109375 2.628577 2.012622 -0.615955
1001.46484375 2.5631589999999997 2.048714 -0.514445
1002.5859375 2.625854 2.069957 -0.555897
1003.6171875 2.547661 2.007661 -0.54
1004.5546875 2.513674 1.947138 -0.566536
1005.44140625 2.530557 1.983659 -0.546898
1006.39453125 2.5229679999999997 1.950864 -0.572104
1007.4453125 2.5850049999999998 1.924383 -0.660622
1008.578125 2.572395 1.802113 -0.770282
1009.62890625 2.589885 1.955 -0.634885
1010.609375 2.55099 2.0775 -0.47349
1011.69140625 2.470734 2.042466 -0.428268
1012.65234375 2.645065 2.19316 -0.451905
1013.63671875 2.477026 1.883631 -0.593395
1014.4765625 2.5181959999999997 1.846472 -0.671724
1015.265625 2.566441 1.89987 -0.666571
1016.09765625 2.517477 1.914873 -0.602604
1017.05078125 2.624715 2.036852 -0.587863
1017.81640625 2.5491770000000002 1.867865 -0.681312
1018.5625 2.5643920000000002 1.865088 -0.699304
1019.39453125 2.530603 1.90635 -0.624253
1020.765625 2.55143 2.076761 -0.474669
1021.94921875 2.443365 1.981927 -0.461438
1023.1484375 2.5901520000000002 2.121074 -0.469078
1024.30859375 2.5718140000000003 2.11804 -0.453774
1025.43359375 2.5285710000000003 2.007502 -0.521069
1026.63671875 2.534443 1.917315 -0.617128
1027.71875 2.547996 1.949119 -0.598877
1028.80859375 2.568994 1.98963 -0.579364
1029.90234375 2.561546 1.921707 -0.639839
1031.00390625 2.490383 1.84926 -0.641123
1032.16015625 2.558118 1.868857 -0.689261
1033.234375 2.514663 1.894663 -0.62
1034.35546875 2.574035 1.974983 -0.599052
1035.45703125 2.7473859999999997 1.646771 -1.100615
1036.5078125 2.601257 1.890911 -0.710346
1037.5625 2.6735290000000003 2.271132 -0.402397
1038.734375 2.634383 2.279383 -0.355
1039.84375 2.690042 2.140621 -0.549421
1040.87109375 2.6435449999999996 2.038318 -0.605227
1041.8125 2.443902 1.940465 -0.503437
1042.71875 2.6456809999999997 2.083414 -0.562267
1043.83984375 2.557901 2.047755 -0.510146
1044.96875 2.548651 1.948262 -0.600389
1045.890625 2.5275 1.876868 -0.650632
1046.93359375 2.664364 1.728963 -0.935401
1048.0625 2.7202 1.973269 -0.746931
1049.12109375 2.57712 2.163723 -0.413397
1050.0859375 2.4574909999999996 2.049908 -0.407583
1051.05078125 2.549775 2.076626 -0.473149
1052.03125 2.572414 2.005796 -0.566618
1053.07421875 2.542917 1.765437 -0.77748
1054.05078125 2.471731 1.737051 -0.73468
1055.02734375 2.546669 2.0144 -0.532269
1056.2421875 2.504808 2.032861 -0.471947
1057.33203125 2.492483 1.913948 -0.578535
1058.31640625 2.285504 1.693372 -0.592132
1059.3046875 2.497343 1.849494 -0.647849
1060.359375 2.394295 1.724295 -0.67
1061.42578125 2.262978 1.649149 -0.613829
1062.5234375 2.392919 1.723122 -0.669797
1063.58984375 2.4896399999999996 1.760811 -0.728829
1064.66015625 2.443233 1.764146 -0.679087
1065.76171875 2.5156359999999998 1.917543 -0.598093
1066.7421875 2.4448790000000002 1.80704 -0.637839
1067.765625 2.443495 1.728495 -0.715
1068.859375 2.496039 1.726039 -0.77
1069.94921875 2.5022919999999997 1.736935 -0.765357
1070.98046875 2.3687840000000002 1.613784 -0.755
1071.9609375 2.467162 1.702183 -0.764979
1072.96875 2.484226 1.758121 -0.726105
1074.0625 2.433072 1.729679 -0.703393
1075.06640625 2.404679 1.693069 -0.71161
1075.98046875 2.429832 1.764832 -0.665
1077.078125 2.236185 1.734913 -0.501272
1078.14453125 1.7679690000000001 1.369798 -0.398171
1079.11328125 1.868662 1.326995 -0.541667
1080.17578125 2.47195 1.766995 -0.704955
1081.2109375 2.49878 1.828944 -0.669836
1082.30078125 2.5117380000000002 1.852357 -0.659381
1083.2890625 2.494466 1.879132 -0.615334
1084.2421875 2.543825 1.962179 -0.581646
1085.27734375 2.4558280000000003 1.820205 -0.635623
1086.4375 2.50451 1.776063 -0.728447
1087.4609375 2.477639 1.692696 -0.784943
1088.3203125 2.540853 1.772884 -0.767969
1089.31640625 2.592729 1.811729 -0.781
1090.34765625 2.549917 1.828324 -0.721593
1091.3671875 2.467107 1.805 -0.662107
1092.46875 2.493099 1.824837 -0.668262
1093.55078125 2.4936220000000002 1.849626 -0.643996
1094.57421875 2.460274 1.828306 -0.631968
1095.4453125 2.571014 1.85725 -0.713764
1096.36328125 2.511205 1.837356 -0.673849
1097.3515625 2.5628159999999998 1.865634 -0.697182
1098.50390625 2.562049 1.827202 -0.734847
1099.4765625 2.569586 1.852605 -0.716981
1100.5 2.5344320000000002 1.87 -0.664432
1101.59765625 2.611566 1.953447 -0.658119
1102.59765625 2.4528309999999998 1.769288 -0.683543
1103.59375 2.501685 1.877151 -0.624534
1104.640625 2.56783 1.965657 -0.602173
1105.69921875 2.5683499999999997 2.015694 -0.552656
1106.64453125 2.5445 1.919932 -0.624568
1107.49609375 2.5826670000000003 1.948959 -0.633708
1108.45703125 2.656438 2.028493 -0.627945
1109.55078125 2.625417 2.056197 -0.56922
1110.66796875 2.537816 1.993483 -0.544333
1111.67578125 2.63565 2.050607 -0.585043
1112.70703125 2.5721249999999998 2.043869 -0.528256
1113.73046875 2.564711 1.9898 -0.574911
1114.6328125 2.481538 1.895055 -0.586483
1115.6953125 2.5843409999999998 2.014159 -0.570182
1116.8203125 2.597779 2.01516 -0.582619
1117.8671875 2.587125 2.051351 -0.535774
1118.8515625 2.577783 2.059772 -0.518011
1119.90625 2.597499 2.025969 -0.57153
1120.9140625 2.6053179999999996 2.041679 -0.563639
1121.98828125 2.543705 1.967469 -0.576236
1123.0234375 2.6449659999999997 2.025638 -0.619328
1124.0546875 2.652176 2.065911 -0.586265
1125.11328125 2.511454 1.986825 -0.524629
1126.09765625 2.532035 1.935356 -0.596679
1126.97265625 2.654376 2.070014 -0.584362
1128.0078125 2.614084 2.038652 -0.575432
1129.14453125 2.526355 1.963568 -0.562787
1130.28125 2.603073 2.042717 -0.560356
1131.3359375 2.6163119999999997 2.023827 -0.592485
1132.421875 2.662304 2.061447 -0.600857
1133.5078125 2.601673 2.02 -0.581673
1134.66796875 2.592981 2.064603 -0.528378
1135.78125 2.604581 2.02527 -0.579311
1136.890625 2.483295 1.814851 -0.668444
1137.87109375 2.593839 1.843205 -0.750634
1138.828125 2.607457 1.91492 -0.692537
1139.97265625 2.5839179999999997 1.884054 -0.699864
1140.99609375 2.549602 1.914209 -0.635393
1142.00390625 2.64611 1.950192 -0.695918
1142.97265625 2.587395 1.904873 -0.682522
1143.9296875 2.518397 1.788586 -0.729811
1144.74609375 2.582137 1.908453 -0.673684
1145.76171875 2.624632 1.969318 -0.655314
1146.8515625 2.649036 1.950476 -0.69856
1147.87109375 2.579261 1.876673 -0.702588
1148.78515625 2.660242 1.930565 -0.729677
1149.734375 2.6383010000000002 1.858301 -0.78
1150.66796875 2.6371890000000002 1.882635 -0.754554
1151.6015625 2.4945180000000002 1.778605 -0.715913
1152.4765625 2.57593 1.869624 -0.706306
1153.328125 2.640223 1.94168 -0.698543
1154.16796875 2.587407 1.907193 -0.680214
1155.02734375 2.580105 1.858587 -0.721518
1155.80859375 2.6691190000000002 1.919755 -0.749364
1156.62890625 2.7964339999999996 2.04689 -0.749544
1157.578125 2.6002520000000002 2.02623 -0.574022
1158.62890625 2.685332 2.06943 -0.615902
1159.53515625 2.4789440000000003 1.938461 -0.540483
1160.39453125 2.618483 2.144951 -0.473532
1161.328125 2.630988 2.146171 -0.484817
1162.3125 2.612121 2.077308 -0.534813
1163.1640625 2.428227 1.879714 -0.548513
1164.0390625 2.518322 1.974796 -0.543526
1164.9453125 2.6483280000000002 1.836707 -0.811621
1165.86328125 2.704803 1.865886 -0.838917
1166.67578125 2.567938 1.893835 -0.674103
1167.484375 2.628636 2.077426 -0.55121
1168.38671875 2.720568 2.117539 -0.603029
1169.4453125 2.673088 2.038193 -0.634895
1170.5234375 2.720437 2.051235 -0.669202
1171.6328125 2.621464 2.167964 -0.4535
1172.70703125 2.646448 2.155013 -0.491435
1173.6953125 2.656231 2.161596 -0.494635
1174.75 2.63721 2.085 -0.55221
1175.92578125 2.5848430000000002 2.026076 -0.558767
1176.96875 2.5737300000000003 1.901833 -0.671897
1177.98046875 2.580024 1.93985 -0.640174
1179.078125 2.3541339999999997 1.798072 -0.556062
1180.07421875 1.891703 1.511742 -0.379961
1181.08203125 1.9014689999999999 1.497356 -0.404113
1182.21484375 2.525418 1.950134 -0.575284
1183.26953125 2.425661 1.839958 -0.585703
1184.25390625 2.6923399999999997 2.037518 -0.654822
1185.2890625 2.616427 2.01896 -0.597467
1186.31640625 2.5052380000000003 1.953122 -0.552116
1187.22265625 2.619675 2.04 -0.579675
1188.23828125 2.587124 2.039132 -0.547992
1189.44140625 2.657575 2.089407 -0.568168
1190.5703125 2.644492 2.027698 -0.616794
1191.67578125 2.709091 2.096782 -0.612309
1192.72265625 2.6253900000000003 1.998347 -0.627043
1193.9140625 2.7206340000000004 2.042708 -0.677926
1195.078125 2.6142250000000002 2.038659 -0.575566
1196.15234375 2.622141 2.055813 -0.566328
1197.28515625 2.633104 1.93075 -0.702354
1198.41796875 2.561016 1.843138 -0.717878
1199.5078125 2.71356 2.089694 -0.623866
1200.75390625 2.622171 1.954088 -0.668083
1201.83984375 2.726177 1.97648 -0.749697
1202.84765625 2.696636 1.928988 -0.767648
1203.94921875 2.638701 1.880139 -0.758562
1205.046875 2.6536239999999998 1.918822 -0.734802
1206.140625 2.714162 1.987108 -0.727054
1207.22265625 2.699611 2.072961 -0.62665
1208.25390625 2.733937 2.004184 -0.729753
1209.2109375 2.785584 2.075 -0.710584
1210.2734375 2.8330699999999998 2.118734 -0.714336
1211.359375 2.6526750000000003 2.017675 -0.635
1212.421875 2.739066 2.135096 -0.60397
1213.4375 2.841019 2.159684 -0.681335
1214.44140625 2.705564 2.094042 -0.611522
1215.47265625 2.7467750000000004 2.151775 -0.595
1216.46875 2.716317 2.165781 -0.550536
1217.58984375 2.719868 2.108618 -0.61125
1218.62109375 2.639183 2.044183 -0.595
1219.62109375 2.764204 2.174482 -0.589722
1220.5546875 2.766603 2.211664 -0.554939
1221.4921875 2.720611 2.04213 -0.678481
1222.36328125 2.668084 2.045115 -0.622969
1223.3515625 2.735286 2.198063 -0.537223
1224.55078125 2.698789 2.197146 -0.501643
1225.66796875 2.6032279999999997 2.145037 -0.458191
1226.69921875 2.701983 2.271696 -0.430287
1227.70703125 2.673553 2.172419 -0.501134
1228.59765625 2.66751 2.113777 -0.553733
1229.4921875 2.7328639999999997 2.179426 -0.553438
1230.4296875 2.622248 2.037823 -0.584425
1231.3828125 2.668282 2.026949 -0.641333
1232.20703125 2.579943 1.9171 -0.662843
1233.046875 2.682737 2.008343 -0.674394
1233.94921875 2.649208 2.060539 -0.588669
1234.90625 2.683246 2.037866 -0.64538
1235.89453125 2.618365 1.94358 -0.674785
1236.8203125 2.73183 2.063358 -0.668472
1237.75 2.674722 1.985 -0.689722
1238.6796875 2.738144 1.953878 -0.784266
1239.56640625 2.605553 1.898666 -0.706887
1240.39453125 2.653432 2.014738 -0.638694
1241.2734375 2.655813 2.065 -0.590813
1242.25390625 2.717742 2.102922 -0.61482
1243.12109375 2.557285 1.960052 -0.597233
1243.8828125 2.482087 1.829207 -0.65288
1244.6484375 2.60507 1.978337 -0.626733
1245.4375 2.653828 1.96 -0.693828
1246.56640625 2.646284 2.058517 -0.587767
1247.71484375 2.4109049999999996 1.811168 -0.599737
1248.76171875 2.616543 2.002607 -0.613936
1249.80859375 2.543519 1.961518 -0.582001
1250.828125 2.531679 1.887321 -0.644358
1251.73046875 2.172402 1.619891 -0.552511
1252.53125 2.430787 1.798914 -0.631873
1253.4296875 2.543312 1.879878 -0.663434
1254.62890625 2.585994 1.966177 -0.619817
1255.703125 2.554846 1.915658 -0.639188
1256.54296875 2.450729 1.77634 -0.674389
1257.37890625 2.675396 1.840444 -0.834952
1258.3125 2.7552119999999998 1.913841 -0.841371
1259.34765625 2.629247 2.12235 -0.506897
1260.47265625 2.498606 2.003882 -0.494724
1261.484375 2.546401 2.115341 -0.43106
1262.421875 2.549322 2.066875 -0.482447
1263.4609375 2.50997 1.949855 -0.560115
1264.48046875 2.473223 1.874942 -0.598281
1265.33203125 2.445629 1.926996 -0.518633
1266.2109375 2.469131 1.904202 -0.564929
1267.16796875 2.561331 1.952027 -0.609304
1268.16015625 2.582812 2.030916 -0.551896
1269.17578125 2.555788 1.976882 -0.578906
1269.66015625 2.446554 1.886093 -0.560461
1270.60546875 2.580769 1.999953 -0.580816
1271.625 2.624658 2.005 -0.619658
1272.63671875 2.567489 1.903427 -0.664062
1273.53515625 2.5180379999999998 1.941469 -0.576569
1274.42578125 2.575298 1.920484 -0.654814
1275.39453125 2.655818 2.01973 -0.636088
1276.30859375 2.5105370000000002 1.871715 -0.638822
1277.12890625 2.557293 1.892367 -0.664926
1278.03515625 2.591293 2.003672 -0.587621
1278.9921875 2.5456149999999997 1.923327 -0.622288
1279.984375 2.550849 1.920849 -0.63
1280.91796875 2.3943339999999997 1.851718 -0.542616
1281.86328125 1.9720749999999998 1.578968 -0.393107
1282.87109375 1.9002059999999998 1.514354 -0.385852
1283.9765625 2.232653 1.738232 -0.494421
1284.94921875 2.551546 1.908462 -0.643084
1285.9609375 2.658768 2.019799 -0.638969
1287.05078125 2.694647 2.065334 -0.629313
1288.1171875 2.571192 2.069819 -0.501373
1289.125 2.512557 2.04 -0.472557
1290.33203125 2.5592639999999998 2.026725 -0.532539
1291.44921875 2.515117 1.860902 -0.654215
1292.4609375 2.571894 1.939409 -0.632485
1293.5234375 2.587755 1.941793 -0.645962
1294.5859375 2.625538 1.924527 -0.701011
1295.6640625 2.647101 1.954328 -0.692773
1296.8203125 2.659556 2.054435 -0.605121
1297.9140625 2.631372 2.019543 -0.611829
1298.90234375 2.627345 2.095587 -0.531758
1299.97265625 2.722619 2.176854 -0.545765
1301.046875 2.619982 2.090804 -0.529178
1302.1015625 2.632764 2.089286 -0.543478
1303.2265625 2.6862470000000003 2.142977 -0.54327
1304.34375 2.678543 2.114572 -0.563971
1305.30859375 2.601313 1.991182 -0.610131
1306.171875 2.641711 2.043354 -0.598357
1307.26171875 2.66139 2.09889 -0.5625
1308.4921875 2.744038 2.159819 -0.584219
1309.5078125 2.6325770000000004 2.024408 -0.608169
1310.35546875 2.6598319999999998 2.074832 -0.585
1311.3046875 2.7558599999999998 2.130594 -0.625266
1312.3125 2.8066120000000003 2.127632 -0.67898
1313.33203125 2.618222 2.034776 -0.583446
1314.36328125 2.7239630000000004 2.118205 -0.605758
1315.41015625 2.773856 2.092237 -0.681619
1316.46484375 2.8168729999999997 2.148103 -0.66877
1317.4140625 2.580888 1.967768 -0.61312
1318.3125 2.6640639999999998 1.989565 -0.674499
1319.27734375 2.6639839999999997 2.004113 -0.659871
1320.328125 2.699827 1.972718 -0.727109
1321.3046875 2.648962 1.958645 -0.690317
1322.32421875 2.7457000000000003 2.057017 -0.688683
1323.3671875 2.775037 2.085097 -0.68994
1324.32421875 2.687082 2.039445 -0.647637
1325.171875 2.736967 2.136524 -0.600443
1326.19921875 2.707812 2.066093 -0.641719
1327.2421875 2.688085 1.994102 -0.693983
1328.171875 2.68159 1.991732 -0.689858
1329.07421875 2.77724 2.120725 -0.656515
1330.0390625 2.7584239999999998 2.144936 -0.613488
1331.09765625 2.751675 2.093452 -0.658223
1332.1875 2.647735 1.994983 -0.652752
1333.21875 2.765112 2.167074 -0.598038
1334.23828125 2.7026640000000004 2.152296 -0.550368
1335.2734375 2.7375119999999997 2.172996 -0.564516
1336.25 2.671695 2.1 -0.571695
1336.7109375 0.9427840000000001 0.683717 -0.259067
1337.8203125 2.7662 2.168597 -0.597603
1338.984375 2.73106 2.14106 -0.59
1340.01953125 2.63915 2.084977 -0.554173
1340.95703125 2.7083909999999998 2.209945 -0.498446
1342.0234375 2.805756 2.266591 -0.539165
1343.06640625 2.620659 2.123914 -0.496745
1344.05078125 2.820496 2.21665 -0.603846
1345.09765625 2.705021 2.176021 -0.529
1346.03125 2.6838670000000002 2.204336 -0.479531
1346.98046875 2.676955 2.100872 -0.576083
1347.82421875 2.620829 2.038333 -0.582496
1348.6640625 2.685335 2.114887 -0.570448
1349.671875 2.648606 2.123311 -0.525295
1350.68359375 2.583001 1.996948 -0.586053
1351.5546875 2.6018310000000002 2.063918 -0.537913
1352.44140625 2.6626070000000004 2.131349 -0.531258
1353.359375 2.6773689999999997 2.102369 -0.575
1354.25 2.709217 2.115 -0.594217
1355.04296875 2.5554509999999997 1.983701 -0.57175
1355.9375 2.557518 2.015 -0.542518
1356.8984375 2.707713 2.048734 -0.658979
1357.7109375 2.494275 1.861725 -0.63255
1358.484375 2.6419639999999998 1.951964 -0.69
1359.38671875 2.613608 1.955765 -0.657843
1360.453125 2.623217 2.059833 -0.563384
1361.52734375 2.550948 1.966192 -0.584756
1362.5 2.632332 2.005 -0.627332
1363.58203125 2.629961 2.005571 -0.62439
1364.65625 2.5961220000000003 1.943178 -0.652944
1365.5859375 2.517337 1.863925 -0.653412
1366.49609375 2.5825880000000003 1.85 -0.732588
1367.4921875 2.459958 1.881662 -0.578296
1368.5625 2.459422 1.861804 -0.597618
1369.4921875 2.6006 1.969764 -0.630836
1370.48828125 2.50988 1.941812 -0.568068
1371.49609375 2.491928 1.899864 -0.592064
1372.44140625 2.518808 1.898869 -0.619939
1373.4375 2.547231 1.864918 -0.682313
1374.5 2.547993 1.805 -0.742993
1375.484375 2.684171 1.914171 -0.77
1376.41796875 2.487546 1.881608 -0.605938
1377.3671875 2.496111 1.926109 -0.570002
1378.26171875 2.48893 1.879143 -0.609787
1379.13671875 2.639557 2.067057 -0.5725
1380.22265625 2.555028 2.045847 -0.509181
1381.203125 2.430662 1.88165 -0.549012
1382.10546875 2.589718 2.024718 -0.565
1383.14453125 2.515871 1.984023 -0.531848
1384.1328125 1.960398 1.514338 -0.44606
1385.04296875 1.9366530000000002 1.526966 -0.409687
1386.13671875 2.229149 1.755612 -0.473537
1387.234375 2.607157 2.002157 -0.605
1388.2265625 2.448602 1.911887 -0.536715
1389.19921875 2.59431 2.018663 -0.575647
1390.19140625 2.584085 2.00985 -0.574235
1391.12109375 2.434932 1.856807 -0.578125
1392.1875 2.605945 1.939215 -0.66673
1393.25390625 2.504406 1.938906 -0.5655
1394.26953125 2.548348 1.924854 -0.623494
1395.20703125 2.504476 1.873872 -0.630604
1396.1953125 2.624086 1.958417 -0.665669
1397.18359375 2.492502 1.873998 -0.618504
1398.15625 2.564217 1.876674 -0.687543
1399.14453125 2.6392510000000002 1.93497 -0.704281
1400.1484375 2.5406709999999997 1.826199 -0.714472
1401.140625 2.554191 1.857353 -0.696838
1402.16015625 2.498137 1.872551 -0.625586
1403.19921875 2.535274 1.868169 -0.667105
1404.24609375 2.456038 1.772876 -0.683162
1405.2578125 2.563758 1.963242 -0.600516
1406.3046875 2.546192 1.918966 -0.627226
1407.27734375 2.473989 1.827869 -0.64612
1408.203125 2.582879 1.963821 -0.619058
1409.2109375 2.619812 2.009242 -0.61057
1410.33203125 2.477973 1.897699 -0.580274
1411.3515625 2.576432 2.067643 -0.508789
1412.359375 2.684048 2.129048 -0.555
1413.40234375 2.5581869999999998 2.073187 -0.485
1414.3359375 2.651706 2.109933 -0.541773
1415.30859375 2.6024969999999996 2.129018 -0.473479
1416.38671875 2.547389 2.160562 -0.386827
1417.39453125 2.556529 2.124865 -0.431664
1418.44140625 2.526106 1.942396 -0.58371
1419.40625 2.631292 1.984167 -0.647125
1420.44921875 2.5945549999999997 2.061899 -0.532656
1421.55078125 2.524732 2.014155 -0.510577
1422.5546875 2.560741 2.046983 -0.513758
1423.5390625 2.661248 2.154132 -0.507116
1424.55859375 2.64473 2.153461 -0.491269
1425.51171875 2.59334 2.020185 -0.573155
1426.34765625 2.5973640000000002 2.052782 -0.544582
1427.32421875 2.6049059999999997 2.103172 -0.501734
1428.515625 2.628818 2.013282 -0.615536
1429.45703125 2.546792 1.907616 -0.639176
1430.3515625 2.6283649999999996 2.006264 -0.622101
1431.30859375 2.661194 2.02 -0.641194
1432.30859375 2.601955 1.939396 -0.662559
1433.1171875 2.51338 1.840368 -0.673012
1433.98828125 2.663399 1.968761 -0.694638
1434.93359375 2.67856 1.993345 -0.685215
1435.85546875 2.604242 1.899989 -0.704253
1436.6953125 2.637363 1.878288 -0.759075
1437.64453125 2.645551 1.974356 -0.671195
1438.6015625 2.6683470000000002 1.937615 -0.730732
1439.58984375 2.521481 1.892384 -0.629097
1440.5703125 2.577931 2.003758 -0.574173
1441.5546875 2.548395 2.033939 -0.514456
1442.45703125 2.535706 1.932705 -0.603001
1443.30078125 2.657202 2.007614 -0.649588
1444.26171875 2.599029 2.007259 -0.59177
1445.16796875 2.4995950000000002 1.888109 -0.611486
1446.1796875 2.546281 1.91721 -0.629071
1447.16015625 2.60521 1.92002 -0.68519
1448.1328125 2.539641 1.833978 -0.705663
1449.015625 2.5217330000000002 1.805948 -0.715785
1449.8203125 2.60265 1.91226 -0.69039
1450.59375 2.540857 1.922405 -0.618452
1451.49609375 2.462602 1.791312 -0.67129
1452.390625 2.528031 1.909851 -0.61818
1453.40234375 2.591228 2.023311 -0.567917
1454.45703125 2.61904 1.996486 -0.622554
1455.40234375 2.462584 1.858099 -0.604485
1456.26953125 2.565106 1.908448 -0.656658
1457.22265625 2.580364 1.962842 -0.617522
1458.3203125 2.564648 1.906555 -0.658093
1459.3046875 2.448765 1.80357 -0.645195
1460.203125 2.5940209999999997 1.969639 -0.624382
1461.1171875 2.635783 1.976607 -0.659176
1461.99609375 2.5304599999999997 1.920364 -0.610096
1462.7734375 2.436848 1.869759 -0.567089
1463.6796875 2.60147 2.042771 -0.558699
1464.6171875 2.5396650000000003 2.033039 -0.506626
1465.578125 2.549712 2.010246 -0.539466
1466.390625 2.340179 1.884902 -0.455277
1467.171875 2.499573 1.995927 -0.503646
1467.90234375 2.524036 1.930438 -0.593598
1468.58203125 2.531751 1.966313 -0.565438
1469.25390625 2.455478 1.815581 -0.639897
1470.01953125 2.504564 1.909919 -0.594645
1471.2890625 2.563069 2.039461 -0.523608
1472.36328125 2.459236 1.972229 -0.487007
1473.30078125 2.513754 1.96641 -0.547344
1474.32421875 2.62101 2.086412 -0.534598
1475.41796875 2.5353410000000003 2.059743 -0.475598
1476.51171875 2.448566 1.963566 -0.485
1477.453125 2.6278770000000002 2.061847 -0.56603
1478.41796875 2.653263 2.069791 -0.583472
1479.41796875 2.597172 2.059323 -0.537849
1480.4296875 2.538713 1.954425 -0.584288
1481.52734375 2.644457 2.096709 -0.547748
1482.703125 2.650538 2.092209 -0.558329
1483.78515625 2.530844 2.01219 -0.518654
1484.828125 2.648497 2.038046 -0.610451
1485.859375 2.489084 1.889084 -0.6
1486.87890625 1.814903 1.434389 -0.380514
1487.87890625 1.911722 1.535304 -0.376418
1488.92578125 2.4564839999999997 1.89312 -0.563364
1489.9765625 2.693657 2.041615 -0.652042
1491.07421875 2.536359 1.953649 -0.58271
1492.08203125 2.702958 2.040789 -0.662169
1493.078125 2.612975 1.939288 -0.673687
1494.140625 2.5340119999999997 1.879775 -0.654237
1495.05859375 2.608268 1.938372 -0.669896
1495.98828125 2.662181 1.982181 -0.68
1497.01953125 2.63487 2.044924 -0.589946
1498.0234375 2.542276 1.938791 -0.603485
1498.984375 2.624323 2.079323 -0.545
1500.15625 2.611263 2.049462 -0.561801
1501.21484375 2.5672319999999997 1.957379 -0.609853
1502.19140625 2.601133 1.976433 -0.6247
1503.18359375 2.656784 2.018079 -0.638705
1504.0625 2.551525 1.8855 -0.666025
1504.84765625 2.662609 1.986519 -0.67609
1505.85546875 2.649954 1.979954 -0.67
1506.921875 2.6392539999999998 1.974419 -0.664835
1507.78515625 2.618428 1.930198 -0.68823
1508.625 2.658972 2.01 -0.648972
1509.55078125 2.682335 2.044546 -0.637789
1510.52734375 2.546211 1.904257 -0.641954
1511.39453125 2.613289 1.979795 -0.633494
1512.39453125 2.659134 2.059943 -0.599191
1513.421875 2.635826 2.03897 -0.596856
1514.2578125 2.484008 1.888921 -0.595087
1515.078125 2.673098 2.043338 -0.62976
1515.9765625 2.704108 2.04416 -0.659948
1517.05078125 2.575287 2.060087 -0.5152
1518.203125 2.613772 2.089842 -0.52393
1519.31640625 2.592008 2.148973 -0.443035
1520.38671875 2.583014 2.128965 -0.454049
1521.36328125 2.6679209999999998 2.147004 -0.520917
1522.375 2.6008950000000004 2.035 -0.565895
1523.40625 2.62687 2.062144 -0.564726
1524.55078125 2.655791 2.086757 -0.569034
1525.5703125 2.5760449999999997 1.936872 -0.639173
1526.46875 2.626828 2.005307 -0.621521
1527.46875 2.673927 2.0 -0.673927
1528.48046875 2.4383 1.8383 -0.6
1529.49609375 2.6232680000000004 2.02694 -0.596328
1530.6015625 2.615669 2.025534 -0.590135
1531.58203125 2.526875 1.904245 -0.62263
1532.42578125 2.6685969999999997 2.06728 -0.601317
1533.3359375 2.701166 2.101166 -0.6
1534.3203125 2.717245 2.059934 -0.657311
1535.1953125 2.5438650000000003 1.940523 -0.603342
1536.13671875 2.754916 2.12718 -0.627736
1537.27734375 2.671045 2.179594 -0.491451
1538.37890625 2.6762460000000003 2.111667 -0.564579
1539.4453125 2.75733 2.240189 -0.517141
1540.5078125 2.696575 2.251983 -0.444592
1541.578125 2.662915 2.228295 -0.43462
1542.62109375 2.614717 2.137877 -0.47684
1543.6328125 2.6160259999999997 2.090074 -0.525952
1544.55859375 2.595334 1.964856 -0.630478
1545.43359375 2.71033 2.034559 -0.675771
1546.2890625 2.706669 2.014584 -0.692085
1547.109375 2.645507 1.950507 -0.695
1548.00390625 2.726946 2.057175 -0.669771
1548.92578125 2.792368 2.169807 -0.622561
1549.8671875 2.7105550000000003 2.087823 -0.622732
1550.73046875 2.639857 2.004857 -0.635
1551.63671875 2.744539 2.079753 -0.664786
1552.64453125 2.699553 2.11934 -0.580213
1553.58203125 2.616166 2.029827 -0.586339
1554.48046875 2.7138030000000004 2.124957 -0.588846
1555.4375 2.708708 2.026165 -0.682543
1556.30859375 2.7273490000000002 2.022952 -0.704397
1557.1484375 2.699744 2.062003 -0.637741
1558.25390625 2.7028149999999997 2.109673 -0.593142
1559.33984375 2.621834 2.049164 -0.57267
1560.38671875 2.654818 2.204492 -0.450326
1561.38671875 2.5978570000000003 2.017275 -0.580582
1562.38671875 2.599928 1.863654 -0.736274
1563.2890625 2.5910830000000002 1.884625 -0.706458
1564.26171875 2.613765 1.960523 -0.653242
1565.22265625 2.614713 2.127732 -0.486981
1566.1328125 2.521847 2.080514 -0.441333
1567.046875 2.509959 1.892459 -0.6175
1567.87890625 2.50103 1.746197 -0.754833
1568.78515625 2.550605 1.692819 -0.857786
1569.62109375 2.435426 1.610765 -0.824661
1570.5234375 2.696496 1.872568 -0.823928
1571.53515625 2.531452 1.902069 -0.629383
1572.62109375 2.410088 1.845441 -0.564647
1573.5859375 2.520972 1.954882 -0.56609
1574.51953125 2.6543270000000003 2.019978 -0.634349
1575.4453125 2.636805 2.011555 -0.62525
1576.35546875 2.610001 1.989827 -0.620174
1577.140625 2.5769919999999997 1.974219 -0.602773
1578.015625 2.617086 2.004338 -0.612748
1578.8984375 2.6317950000000003 2.021195 -0.6106
1579.78515625 2.630941 1.961206 -0.669735
1580.65234375 2.557187 1.916068 -0.641119
1581.421875 2.649074 1.954741 -0.694333
1582.1875 2.682359 2.03119 -0.651169
1583.1953125 2.655811 1.992155 -0.663656
1584.36328125 2.609055 1.939055 -0.67
1585.3125 2.58602 1.872758 -0.713262
1586.12890625 2.642401 1.96 -0.682401
1586.95703125 2.669894 1.956207 -0.713687
1587.8828125 2.6387359999999997 1.995277 -0.643459
1588.71875 2.25357 1.666025 -0.587545
1589.5703125 1.824023 1.364808 -0.459215
1590.5859375 2.0474010000000002 1.549554 -0.497847
1591.66015625 2.6460030000000003 1.953472 -0.692531
1592.66015625 2.6670439999999997 1.93996 -0.727084
1593.48828125 2.561336 1.899315 -0.662021
1594.30078125 2.722531 1.967646 -0.754885
1595.1953125 2.775723 1.973711 -0.802012
1596.24609375 2.677642 1.878924 -0.798718
1597.140625 2.5880840000000003 1.826905 -0.761179
1597.984375 2.6520080000000004 1.892891 -0.759117
1598.984375 2.7919349999999996 2.011935 -0.78
1600.0 2.768504 2.055 -0.713504
1600.97265625 2.6856590000000002 1.937195 -0.748464
1601.9609375 2.667051 1.867276 -0.799775
1602.94921875 2.727625 1.964557 -0.763068
1603.8828125 2.7290929999999998 1.984554 -0.744539
1604.79296875 2.634074 2.069699 -0.564375
1605.58984375 2.514863 1.855916 -0.658947
1606.359375 2.750365 1.830365 -0.92
1606.625 1.1943549999999998 0.575 -0.619355
1607.15234375 2.656908 1.756603 -0.900305
1608.16015625 2.704945 1.781706 -0.923239
1609.20703125 2.650807 1.812223 -0.838584
1610.109375 2.667625 1.862625 -0.805
1611.03125 2.802575 1.987973 -0.814602
1612.01171875 2.775934 2.022791 -0.753143
1613.0078125 2.7366650000000003 1.997745 -0.73892
1614.00390625 2.679319 1.919376 -0.759943
1614.9609375 2.7454910000000003 1.995629 -0.749862
1615.953125 2.728088 2.004832 -0.723256
1616.96484375 2.729337 1.910567 -0.81877
1617.83203125 2.636674 1.853986 -0.782688
1618.6796875 2.69878 2.012957 -0.685823
1619.70703125 2.692363 2.008867 -0.683496
1620.71484375 2.6937290000000003 1.943824 -0.749905
1621.6171875 2.694192 1.948557 -0.745635
1622.5 2.738943 2.015 -0.723943
1623.48046875 2.687198 2.009827 -0.677371
1624.52734375 2.726339 1.95417 -0.772169
1625.4296875 2.602035 1.88285 -0.719185
1626.3828125 2.6927 1.984804 -0.707896
1627.375 2.724376 1.97 -0.754376
1628.3984375 2.707028 1.949607 -0.757421
1629.44140625 2.6593169999999997 1.895724 -0.763593
1630.44921875 2.679087 2.001626 -0.677461
1631.53125 2.637652 2.099222 -0.53843
1632.671875 2.5347020000000002 2.00224 -0.532462
1633.76953125 2.529162 1.784984 -0.744178
1634.7734375 2.654547 1.751938 -0.902609
1635.78515625 2.678688 1.760094 -0.918594
1636.7890625 2.70345 1.87 -0.83345
1637.83984375 2.676236 1.958111 -0.718125
1638.9140625 2.76765 2.124086 -0.643564
1640.01171875 2.72751 2.10313 -0.62438
1641.140625 2.622872 2.233828 -0.389044
1642.1953125 2.6042549999999998 1.92966 -0.674595
1643.3125 2.7156599999999997 2.023933 -0.691727
1644.48046875 2.618443 1.924947 -0.693496
1645.59765625 2.729898 1.789668 -0.94023
1646.6796875 2.669651 1.760559 -0.909092
1647.76171875 2.733931 2.036803 -0.697128
1648.7578125 2.697617 1.976771 -0.720846
1649.90625 2.710791 1.818173 -0.892618
1651.02734375 2.78534 1.945337 -0.840003
1652.11328125 2.8158 2.0342 -0.7816
1653.1640625 2.7832 1.999583 -0.783617
1654.1328125 2.7563269999999997 2.099621 -0.656706
1655.15234375 2.805781 2.157693 -0.648088
1656.30078125 2.7638860000000003 2.165732 -0.598154
1657.32421875 2.753872 2.189387 -0.564485
1658.32421875 2.791312 2.188389 -0.602923
1659.44140625 2.740268 2.194682 -0.545586
1660.44921875 2.6925090000000003 2.108023 -0.584486
1661.35546875 2.7848439999999997 2.194844 -0.59
1662.35546875 2.783653 2.128653 -0.655
1663.4140625 2.712532 2.124575 -0.587957
1664.33203125 2.645071 2.014025 -0.631046
1665.13671875 2.673869 2.219445 -0.454424
1665.99609375 2.583096 2.274021 -0.309075
1667.08203125 2.611324 2.058472 -0.552852
1668.19921875 2.584196 1.866663 -0.717533
1669.16796875 2.6824540000000003 2.006829 -0.675625
1670.16015625 2.641067 2.040985 -0.600082
1671.25 2.654838 2.05 -0.604838
1672.2578125 2.591384 1.969427 -0.621957
1673.21484375 2.5767860000000002 2.004744 -0.572042
1674.265625 2.559886 1.916245 -0.643641
1675.265625 2.4910870000000003 1.861523 -0.629564
1676.16796875 2.5886 1.890927 -0.697673
1677.06640625 2.720642 2.084854 -0.635788
1678.03125 2.729318 2.114127 -0.615191
1678.94140625 2.577505 1.92473 -0.652775
1679.9453125 2.633692 2.073125 -0.560567
1680.98828125 2.5804769999999997 2.075604 -0.504873
1682.03515625 2.690708 2.15305 -0.537658
1683.0703125 2.670064 2.107381 -0.562683
1684.0078125 2.628656 2.083103 -0.545553
1685.0234375 2.635888 2.05029 -0.585598
1686.17578125 2.617344 1.955 -0.662344
1687.203125 2.668068 2.024353 -0.643715
1688.2109375 2.6786529999999997 2.013333 -0.66532
1689.21875 2.615484 2.045484 -0.57
1690.1875 2.559494 1.907857 -0.651637
1691.00390625 2.458901 1.874026 -0.584875
1691.890625 1.9593090000000002 1.475 -0.484309
1692.84375 1.918478 1.413214 -0.505264
1693.74609375 2.248589 1.636047 -0.612542
1694.56640625 2.646909 1.90253 -0.744379
1695.3828125 2.664081 1.872375 -0.791706
1696.1796875 2.7191270000000003 1.9248 -0.794327
1697.015625 2.5929029999999997 1.953841 -0.639062
1697.84375 2.5098190000000002 1.814497 -0.695322
1698.63671875 2.637387 1.954084 -0.683303
1699.37890625 2.654656 1.885907 -0.768749
1700.10546875 2.76706 1.974965 -0.792095
1700.984375 2.782782 2.032782 -0.75
1701.765625 2.7 2.065 -0.635
1702.609375 2.786692 2.231692 -0.555
1703.61328125 2.731617 2.142366 -0.589251
1704.72265625 2.794403 2.219606 -0.574797
1705.671875 2.63725 2.062531 -0.574719
1706.4609375 2.763075 2.168137 -0.594938
1707.31640625 2.760825 2.149906 -0.610919
1708.21875 2.820997 2.261038 -0.559959
1709.1796875 2.783877 2.164919 -0.618958
1710.20703125 2.620775 2.009486 -0.611289
1711.09375 2.628431 2.034189 -0.594242
1712.05078125 2.748998 2.084136 -0.664862
1713.0703125 2.7796559999999997 2.1045 -0.675156
1714.10546875 2.679804 2.049804 -0.63
1715.015625 2.664869 2.039269 -0.6256
1716.12109375 2.693646 2.077877 -0.615769
1717.17578125 2.67981 1.991873 -0.687937
1718.12890625 2.616689 1.8868 -0.729889
1719.07421875 2.775623 2.047258 -0.728365
1720.0546875 2.674111 2.01192 -0.662191
1721.12109375 2.636259 2.005521 -0.630738
1722.2578125 2.657779 2.078688 -0.579091
1723.38671875 2.6717959999999996 2.153205 -0.518591
1724.46484375 2.77916 2.15494 -0.62422
1725.5078125 2.659338 2.084202 -0.575136
1726.57421875 2.665032 2.154589 -0.510443
1727.6484375 2.678849 2.138685 -0.540164
1728.73046875 2.661321 2.059925 -0.601396
1729.69140625 2.679969 2.081733 -0.598236
1730.6328125 2.680323 2.134426 -0.545897
1731.59765625 2.671701 2.082767 -0.588934
1732.61328125 2.512213 1.982364 -0.529849
1733.58203125 2.541329 1.968371 -0.572958
1734.609375 2.6655990000000003 2.016036 -0.649563
1735.65625 2.692334 2.029614 -0.66272
1736.5625 2.495285 1.838202 -0.657083
1737.46875 2.658998 2.008277 -0.650721
1738.45703125 2.723052 2.049093 -0.673959
1739.6171875 2.557232 1.905664 -0.651568
1740.67578125 2.633342 1.973333 -0.660009
1741.5859375 2.655827 1.989187 -0.66664
1742.51953125 2.716068 1.947107 -0.768961
1743.31640625 2.675538 1.560176 -1.115362
1744.0625 2.468539 1.842559 -0.62598
1744.74609375 2.7116249999999997 2.117336 -0.594289
1745.515625 2.744065 2.040983 -0.703082
1746.90234375 2.6266190000000003 2.13757 -0.489049
1747.99609375 2.587369 2.080203 -0.507166
1749.09375 2.6293900000000003 2.173576 -0.455814
1750.21484375 2.630675 2.120872 -0.509803
1751.33203125 2.5821289999999997 2.024621 -0.557508
1752.296875 2.6020410000000003 2.004741 -0.5973
1753.23828125 2.636469 2.045032 -0.591437
1754.32421875 2.725569 2.067047 -0.658522
1755.37109375 2.6754810000000004 2.092328 -0.583153
1756.32421875 2.617372 1.961574 -0.655798
1757.109375 2.6811089999999997 2.067722 -0.613387
1758.1328125 2.700399 2.037076 -0.663323
1759.29296875 2.643857 2.113557 -0.5303
1760.40234375 2.620264 2.102761 -0.517503
1761.390625 2.704451 2.129318 -0.575133
1762.33984375 2.772078 2.212613 -0.559465
1763.359375 2.686109 2.161109 -0.525
1764.42578125 2.683303 2.114148 -0.569155
1765.41015625 2.536111 2.048609 -0.487502
1766.28515625 2.631817 2.092327 -0.53949
1767.234375 2.606017 2.016017 -0.59
1768.29296875 2.716342 2.168573 -0.547769
1769.33984375 2.5579959999999997 2.039395 -0.518601
1770.3515625 2.601763 2.024487 -0.577276
1771.39453125 2.634719 2.079824 -0.554895
1772.41796875 2.6933719999999997 2.088878 -0.604494
1773.40625 2.647652 2.087151 -0.560501
1774.28125 2.517952 1.898984 -0.618968
1775.203125 2.558446 1.927284 -0.631162
1776.31640625 2.593747 2.01443 -0.579317
1777.38671875 2.426384 1.951184 -0.4752
1778.28125 2.352287 1.74968 -0.602607
1779.19140625 2.550179 1.850199 -0.69998
1780.13671875 2.634526 1.91974 -0.714786
1781.16015625 2.6037999999999997 1.982835 -0.620965
1782.30078125 2.620628 2.059027 -0.561601
1783.22265625 2.610814 2.108771 -0.502043
1784.0859375 2.6685239999999997 2.171165 -0.497359
1785.0234375 2.6465129999999997 2.114279 -0.532234
1785.91015625 2.616004 2.067378 -0.548626
1786.7265625 2.721041 2.138861 -0.58218
1787.73046875 2.6697450000000003 2.174745 -0.495
1788.83984375 2.576821 2.117256 -0.459565
1789.84765625 2.5550699999999997 2.038859 -0.516211
1790.78515625 2.562239 2.065916 -0.496323
1791.80859375 2.627248 2.104393 -0.522855
1792.84375 2.5669850000000003 2.019315 -0.54767
1793.90625 2.301269 1.838674 -0.462595
1794.96484375 1.871755 1.536886 -0.334869
1796.046875 2.052637 1.658269 -0.394368
1797.00390625 2.545783 1.986036 -0.559747
1797.8203125 2.625707 2.133368 -0.492339
1798.6171875 2.506017 2.112148 -0.393869
1799.46484375 2.536335 2.005918 -0.530417
1800.3984375 2.58596 2.016613 -0.569347
1801.6484375 2.64865 2.199303 -0.449347
1802.80078125 2.577451 2.164127 -0.413324
1803.7890625 2.54416 2.084912 -0.459248
