4.4140625 2.2272670000000003 0.344611 -1.882656
5.2265625 2.441532 0.386518 -2.055014
6.046875 2.35758 0.412989 -1.944591
6.87890625 2.402761 0.387761 -2.015
7.6875 2.191079 0.297056 -1.894023
8.484375 2.185286 0.212088 -1.973198
9.34765625 2.302733 0.042733 -2.26
10.2109375 2.403537 0.114416 -2.289121
11.05859375 2.3914370000000003 0.176784 -2.214653
11.8984375 2.167497 0.206988 -1.960509
12.7265625 2.363002 0.559318 -1.803684
13.5703125 2.305123 0.480855 -1.824268
14.3671875 2.354317 0.456655 -1.897662
15.18359375 2.411655 0.418482 -1.993173
16.01171875 2.36249 0.148369 -2.214121
16.83203125 2.390861 0.088953 -2.301908
17.64453125 2.279772 -0.090017 -2.369789
18.4609375 2.339636 -0.02 -2.359636
19.25 2.337108 0.145 -2.192108
20.04296875 2.359023 0.279351 -2.079672
20.85546875 2.457964 0.454995 -2.002969
21.65234375 2.4342289999999998 0.404229 -2.03
22.453125 2.458154 0.485 -1.973154
23.2734375 2.49916 0.496032 -2.003128
24.0703125 2.603606 0.528606 -2.075
24.91015625 2.581139 0.554341 -2.026798
25.7421875 2.635843 0.59349 -2.042353
26.57421875 2.7071180000000004 0.543433 -2.163685
27.43359375 2.7175860000000003 0.537611 -2.179975
28.27734375 2.7502320000000005 0.599871 -2.150361
29.11328125 2.8318200000000004 0.682914 -2.148906
29.97265625 2.885776 0.680819 -2.204957
30.62890625 2.407039 0.82286 -1.584179
31.625 2.9585120000000003 0.745 -2.213512
32.46875 3.0373289999999997 0.699321 -2.338008
33.3125 2.958139 0.678163 -2.279976
34.15234375 3.051162 0.721162 -2.33
34.98828125 3.074367 0.667498 -2.406869
35.83203125 3.176819 0.653565 -2.523254
36.66796875 3.3146750000000003 0.840399 -2.474276
37.49609375 2.646872 0.555672 -2.0912
38.3125 2.173038 0.613897 -1.559141
39.08984375 2.217327 0.647334 -1.569993
39.890625 2.496877 0.753306 -1.743571
40.6640625 2.773104 0.269803 -2.503301
41.4375 2.839743 0.230169 -2.609574
42.25 3.059953 0.53 -2.529953
43.05078125 3.1385910000000004 0.644591 -2.494
43.86328125 3.156374 0.663897 -2.492477
44.69921875 3.140936 0.722913 -2.418023
45.54296875 3.067711 0.669326 -2.398385
46.39453125 3.0243450000000003 0.794929 -2.229416
47.2421875 3.100236 0.826728 -2.273508
48.09765625 3.022101 0.76712 -2.254981
48.95703125 3.005964 0.667354 -2.33861
49.81640625 3.040931 0.761357 -2.279574
50.6796875 3.042349 0.844129 -2.19822
51.52734375 2.986688 0.708702 -2.277986
52.37890625 2.984255 0.68448 -2.299775
53.21875 3.0461110000000002 0.718341 -2.32777
54.0546875 3.055072 0.660972 -2.3941
54.8984375 2.9526000000000003 0.482349 -2.470251
55.71484375 3.008929 0.468929 -2.54
56.5625 2.863561 0.363561 -2.5
57.37890625 2.971613 0.573716 -2.397897
58.21875 2.980833 0.732224 -2.248609
59.078125 2.989832 0.734832 -2.255
59.91015625 2.948612 0.747846 -2.200766
60.75 2.83867 0.715 -2.12367
61.60546875 2.724545 0.624995 -2.09955
62.43359375 2.6575420000000003 0.537716 -2.119826
63.2734375 2.655599 0.586093 -2.069506
64.10546875 2.671338 0.524968 -2.14637
64.9296875 2.7442089999999997 0.635022 -2.109187
65.74609375 2.831135 0.64678 -2.184355
66.58203125 2.784378 0.555843 -2.228535
67.42578125 2.6224239999999996 0.538254 -2.08417
68.2421875 2.799003 0.519108 -2.279895
69.0703125 2.743966 0.389122 -2.354844
69.921875 2.748321 0.41335 -2.334971
70.765625 2.598362 0.418984 -2.179378
71.6015625 2.643913 0.511354 -2.132559
72.4453125 2.627076 0.607491 -2.019585
73.26953125 2.7043730000000004 0.639804 -2.064569
74.09765625 2.6350000000000002 0.45 -2.185
74.9375 2.716023 0.515862 -2.200161
75.77734375 2.660019 0.526519 -2.1335
76.6015625 2.6541259999999998 0.438696 -2.21543
77.4296875 2.659452 0.552587 -2.106865
78.2734375 2.7238689999999997 0.609021 -2.114848
79.0859375 2.698219 0.608884 -2.089335
79.9140625 2.632885 0.644532 -1.988353
80.7265625 2.8056639999999997 0.702937 -2.102727
81.53125 2.863417 0.618973 -2.244444
82.36328125 2.746359 0.514993 -2.231366
83.1875 2.903192 0.638192 -2.265
84.00390625 2.865389 0.574696 -2.290693
84.83203125 2.881545 0.614699 -2.266846
85.64453125 2.903274 0.744837 -2.158437
86.44921875 2.92678 0.699646 -2.227134
87.2578125 2.999568 0.684692 -2.314876
88.0703125 2.881908 0.676447 -2.205461
88.85546875 3.025215 0.794887 -2.230328
89.6484375 3.007446 0.674321 -2.333125
90.44921875 3.016771 0.59382 -2.422951
91.25390625 2.949574 0.632233 -2.317341
92.0625 2.986439 0.642289 -2.34415
92.86328125 3.021552 0.602448 -2.419104
93.49609375 2.96299 0.64799 -2.315
94.40234375 2.942534 0.625 -2.317534
95.25390625 2.9164909999999997 0.597241 -2.31925
96.0546875 2.934815 0.575799 -2.359016
96.8515625 2.8524209999999997 0.672646 -2.179775
97.64453125 2.838768 0.681743 -2.157025
98.296875 2.92235 0.758756 -2.163594
99.171875 2.807398 0.689039 -2.118359
99.984375 2.899949 0.696657 -2.203292
100.7734375 2.805808 0.600557 -2.205251
101.56640625 2.774493 0.731646 -2.042847
102.34765625 2.895202 0.845202 -2.05
103.1484375 2.9165970000000003 0.728597 -2.188
103.9453125 2.824449 0.710407 -2.114042
104.7421875 2.8546690000000003 0.736661 -2.118008
105.3671875 2.950282 0.889817 -2.060465
106.28125 2.745 0.67 -2.075
106.91015625 2.074146 0.998375 -1.075771
107.921875 2.807345 0.693324 -2.114021
108.74609375 2.873222 0.639964 -2.233258
109.53125 2.794272 0.332328 -2.461944
110.31640625 2.7480089999999997 0.588701 -2.159308
111.1015625 2.998321 0.660134 -2.338187
111.90625 2.9003 0.575781 -2.324519
112.5625 2.735417 0.740417 -1.995
113.41015625 2.61312 0.76818 -1.84494
114.2421875 2.884342 0.76766 -2.116682
115.0390625 2.779851 0.659851 -2.12
115.859375 2.639743 0.747108 -1.892635
116.6640625 2.82686 0.784724 -2.042136
117.46875 2.714678 0.739678 -1.975
118.2890625 2.574346 0.674346 -1.9
119.10546875 2.595113 0.676113 -1.919
119.93359375 2.382901 0.714737 -1.668164
120.76171875 2.466792 0.676893 -1.789899
121.57421875 2.5067 0.6067 -1.9
122.3984375 2.429141 0.544741 -1.8844
123.19921875 2.412223 0.542223 -1.87
124.01171875 2.575039 0.55529 -2.019749
124.82421875 2.4918250000000004 0.453209 -2.038616
125.64453125 2.481052 0.417003 -2.064049
126.45703125 2.490163 0.460163 -2.03
127.25390625 2.56395 0.519216 -2.044734
128.09375 2.506254 0.466254 -2.04
128.91015625 2.533619 0.432811 -2.100808
129.7109375 2.5586729999999998 0.404267 -2.154406
130.5390625 2.441964 0.477078 -1.964886
131.34765625 2.512743 0.572786 -1.939957
132.140625 2.575502 0.513477 -2.062025
132.953125 2.627615 0.497615 -2.13
133.74609375 2.65157 0.506738 -2.144832
134.53125 2.613925 0.483925 -2.13
135.3203125 2.746794 0.567158 -2.179636
136.14453125 2.673331 0.574755 -2.098576
136.9375 2.6687119999999998 0.518712 -2.15
137.75390625 2.709842 0.634954 -2.074888
138.5625 2.816214 0.670833 -2.145381
139.38671875 2.82475 0.70475 -2.12
140.21484375 2.8511119999999996 0.726192 -2.12492
141.05078125 2.881904 0.619638 -2.262266
141.89453125 2.98995 0.73495 -2.255
142.73046875 2.930398 0.879946 -2.050452
143.5703125 2.876282 0.869668 -2.006614
144.41796875 3.084822 1.042758 -2.042064
145.26171875 3.105083 1.030469 -2.074614
146.08984375 3.084336 0.935231 -2.149105
146.9375 3.049573 0.819592 -2.229981
147.78515625 3.104515 0.900631 -2.203884
148.625 3.065414 0.89 -2.175414
149.4765625 3.154177 0.929206 -2.224971
150.328125 3.117228 0.832228 -2.285
151.17578125 3.0583289999999996 0.730545 -2.327784
152.02734375 3.091051 0.833724 -2.257327
152.8828125 3.058857 0.773933 -2.284924
153.71875 3.082316 0.807346 -2.27497
154.55859375 3.089798 0.809798 -2.28
155.421875 2.962043 0.828605 -2.133438
156.26171875 3.049937 1.114992 -1.934945
157.1015625 3.023734 0.893772 -2.129962
157.95703125 2.9092979999999997 0.884298 -2.025
158.77734375 3.01681 0.916862 -2.099948
159.61328125 2.838955 0.700091 -2.138864
160.4453125 2.72626 0.757027 -1.969233
161.2578125 2.89959 0.772402 -2.127188
162.08984375 2.868 0.675303 -2.192697
162.88671875 2.8148609999999996 0.764861 -2.05
163.70703125 2.788755 0.668755 -2.12
164.52734375 2.769559 0.710281 -2.059278
165.34375 2.590707 0.781133 -1.809574
166.1640625 2.866205 0.824141 -2.042064
166.9765625 2.472303 0.657112 -1.815191
167.76953125 2.474877 0.749877 -1.725
168.57421875 2.726615 0.821286 -1.905329
169.20703125 2.778162 0.838162 -1.94
170.1015625 2.753351 0.68338 -2.069971
170.91796875 2.574546 0.714827 -1.859719
171.73828125 2.710167 0.810573 -1.899594
172.52734375 2.784372 0.784496 -1.999876
173.3359375 2.7002699999999997 0.789809 -1.910461
174.1484375 2.705187 0.818243 -1.886944
174.9375 2.778648 0.803662 -1.974986
175.75 2.67 0.725 -1.945
176.5625 2.593723 0.743729 -1.849994
177.3671875 2.677745 0.786262 -1.891483
178.18359375 2.781791 0.747153 -2.034638
179.0078125 2.571505 0.662469 -1.909036
180.43359375 2.710204 0.687645 -2.022559
181.328125 2.696428 0.647362 -2.049066
182.15625 2.591284 0.668156 -1.923128
182.9765625 2.690355 0.727464 -1.962891
183.78125 2.668136 0.655455 -2.012681
184.578125 2.713539 0.618539 -2.095
185.41015625 2.740895 0.717577 -2.023318
186.21875 2.760544 0.656663 -2.103881
187.0234375 2.748267 0.568514 -2.179753
187.8515625 2.678019 0.568029 -2.10999
188.67578125 2.754423 0.627704 -2.126719
189.484375 2.762062 0.627062 -2.135
190.328125 2.735176 0.645176 -2.09
191.171875 2.8407669999999996 0.737017 -2.10375
192.71484375 2.7677500000000004 0.603064 -2.164686
193.60546875 2.797728 0.699762 -2.097966
194.47265625 2.865486 0.736355 -2.129131
195.3359375 2.68257 0.604375 -2.078195
196.15625 2.8256390000000002 0.676463 -2.149176
196.984375 2.8611709999999997 0.726908 -2.134263
197.8046875 2.901615 0.836615 -2.065
198.6328125 2.768275 0.688275 -2.08
199.31640625 3.002948 0.953827 -2.049121
200.29296875 2.813702 0.745775 -2.067927
200.953125 3.008423 0.908423 -2.1
201.99609375 2.761851 0.683779 -2.078072
202.88671875 2.7802059999999997 0.705481 -2.074725
203.75 2.830582 0.68 -2.150582
204.625 2.848711 0.75 -2.098711
205.4765625 2.900245 0.799083 -2.101162
206.3046875 2.8785439999999998 0.733466 -2.145078
207.16015625 2.542206 0.648424 -1.893782
207.99609375 2.401526 0.588202 -1.813324
208.8046875 2.50414 0.621337 -1.882803
209.61328125 2.4931859999999997 0.649748 -1.843438
210.4453125 2.515381 0.648991 -1.86639
211.2734375 2.641034 0.576034 -2.065
212.10546875 2.7297119999999997 0.549873 -2.179839
212.94140625 2.733508 0.503508 -2.23
213.7734375 2.6897230000000003 0.591651 -2.098072
214.60546875 2.7034249999999997 0.548425 -2.155
215.44921875 2.61393 0.617643 -1.996287
216.2890625 2.682487 0.672156 -2.010331
217.12109375 2.671066 0.544041 -2.127025
217.953125 2.6869859999999997 0.656986 -2.03
218.8046875 2.626494 0.682427 -1.944067
219.65625 2.562779 0.587779 -1.975
220.49609375 2.498813 0.628981 -1.869832
221.3359375 2.588368 0.644389 -1.943979
222.171875 2.5138819999999997 0.491148 -2.022734
223.01171875 2.575604 0.550604 -2.025
223.875 2.481896 0.67 -1.811896
224.546875 2.074501 0.889609 -1.184892
225.53125 2.3736669999999997 0.413121 -1.960546
226.37109375 2.52841 0.49913 -2.02928
227.21875 2.509967 0.505173 -2.004794
228.03515625 2.52902 0.38402 -2.145
228.8515625 2.5362869999999997 0.457029 -2.079258
229.66796875 2.531662 0.386662 -2.145
230.48828125 2.6709259999999997 0.486007 -2.184919
231.3046875 2.567277 0.417433 -2.149844
232.1171875 2.250153 0.302518 -1.947635
232.93359375 2.211601 0.411673 -1.799928
233.734375 2.020715 0.28125 -1.739465
234.5234375 1.649415 0.215 -1.434415
235.32421875 1.718389 0.420868 -1.297521
236.125 2.21 0.595 -1.615
236.9296875 2.381767 0.616992 -1.764775
237.7421875 2.619509 0.681761 -1.937748
238.546875 2.494089 0.532253 -1.961836
239.34375 2.484174 0.490929 -1.993245
240.15625 2.6566620000000003 0.57248 -2.084182
240.984375 2.621992 0.760898 -1.861094
241.76953125 2.7529060000000003 0.769665 -1.983241
242.56640625 2.7032499999999997 0.773328 -1.929922
243.390625 2.764491 0.821991 -1.9425
244.18359375 2.776024 0.767493 -2.008531
245.015625 2.666535 0.696535 -1.97
245.82421875 2.814281 0.76776 -2.046521
246.6484375 3.023859 0.686232 -2.337627
247.49609375 2.9690160000000003 0.744606 -2.22441
248.33203125 3.000127 0.600127 -2.4
249.17578125 2.919605 0.704634 -2.214971
250.00390625 3.140317 0.811333 -2.328984
250.83984375 3.040753 0.835753 -2.205
251.703125 3.1114129999999998 0.861191 -2.250222
252.5703125 3.162566 0.877566 -2.285
253.40625 3.05811 0.858467 -2.199643
254.25390625 3.192405 0.953202 -2.239203
255.109375 3.1299710000000003 0.929971 -2.2
255.96875 3.0819319999999997 0.894675 -2.187257
256.84765625 3.076323 0.841323 -2.235
257.7265625 3.039639 0.819696 -2.219943
258.59765625 3.115874 0.865884 -2.24999
259.5 3.099753 0.89 -2.209753
260.38671875 3.100202 0.912674 -2.187528
261.26953125 2.459804 0.834804 -1.625
262.1015625 2.9886169999999996 0.899405 -2.089212
262.96875 2.617266 0.822266 -1.795
263.81640625 2.627227 0.87752 -1.749707
264.68359375 2.782433 0.702462 -2.079971
265.50390625 2.699385 0.701313 -1.998072
266.31640625 2.668279 0.649663 -2.018616
267.125 2.547892 0.435 -2.112892
267.91796875 2.439404 0.517568 -1.921836
268.73828125 2.752383 0.599185 -2.153198
269.5546875 2.7641159999999996 0.594279 -2.169837
270.3515625 2.776046 0.681065 -2.094981
271.16796875 2.76641 0.657191 -2.109219
271.98828125 2.783318 0.608837 -2.174481
272.80859375 2.80082 0.570827 -2.229993
273.65234375 2.7894180000000004 0.549418 -2.24
274.48046875 3.041776 0.571939 -2.469837
275.07421875 3.073941 0.720789 -2.353152
275.98828125 3.0828200000000003 0.665185 -2.417635
276.83984375 3.093112 0.643112 -2.45
277.6484375 3.0701600000000004 0.779212 -2.290948
278.453125 3.02272 0.84272 -2.18
279.26953125 3.0765849999999997 0.944612 -2.131973
279.88671875 3.021932 0.972674 -2.049258
280.7734375 2.918208 0.803702 -2.114506
281.62890625 2.882816 0.822394 -2.060422
282.421875 2.825421 0.776913 -2.048508
283.2265625 2.755078 0.804062 -1.951016
284.04296875 2.6692259999999997 0.659226 -2.01
284.69140625 2.815072 0.819159 -1.995913
285.62109375 2.7008550000000002 0.580464 -2.120391
286.515625 2.75061 0.62561 -2.125
287.9765625 2.8079899999999998 0.623646 -2.184344
288.88671875 2.569727 0.524727 -2.045
289.71875 2.587701 0.583082 -2.004619
290.53515625 2.167716 0.555763 -1.611953
291.37890625 2.535338 0.558186 -1.977152
292.19140625 2.326022 0.568652 -1.75737
292.96484375 2.607046 0.752046 -1.855
293.83984375 2.6320930000000002 0.707093 -1.925
294.66015625 2.54781 0.61781 -1.93
295.4921875 2.547036 0.742713 -1.804323
296.30078125 2.472093 0.752122 -1.719971
297.1171875 2.65334 0.878737 -1.774603
297.97265625 2.6736969999999998 0.810691 -1.863006
298.796875 2.718006 0.7733 -1.944706
299.609375 2.790311 0.760717 -2.029594
300.4375 2.869558 0.704348 -2.16521
301.25390625 2.629849 0.846918 -1.782931
302.0625 2.513715 0.858715 -1.655
302.8203125 2.555617 0.810486 -1.745131
303.6171875 2.675852 0.720908 -1.954944
304.3828125 2.744064 0.709247 -2.034817
305.04296875 2.826687 0.72615 -2.100537
305.89453125 2.90458 0.654963 -2.249617
306.69921875 3.00126 0.651471 -2.349789
307.48828125 2.936717 0.801717 -2.135
308.27734375 2.758833 0.643708 -2.115125
309.07421875 2.862071 0.684154 -2.177917
309.71484375 2.8096229999999998 0.720938 -2.088685
310.625 2.8079270000000003 0.635 -2.172927
311.4609375 2.892513 0.598245 -2.294268
312.296875 2.8772960000000003 0.608077 -2.269219
313.10546875 2.800058 0.529792 -2.270266
313.91796875 2.781204 0.537946 -2.243258
314.76171875 2.7637349999999996 0.588735 -2.175
315.5703125 2.782827 0.572827 -2.21
316.37890625 2.839092 0.644678 -2.194414
317.21484375 2.813018 0.615139 -2.197879
318.03125 2.87418 0.692072 -2.182108
318.85546875 2.864782 0.709839 -2.154943
319.6796875 2.839311 0.645092 -2.194219
320.5078125 2.9164160000000003 0.696416 -2.22
321.33984375 2.838492 0.723811 -2.114681
322.1640625 2.8184620000000002 0.674398 -2.144064
323.0 2.8249999999999997 0.61 -2.215
323.83984375 2.90117 0.61978 -2.28139
324.67578125 2.815098 0.617848 -2.19725
325.49609375 2.822064 0.707064 -2.115
326.3359375 2.8711460000000004 0.774532 -2.096614
327.16796875 2.813093 0.661978 -2.151115
327.96875 2.809806 0.619814 -2.189992
328.7890625 2.7478409999999998 0.578925 -2.168916
329.60546875 2.7111240000000003 0.456138 -2.254986
330.41796875 2.71197 0.383215 -2.328755
331.265625 2.7132769999999997 0.468511 -2.244766
332.08984375 2.6569789999999998 0.415924 -2.241055
332.9140625 2.547493 0.44 -2.107493
333.7421875 2.654626 0.544626 -2.11
334.59765625 2.346688 0.477207 -1.869481
335.4375 2.182511 0.498672 -1.683839
336.25 2.208174 0.545 -1.663174
337.109375 2.268227 0.505184 -1.763043
337.9375 2.326797 0.565049 -1.761748
338.77734375 2.462495 0.609095 -1.8534
339.61328125 2.424997 0.575544 -1.849453
340.43359375 2.5523550000000004 0.527433 -2.024922
341.2734375 2.249298 0.459883 -1.789415
342.0546875 2.280753 0.56576 -1.714993
342.859375 2.312625 0.481971 -1.830654
343.69921875 2.484108 0.507564 -1.976544
344.48828125 2.5347459999999997 0.47584 -2.058906
345.30859375 2.738718 0.533718 -2.205
346.12890625 2.595252 0.335299 -2.259953
346.93359375 2.6831910000000003 0.379338 -2.303853
347.765625 2.498751 0.472871 -2.02588
348.54296875 2.658707 0.5796 -2.079107
349.15625 2.646953 0.586953 -2.06
350.12109375 2.6873899999999997 0.49739 -2.19
350.9765625 2.735399 0.537906 -2.197493
351.80859375 2.482684 0.581112 -1.901572
352.6171875 2.676322 0.656539 -2.019783
353.20703125 2.795156 0.815231 -1.979925
354.08984375 2.8364260000000003 0.572586 -2.26384
354.7421875 2.659919 0.639919 -2.02
355.69921875 2.815743 0.66599 -2.149753
356.34765625 2.8579489999999996 0.764788 -2.093161
357.28515625 2.944422 0.680948 -2.263474
357.9296875 3.066872 0.702657 -2.364215
358.8984375 2.81037 0.753927 -2.056443
359.73046875 2.9837629999999997 0.814989 -2.168774
360.546875 3.0322000000000005 0.859831 -2.172369
361.109375 3.140392 0.937799 -2.202593
362.0 3.064458 0.805 -2.259458
362.82421875 3.131227 0.739705 -2.391522
363.62890625 3.022647 0.338121 -2.684526
364.4296875 3.198117 0.799708 -2.398409
365.21484375 2.966018 0.561018 -2.405
365.97265625 3.063561 0.779458 -2.284103
366.74609375 3.252631 1.012631 -2.24
367.5234375 3.1935700000000002 1.232982 -1.960588
368.27734375 3.094735 1.254735 -1.84
369.01953125 2.871957 0.829984 -2.041973
369.7890625 3.064582 0.894832 -2.16975
370.54296875 2.962376 0.827529 -2.134847
371.296875 3.136828 1.025859 -2.110969
372.0703125 3.182088 1.033397 -2.148691
372.84765625 3.080998 1.011611 -2.069387
373.59765625 3.1851399999999996 1.12014 -2.065
374.36328125 2.950853 0.994087 -1.956766
375.1328125 2.913194 0.906669 -2.006525
375.875 2.847414 0.795 -2.052414
376.6171875 2.822767 0.757821 -2.064946
377.33984375 2.732988 0.635459 -2.097529
378.078125 2.774527 0.654744 -2.119783
378.80859375 2.747585 0.652585 -2.095
379.55078125 2.756838 0.581177 -2.175661
380.28515625 2.7406260000000002 0.646093 -2.094533
381.0234375 2.740246 0.59346 -2.146786
381.7578125 2.887792 0.628735 -2.259057
382.48828125 2.7244979999999996 0.209637 -2.514861
383.23828125 2.8122830000000003 0.504366 -2.307917
383.98828125 2.772649 0.559476 -2.213173
384.7265625 2.6846639999999997 0.626959 -2.057705
385.4375 2.7717859999999996 0.701786 -2.07
386.19140625 2.726693 0.727919 -1.998774
386.92578125 2.853866 0.805128 -2.048738
387.65625 2.6662999999999997 0.712575 -1.953725
388.3984375 2.722213 0.781151 -1.941062
389.1484375 2.49731 0.56081 -1.9365
389.875 2.645 0.69 -1.955
390.60546875 2.563073 0.609929 -1.953144
391.36328125 2.610564 0.720709 -1.889855
392.09765625 2.5874159999999997 0.577416 -2.01
392.83203125 2.650915 0.700915 -1.95
393.484375 2.666699 0.915398 -1.751301
394.28515625 2.566199 0.802818 -1.763381
395.0 2.683725 0.865 -1.818725
395.734375 2.652909 0.832982 -1.819927
396.44921875 2.5946119999999997 0.657009 -1.937603
397.1640625 2.617194 0.529909 -2.087285
397.87109375 2.560151 0.430297 -2.129854
398.578125 2.607942 0.294919 -2.313023
399.28125 2.452959 0.238193 -2.214766
399.9921875 2.453443 0.346793 -2.10665
400.69921875 2.412928 0.363712 -2.049216
401.3984375 2.55626 0.471701 -2.084559
402.0859375 2.6297900000000003 0.40979 -2.22
402.7890625 2.419752 0.294752 -2.125
403.4921875 2.4436280000000004 0.27816 -2.165468
404.1796875 2.617006 0.356337 -2.260669
404.890625 2.52544 0.354269 -2.171171
405.59375 2.583145 0.353145 -2.23
406.28125 2.373576 0.308576 -2.065
406.9609375 2.34905 0.344715 -2.004335
407.6640625 2.5599790000000002 0.569979 -1.99
408.37109375 2.6785240000000003 0.618616 -2.059908
409.05859375 2.6068439999999997 0.473098 -2.133746
409.734375 2.4499259999999996 0.340082 -2.109844
410.41796875 2.534427 0.542013 -1.992414
411.09765625 2.453754 0.547791 -1.905963
411.7734375 2.58433 0.6494 -1.93493
412.45703125 2.674572 0.646669 -2.027903
413.140625 2.386772 0.501966 -1.884806
413.8125 2.4287989999999997 0.604412 -1.824387
414.48828125 2.4323740000000003 0.607542 -1.824832
415.16796875 2.548668 0.65646 -1.892208
415.8515625 2.403915 0.524487 -1.879428
416.53515625 2.335073 0.532332 -1.802741
417.21875 2.497944 0.569783 -1.928161
417.8984375 2.502992 0.602992 -1.9
418.56640625 2.762781 0.577803 -2.184978
419.24609375 2.574782 0.431172 -2.14361
419.921875 2.540702 0.588934 -1.951768
420.59765625 2.4488649999999996 0.536287 -1.912578
421.26171875 2.567537 0.593581 -1.973956
421.9453125 2.632803 0.637803 -1.995
422.609375 2.66148 0.658252 -2.003228
423.2734375 2.557164 0.507499 -2.049665
423.9296875 2.443915 0.478915 -1.965
424.62109375 2.4421910000000002 0.561285 -1.880906
425.2890625 2.44962 0.564649 -1.884971
425.953125 2.567017 0.632017 -1.935
426.61328125 2.628546 0.619132 -2.009414
427.3046875 2.651442 0.52516 -2.126282
427.96484375 2.477185 0.500763 -1.976422
428.6328125 2.430102 0.544401 -1.885701
429.31640625 2.545874 0.645874 -1.9
430.0078125 2.625217 0.637092 -1.988125
430.6796875 2.5255279999999996 0.502168 -2.02336
431.36328125 2.491891 0.518016 -1.973875
432.046875 2.573345 0.504324 -2.069021
432.73828125 2.5254350000000003 0.442216 -2.083219
433.4140625 2.5389649999999997 0.363965 -2.175
434.09765625 2.480788 0.447248 -2.03354
434.765625 2.424524 0.502024 -1.9225
435.4375 2.407547 0.569255 -1.838292
436.1171875 2.522073 0.701659 -1.820414
436.80078125 2.407698 0.621215 -1.786483
437.46875 2.440025 0.60075 -1.839275
438.15625 2.505288 0.521964 -1.983324
438.84375 2.426146 0.501146 -1.925
439.37109375 2.359293 0.65694 -1.702353
440.16015625 2.424309 0.600885 -1.823424
440.875 2.48 0.63 -1.85
441.58203125 2.474505 0.50642 -1.968085
442.2890625 2.372776 0.478964 -1.893812
442.98046875 2.474735 0.564743 -1.909992
443.69140625 2.414888 0.509902 -1.904986
444.390625 2.438918 0.518217 -1.920701
445.08203125 2.385464 0.45642 -1.929044
445.7890625 2.375448 0.348182 -2.027266
446.5 2.388202 0.37 -2.018202
447.1953125 2.3938989999999998 0.326145 -2.067754
447.8828125 2.485651 0.258858 -2.226793
448.57421875 2.362069 0.054699 -2.30737
449.09765625 2.363608 0.264999 -2.098609
449.859375 2.3723650000000003 0.338001 -2.034364
450.5625 2.3835 0.4585 -1.925
451.25390625 2.256894 0.42814 -1.828754
451.94140625 2.386553 0.403135 -1.983418
452.62890625 2.347662 0.433019 -1.914643
453.33203125 2.395107 0.415107 -1.98
454.0390625 2.305989 0.321135 -1.984854
454.74609375 2.213839 0.286315 -1.927524
455.4609375 2.254758 0.419758 -1.835
456.1796875 2.314572 0.445834 -1.868738
456.88671875 2.18982 0.260137 -1.929683
457.62109375 2.262495 0.357005 -1.90549
458.34375 2.273505 0.324477 -1.949028
459.05859375 2.127851 0.259632 -1.868219
459.7734375 2.190492 0.387055 -1.803437
460.5078125 2.333902 0.499483 -1.834419
460.984375 2.396646 0.916748 -1.479898
461.70703125 2.335515 0.460515 -1.875
462.5859375 2.31615 0.29615 -2.02
463.3515625 2.3170680000000003 0.303745 -2.013323
464.078125 2.491959 0.457596 -2.034363
464.8203125 2.6260559999999997 0.446179 -2.179877
465.55859375 2.538955 0.48968 -2.049275
466.30859375 2.749554 0.579614 -2.16994
467.04296875 2.638192 0.44551 -2.192682
467.78515625 2.545883 0.545931 -1.999952
468.515625 2.653193 0.593178 -2.060015
469.234375 2.65022 0.534971 -2.115249
469.96484375 2.8627979999999997 0.562667 -2.300131
470.68359375 2.7385659999999996 0.474677 -2.263889
471.4140625 2.919257 0.379257 -2.54
472.12890625 2.81 0.25 -2.56
472.84375 2.68625 0.32625 -2.36
473.54296875 2.833359 0.543384 -2.289975
474.28125 2.732621 0.493445 -2.239176
474.99609375 2.778841 0.637509 -2.141332
475.7265625 2.6856400000000002 0.618119 -2.067521
476.421875 2.69686 0.545872 -2.150988
477.16015625 2.520481 0.555958 -1.964523
477.87890625 2.789656 0.688621 -2.101035
478.59765625 2.748368 0.545123 -2.203245
479.3359375 2.782098 0.779099 -2.002999
480.0703125 2.937855 0.837855 -2.1
480.77734375 2.840907 0.469872 -2.371035
481.4765625 2.984051 -0.015634 -2.999685
482.21484375 2.953797 0.080749 -2.873048
482.91796875 2.764742 0.652191 -2.112551
483.6328125 2.848631 0.93917 -1.909461
484.328125 2.82072 0.972727 -1.847993
485.05078125 2.824034 0.976987 -1.847047
485.73828125 2.827661 0.868744 -1.958917
486.4609375 2.712272 0.833766 -1.878506
487.171875 2.585022 0.755976 -1.829046
487.90234375 2.567508 0.855 -1.712508
488.59765625 2.5853450000000002 0.663754 -1.921591
489.3203125 2.732479 0.792836 -1.939643
490.0390625 2.339646 0.499797 -1.839849
490.7265625 2.634219 0.730547 -1.903672
491.50390625 2.80591 0.81091 -1.995
492.2265625 2.5914200000000003 0.50767 -2.08375
492.94140625 2.346201 0.391201 -1.955
493.66015625 2.4726739999999996 0.437238 -2.035436
494.12890625 2.225073 1.135165 -1.089908
494.99609375 2.662115 1.053198 -1.608917
495.84375 2.568606 0.984683 -1.583923
496.5859375 2.550117 0.889492 -1.660625
497.3125 2.72007 0.454289 -2.265781
498.0234375 2.715583 0.478781 -2.236802
498.765625 2.529975 0.486153 -2.043822
499.3984375 2.495705 0.530759 -1.964946
500.20703125 2.539351 0.443858 -2.095493
500.74609375 2.299907 0.890087 -1.40982
501.67578125 2.416592 0.367363 -2.049229
502.40234375 2.495994 0.470293 -2.025701
503.12109375 2.314409 1.757718 -0.556691
503.86328125 2.6607589999999997 0.635486 -2.025273
504.58203125 2.283156 0.147886 -2.13527
505.29296875 2.1891070000000004 0.007623 -2.181484
506.01171875 2.277356 0.192356 -2.085
506.6875 2.319571 0.583049 -1.736522
507.453125 2.083729 0.431498 -1.652231
508.18359375 2.197068 0.453643 -1.743425
508.88671875 2.295477 0.2927 -2.002777
509.609375 2.048586 0.162711 -1.885875
510.32421875 2.1950089999999998 0.323115 -1.871894
511.04296875 2.086228 0.362013 -1.724215
511.59765625 1.822559 0.418301 -1.404258
512.4453125 2.0785989999999996 2.392559 0.31396
513.16796875 2.096172 1.482453 -0.613719
513.88671875 2.032413 1.178306 -0.854107
514.6015625 1.838365 0.727456 -1.110909
515.34375 2.235707 0.267221 -1.968486
516.05859375 2.2042129999999998 -0.195596 -2.399809
516.76171875 2.384779 -0.158494 -2.543273
517.45703125 2.4733490000000002 -0.101651 -2.575
517.98046875 2.349343 0.069862 -2.279481
518.76953125 2.5294670000000004 -0.060065 -2.589532
519.4765625 2.671707 -0.058217 -2.729924
520.1953125 2.4228460000000003 -0.094702 -2.517548
520.91015625 2.467064 0.063199 -2.403865
521.59375 2.5385210000000002 -0.086013 -2.624534
522.2890625 2.3132249999999996 0.029765 -2.28346
522.984375 2.429316 0.191036 -2.23828
523.68359375 2.4411750000000003 0.183002 -2.258173
524.375 2.656042 0.21 -2.446042
525.07421875 2.609536 -0.110925 -2.720461
525.76171875 2.59594 0.04094 -2.555
526.4453125 2.626392 0.322017 -2.304375
527.1328125 2.731245 0.466783 -2.264462
527.8359375 2.701675 0.486675 -2.215
528.5234375 2.631093 0.791093 -1.84
529.20703125 2.647802 0.898812 -1.74899
529.8984375 2.751657 0.946931 -1.804726
530.40234375 2.860432 0.968911 -1.891521
531.17578125 2.668084 0.816584 -1.8515
531.890625 2.666328 1.044121 -1.622207
532.5859375 2.6940560000000002 0.969979 -1.724077
533.2734375 2.79385 0.691072 -2.102778
533.9609375 2.790108 0.509349 -2.280759
534.66015625 2.7694099999999997 0.716042 -2.053368
535.34765625 2.882371 0.912797 -1.969574
536.02734375 2.7522089999999997 0.998521 -1.753688
536.7265625 2.674053 1.271411 -1.402642
537.3515625 2.662936 1.190622 -1.472314
538.109375 2.766054 0.996054 -1.77
538.81640625 2.779771 0.854795 -1.924976
539.546875 2.766064 0.936784 -1.82928
540.26953125 2.709378 0.963594 -1.745784
540.98828125 2.68594 0.873546 -1.812394
541.71875 2.787647 0.787966 -1.999681
542.4609375 2.929317 0.414317 -2.515
543.19140625 2.92321 0.236727 -2.686483
543.92578125 2.8793990000000003 0.199399 -2.68
544.66015625 2.651251 0.331731 -2.31952
545.40234375 2.724895 0.718383 -2.006512
546.140625 2.721091 0.866175 -1.854916
546.890625 2.652187 0.833883 -1.818304
547.640625 2.729455 0.859455 -1.87
548.3984375 2.7289589999999997 0.869127 -1.859832
549.14453125 2.823335 0.934898 -1.888437
549.89453125 2.750903 0.984743 -1.76616
550.640625 2.70106 1.066836 -1.634224
551.39453125 2.6013529999999996 1.2266 -1.374753
552.14453125 2.674724 1.301391 -1.373333
552.90625 2.745299 1.230299 -1.515
553.6796875 2.7589569999999997 1.135821 -1.623136
554.4453125 2.684676 1.120834 -1.563842
554.9765625 2.687427 1.275577 -1.41185
555.8203125 2.681785 1.154554 -1.527231
556.61328125 2.7626049999999998 1.028236 -1.734369
557.15625 2.64322 0.893274 -1.749946
558.03515625 2.600607 0.865607 -1.735
558.79296875 2.656813 0.876276 -1.780537
559.5625 2.682417 0.797433 -1.884984
560.3203125 2.6702339999999998 0.61 -2.060234
561.09765625 2.583586 0.749278 -1.834308
561.87109375 2.743531 0.858643 -1.884888
562.6484375 2.861035 0.801155 -2.05988
563.43359375 2.8360149999999997 0.679006 -2.157009
564.2109375 2.619638 0.594638 -2.025
565.00390625 2.608479 0.7 -1.908479
565.79296875 2.61644 0.68187 -1.93457
566.5703125 2.727157 0.63931 -2.087847
567.35546875 2.7798819999999997 0.559909 -2.219973
567.83203125 2.645189 0.882108 -1.763081
568.9140625 2.549455 0.574455 -1.975
569.6953125 2.7748809999999997 0.719702 -2.055179
570.48828125 2.854654 0.715449 -2.139205
571.2578125 2.809975 0.620121 -2.189854
572.01953125 2.5784830000000003 0.51854 -2.059943
572.80859375 2.677636 0.747665 -1.929971
573.58984375 2.721024 0.757966 -1.963058
574.36328125 2.873503 0.832878 -2.040625
575.13671875 2.798086 0.700414 -2.097672
575.93359375 2.694471 0.597471 -2.097
576.69921875 2.6006400000000003 0.637057 -1.963583
577.47265625 2.784287 0.815485 -1.968802
578.25390625 2.8665890000000003 0.863221 -2.003368
579.015625 2.787288 0.798984 -1.988304
579.7890625 2.709431 0.774431 -1.935
580.546875 2.8181599999999998 0.933945 -1.884215
581.3203125 2.900032 0.880365 -2.019667
582.08984375 3.016483 0.819403 -2.19708
582.86328125 2.7114000000000003 0.546422 -2.164978
583.625 2.733707 0.745 -1.988707
584.3984375 2.8548009999999997 0.804801 -2.05
585.16796875 2.868838 0.794331 -2.074507
585.9296875 2.7530040000000002 0.658004 -2.095
586.71875 2.769298 0.878218 -1.89108
587.47265625 2.823772 0.913772 -1.91
588.2109375 2.964697 0.949697 -2.015
588.95703125 2.9286980000000002 0.792939 -2.135759
589.71875 2.730851 0.688158 -2.042693
590.46484375 2.840637 0.870908 -1.969729
591.203125 2.888837 0.859835 -2.029002
591.95703125 2.918091 0.723091 -2.195
592.70703125 2.7206729999999997 0.562759 -2.157914
593.453125 2.7864750000000003 0.761146 -2.025329
594.21484375 2.840072 0.870533 -1.969539
594.99609375 2.865832 0.778103 -2.087729
595.74609375 2.7533529999999997 0.702095 -2.051258
596.51171875 2.714286 0.804751 -1.909535
597.2890625 2.812523 0.954011 -1.858512
598.0625 2.822779 0.957828 -1.864951
598.8515625 2.8167780000000002 0.947579 -1.869199
599.62109375 2.768202 0.798202 -1.97
600.3984375 2.65353 0.76228 -1.89125
601.17578125 2.71493 0.872575 -1.842355
601.94921875 2.771358 0.9274 -1.843958
602.7265625 2.8128260000000003 0.852833 -1.959993
603.28125 2.7001619999999997 0.727382 -1.97278
604.12890625 2.609658 0.685244 -1.924414
604.8984375 2.722716 0.757844 -1.964872
605.671875 2.8145299999999995 0.80453 -2.01
606.4453125 2.664232 0.552093 -2.112139
607.20703125 2.6252 0.580524 -2.044676
607.9453125 2.715591 0.702229 -2.013362
608.71484375 2.741929 0.713069 -2.02886
609.4765625 2.687977 0.570908 -2.117069
610.234375 2.586403 0.467504 -2.118899
611.00390625 2.64097 0.626168 -2.014802
611.76953125 2.731585 0.744918 -1.986667
612.5234375 2.6465959999999997 0.746729 -1.899867
613.28515625 2.5472770000000002 0.676661 -1.870616
614.0703125 2.578927 0.833927 -1.745
614.80859375 2.6071910000000003 0.824014 -1.783177
615.5859375 2.580636 0.74998 -1.830656
616.34375 2.686813 0.813562 -1.873251
617.10546875 2.517604 0.679806 -1.837798
617.8515625 2.463857 0.705993 -1.757864
618.609375 2.597203 0.818574 -1.778629
619.37109375 2.739591 0.904618 -1.834973
620.1328125 2.70177 0.837251 -1.864519
620.89453125 2.55211 0.709889 -1.842221
621.6484375 2.525922 0.857286 -1.668636
622.41015625 2.678512 0.953737 -1.724775
623.17578125 2.68737 0.87737 -1.81
623.9375 2.591271 0.775526 -1.815745
624.7109375 2.4849 0.7149 -1.77
625.4609375 2.584702 0.844702 -1.74
626.2265625 2.606597 0.819366 -1.787231
626.98828125 2.704357 0.784909 -1.919448
627.78125 2.556714 0.668672 -1.888042
628.53515625 2.582983 0.769243 -1.81374
629.06640625 2.633626 0.859954 -1.773672
629.91015625 2.773166 0.853752 -1.919414
630.703125 2.779196 0.774833 -2.004363
631.45703125 2.535525 0.587431 -1.948094
632.20703125 2.612432 0.733421 -1.879011
632.9609375 2.6247059999999998 0.809706 -1.815
633.68359375 2.904254 0.947972 -1.956282
634.43359375 2.879904 0.902536 -1.977368
635.1953125 2.934582 0.835578 -2.099004
635.9609375 2.677402 0.672402 -2.005
636.71875 2.722641 0.842758 -1.879883
637.48828125 2.852875 0.862547 -1.990328
638.25390625 3.05136 0.93456 -2.1168
639.01953125 3.1187850000000004 0.86384 -2.254945
639.80859375 2.78396 0.717493 -2.066467
640.56640625 2.61953 0.82453 -1.795
641.33203125 2.702649 0.638164 -2.064485
642.1015625 2.713297 0.525543 -2.187754
642.85546875 2.790294 0.5153 -2.274994
643.61328125 2.8764719999999997 0.472472 -2.404
644.40234375 2.807926 0.197975 -2.609951
645.15625 2.9215999999999998 0.451983 -2.469617
645.90234375 2.813673 0.493737 -2.319936
646.6796875 2.861121 0.677948 -2.183173
647.4453125 2.7886450000000003 0.523645 -2.265
648.2265625 2.611465 0.621759 -1.989706
648.95703125 2.658536 0.906093 -1.752443
649.73828125 2.7091800000000004 0.46918 -2.24
650.5234375 2.705304 0.16018 -2.545124
651.29296875 2.6489219999999998 0.260426 -2.388496
652.09375 2.4360079999999997 0.307092 -2.128916
652.63671875 2.454041 0.463763 -1.990278
653.4921875 2.494246 0.144818 -2.349428
654.265625 2.526467 0.29709 -2.229377
655.0546875 2.522257 0.222585 -2.299672
655.83203125 2.509101 0.171232 -2.337869
656.60546875 2.3497899999999996 0.154876 -2.194914
657.36328125 2.4785109999999997 0.39389 -2.084621
658.1484375 2.478137 0.341863 -2.136274
658.9375 2.437759 0.27575 -2.162009
659.73046875 2.500235 0.37997 -2.120265
660.53125 2.491545 0.241643 -2.249902
661.32421875 2.38819 0.32319 -2.065
662.1171875 2.399863 0.449919 -1.949944
662.91015625 2.354135 0.390767 -1.963368
663.73828125 2.3860490000000003 0.279748 -2.106301
664.52734375 2.3765009999999998 0.256916 -2.119585
665.0703125 2.329381 0.369428 -1.959953
665.94921875 2.3847340000000004 0.262074 -2.12266
666.7421875 2.347772 0.283085 -2.064687
667.5390625 2.3583700000000003 0.298865 -2.059505
668.140625 2.408691 0.409402 -1.999289
669.109375 2.272753 0.318389 -1.954364
669.92578125 2.452946 0.398465 -2.054481
670.76171875 2.389849 0.350387 -2.039462
671.60546875 2.286948 0.414939 -1.872009
672.4296875 2.298022 0.498036 -1.799986
673.2890625 2.309583 0.609115 -1.700468
674.12890625 2.305842 0.575842 -1.73
674.98828125 2.4771539999999996 0.694985 -1.782169
675.87109375 2.510877 0.670219 -1.840658
676.71875 2.297585 0.657741 -1.639844
677.59765625 2.409262 0.687848 -1.721414
678.453125 2.440095 0.626485 -1.81361
679.29296875 2.474693 0.647193 -1.8275
680.1796875 2.505 0.615 -1.89
681.03515625 2.536337 0.716483 -1.819854
681.87109375 2.62549 0.690795 -1.934695
682.73828125 2.615857 0.741912 -1.873945
683.58984375 2.497885 0.544886 -1.952999
684.4140625 2.597218 0.511142 -2.086076
685.26171875 2.59997 0.539269 -2.060701
686.09375 2.614288 0.464318 -2.14997
686.91015625 2.431049 0.4094 -2.021649
687.7421875 2.519923 0.591665 -1.928258
688.58203125 2.5593399999999997 0.642109 -1.917231
689.41015625 2.6513310000000003 0.626399 -2.024932
690.2265625 2.520727 0.583862 -1.936865
691.0703125 2.6852099999999997 0.673411 -2.011799
691.9375 2.705594 0.642391 -2.063203
692.80078125 2.569319 0.590056 -1.979263
693.671875 2.6050139999999997 0.621766 -1.983248
694.56640625 2.6950570000000003 0.733666 -1.961391
695.453125 2.59674 0.622234 -1.974506
696.328125 2.440242 0.577141 -1.863101
697.21875 2.596937 0.686024 -1.910913
698.1015625 2.5306509999999998 0.569147 -1.961504
698.96875 2.690019 0.636875 -2.053144
699.8515625 2.668011 0.60804 -2.059971
700.703125 2.568328 0.483328 -2.085
701.56640625 2.682208 0.604047 -2.078161
702.42578125 2.5963160000000003 0.469666 -2.12665
703.25 2.4850000000000003 0.43 -2.055
703.8046875 2.655961 0.733565 -1.922396
704.76953125 2.581723 0.569698 -2.012025
705.61328125 2.4997309999999997 0.605278 -1.894453
706.47265625 2.523794 0.563794 -1.96
707.34765625 2.4596590000000003 0.519674 -1.939985
708.20703125 2.446522 0.556193 -1.890329
709.1015625 2.367054 0.528366 -1.838688
710.00390625 2.405505 0.573164 -1.832341
710.8828125 2.456324 0.501416 -1.954908
711.7578125 2.309251 0.498091 -1.81116
712.63671875 2.400751 0.564751 -1.836
713.51953125 2.389845 0.574845 -1.815
714.40234375 2.289489 0.611417 -1.678072
715.2578125 2.332522 0.627838 -1.704684
716.12890625 2.215163 0.596763 -1.6184
716.99609375 2.331395 0.757623 -1.573772
717.86328125 2.310165 0.709751 -1.600414
718.74609375 2.294844 0.650521 -1.644323
719.60546875 2.174925 0.599947 -1.574978
720.4609375 2.24782 0.609684 -1.638136
721.34375 2.014673 0.410286 -1.604387
722.1875 2.2393 0.572328 -1.666972
723.03125 2.173997 0.485132 -1.688865
723.88671875 2.091761 0.487386 -1.604375
724.71875 2.219083 0.601284 -1.617799
725.33984375 2.256341 0.659095 -1.597246
726.3359375 2.284306 0.624306 -1.66
727.171875 2.2314819999999997 0.614347 -1.617135
728.015625 2.343668 0.663723 -1.679945
728.859375 2.304702 0.545029 -1.759673
729.4296875 2.320268 0.710855 -1.609413
730.33984375 2.33441 0.750239 -1.584171
731.15625 2.527363 0.837363 -1.69
731.7109375 2.525959 0.76456 -1.761399
732.59765625 2.487108 0.751379 -1.735729
733.23046875 2.691065 0.859892 -1.831173
734.14453125 2.564861 0.644861 -1.92
734.94921875 2.423597 0.410436 -2.013161
735.734375 2.652768 0.628115 -2.024653
736.5 2.5555820000000002 0.435 -2.120582
737.296875 2.644245 0.478276 -2.165969
738.06640625 2.714598 0.693572 -2.021026
738.8359375 2.5743219999999996 0.439322 -2.135
739.59375 2.508962 0.357125 -2.151837
740.37890625 2.5845759999999998 0.359775 -2.224801
741.13671875 2.299915 0.310273 -1.989642
741.90234375 2.587692 0.552784 -2.034908
742.69140625 2.554216 0.482672 -2.071544
743.45703125 2.4833790000000002 0.470683 -2.012696
743.92578125 2.4196809999999997 1.042692 -1.376989
744.94921875 3.389247 0.809247 -2.58
745.71484375 2.4138800000000002 0.525985 -1.887895
746.44921875 2.574816 0.79 -1.784816
747.19921875 2.685853 0.745853 -1.94
747.828125 2.727874 0.74334 -1.984534
748.296875 0.989347 -0.480563 -1.46991
748.64453125 2.5375240000000003 -0.265011 -2.802535
749.390625 2.430926 0.396201 -2.034725
750.14453125 2.663383 0.969812 -1.693571
750.8828125 2.571118 0.866421 -1.704697
751.6328125 2.7449630000000003 1.064963 -1.68
752.3828125 2.5584160000000002 0.850636 -1.70778
753.1171875 2.544378 0.874378 -1.67
753.87890625 3.062084 1.068663 -1.993421
754.63671875 2.981382 1.161865 -1.819517
755.375 3.0171859999999997 1.15 -1.867186
756.09765625 2.957535 0.924243 -2.033292
756.70703125 3.0839119999999998 0.900683 -2.183229
757.5390625 2.983304 0.75405 -2.229254
758.2734375 2.904551 0.735957 -2.168594
759.01953125 2.914433 0.804995 -2.109438
759.7734375 3.286975 0.817499 -2.469476
760.5 2.7691410000000003 0.66 -2.109141
761.0234375 2.9757700000000002 0.815884 -2.159886
761.87109375 3.054808 0.817472 -2.237336
762.609375 2.81028 0.568512 -2.241768
763.35546875 3.043679 0.879862 -2.163817
764.08203125 2.883848 0.798848 -2.085
764.8359375 2.866029 0.324748 -2.541281
765.41015625 3.280765 0.778595 -2.50217
766.26171875 3.04676 0.952835 -2.093925
767.01953125 3.1599009999999996 1.075 -2.084901
767.77734375 2.897641 1.117641 -1.78
768.51953125 2.785559 1.115559 -1.67
769.26171875 2.888929 1.519343 -1.369586
769.98046875 2.852819 1.378884 -1.473935
770.7265625 2.826038 1.288186 -1.537852
771.34375 2.9931289999999997 1.253129 -1.74
772.15625 2.558094 0.823603 -1.734491
772.890625 2.4914899999999998 0.711554 -1.779936
773.60546875 2.501433 0.774871 -1.726562
774.33203125 2.525 0.755 -1.77
775.04296875 2.455151 0.600151 -1.855
775.69140625 2.103407 0.549403 -1.554004
776.4921875 2.2043090000000003 0.559534 -1.644775
777.2265625 2.324839 0.536065 -1.788774
777.97265625 2.5012790000000003 0.638598 -1.862681
778.75 2.6175640000000002 0.755 -1.862564
779.49609375 2.345205 0.628186 -1.717019
780.26171875 2.55726 0.613908 -1.943352
781.02734375 2.50047 0.435805 -2.064665
781.78125 2.3890979999999997 0.390428 -1.99867
782.55078125 2.535 0.44 -2.095
783.34765625 2.6552949999999997 0.502131 -2.153164
784.140625 2.346641 0.326641 -2.02
784.9140625 2.356836 0.392623 -1.964213
785.70703125 2.5173579999999998 0.472358 -2.045
786.515625 2.623289 0.518914 -2.104375
787.31640625 2.398075 0.50359 -1.894485
788.12109375 2.512951 0.633063 -1.879888
788.91015625 2.590573 0.585573 -2.005
789.71484375 2.461609 0.509048 -1.952561
790.51171875 2.601447 0.696694 -1.904753
791.296875 2.709175 0.714267 -1.994908
792.1015625 2.717565 0.677579 -2.039986
792.91796875 2.577064 0.688158 -1.888906
793.703125 2.608942 0.635112 -1.97383
794.4921875 2.8351290000000002 0.731495 -2.103634
795.3203125 2.738099 0.732779 -2.00532
795.91796875 2.630227 0.881012 -1.749215
796.7734375 2.748309 0.748543 -1.999766
797.609375 2.8601099999999997 0.718828 -2.141282
798.4296875 2.746326 0.583106 -2.16322
799.2421875 2.714155 0.446186 -2.267969
800.0546875 2.797498 0.367948 -2.42955
800.87109375 2.798898 0.305523 -2.493375
801.671875 2.704193 0.349256 -2.354937
802.4921875 2.8691489999999997 0.494817 -2.374332
803.3203125 2.856335 0.512719 -2.343616
804.14453125 2.818679 0.508873 -2.309806
804.984375 2.733753 0.493753 -2.24
805.796875 2.817419 0.5932 -2.224219
806.62109375 2.870823 0.650823 -2.22
807.44921875 2.911305 0.644691 -2.266614
808.26953125 2.72838 0.549943 -2.178437
809.09375 2.935537 0.590537 -2.345
809.8984375 2.799672 0.50528 -2.294392
810.6875 2.66219 0.302736 -2.359454
811.30859375 2.653212 0.663212 -1.99
812.1328125 2.580089 0.537945 -2.042144
812.921875 2.490358 0.476139 -2.014219
813.6796875 2.275651 0.450694 -1.824957
814.46484375 2.569243 0.614856 -1.954387
815.23046875 2.584981 0.529995 -2.054986
816.0 2.62457 0.5 -2.12457
816.80078125 2.5507720000000003 0.466851 -2.083921
817.58984375 2.602403 0.572403 -2.03
818.375 2.559888 0.5 -2.059888
819.16796875 2.596403 0.573493 -2.02291
819.98828125 2.54577 0.535799 -2.009971
820.77734375 2.628945 0.563484 -2.065461
821.5859375 2.469185 0.464185 -2.005
822.38671875 2.514863 0.487965 -2.026898
823.18359375 2.526567 0.432242 -2.094325
824.00390625 2.5089159999999997 0.485 -2.023916
824.8046875 2.550364 0.500364 -2.05
825.625 2.472353 0.43 -2.042353
826.4375 2.525951 0.501005 -2.024946
827.2421875 2.489856 0.505602 -1.984254
828.08203125 2.495831 0.460831 -2.035
828.8984375 2.51589 0.4476 -2.06829
829.71484375 2.42179 0.3854 -2.03639
830.54296875 2.561346 0.516435 -2.044911
831.359375 2.535706 0.473715 -2.061991
832.171875 2.583834 0.481998 -2.101836
833.7421875 2.447106 0.376994 -2.070112
834.63671875 2.444692 0.33508 -2.109612
835.5 2.558424 0.46 -2.098424
836.36328125 2.486123 0.438157 -2.047966
837.17578125 2.46858 0.541744 -1.926836
837.97265625 2.509132 0.509745 -1.999387
838.77734375 2.5866800000000003 0.499572 -2.087108
839.56640625 2.497211 0.463793 -2.033418
840.375 2.4641409999999997 0.52 -1.944141
841.1796875 2.557941 0.588303 -1.969638
841.97265625 2.528288 0.529066 -1.999222
842.76953125 2.481761 0.564817 -1.916944
843.55078125 2.5369669999999998 0.5528 -1.984167
844.33984375 2.439973 0.51 -1.929973
845.12890625 2.3516909999999998 0.459098 -1.892593
845.90234375 2.526307 0.564282 -1.962025
846.66015625 2.381589 0.471882 -1.909707
847.44140625 2.498797 0.604116 -1.894681
848.20703125 2.581089 0.596089 -1.985
848.828125 2.61492 0.650962 -1.963958
850.05078125 2.478272 0.509588 -1.968684
850.8984375 2.641031 0.63627 -2.004761
851.671875 2.750921 0.676148 -2.074773
852.46484375 2.769344 0.638057 -2.131287
853.0625 2.6345650000000003 0.774565 -1.86
853.87890625 2.61943 0.68827 -1.93116
854.65625 2.786063 0.707423 -2.07864
855.4296875 2.618596 0.520136 -2.09846
856.1875 2.81246 0.753788 -2.058672
856.9375 2.894688 0.714439 -2.180249
857.71484375 2.601101 0.616714 -1.984387
858.47265625 2.8536799999999998 0.758704 -2.094976
859.22265625 2.9209199999999997 0.675468 -2.245452
859.82421875 2.843645 0.808645 -2.035
860.6171875 2.985099 0.759562 -2.225537
861.390625 2.9653850000000004 0.739876 -2.225509
862.1796875 2.858923 0.71 -2.148923
862.94140625 2.896792 0.696819 -2.199973
864.31640625 2.96509 0.610556 -2.354534
865.16015625 2.9628810000000003 0.655648 -2.307233
865.93359375 2.994408 0.644418 -2.34999
866.71875 2.810951 0.620975 -2.189976
867.48046875 2.90772 0.668211 -2.239509
868.2265625 3.009048 0.694062 -2.314986
869.015625 2.8751170000000004 0.684423 -2.190694
869.7734375 2.907957 0.707957 -2.2
870.52734375 3.0250619999999997 0.688541 -2.336521
871.30078125 2.904267 0.580048 -2.324219
872.08203125 2.939772 0.564311 -2.375461
872.66796875 2.9702759999999997 0.690352 -2.279924
873.5078125 2.8735660000000003 0.54939 -2.324176
874.34375 2.993673 0.619811 -2.373862
875.12890625 2.995958 0.613366 -2.382592
875.9296875 2.9182680000000003 0.64334 -2.274928
876.71875 2.9190899999999997 0.659344 -2.259746
877.51171875 2.913385 0.604501 -2.308884
878.30078125 2.962277 0.692707 -2.26957
879.08984375 2.837291 0.693756 -2.143535
879.87890625 2.868207 0.678254 -2.189953
880.65234375 2.8884860000000003 0.726611 -2.161875
881.453125 2.690358 0.630358 -2.06
882.234375 2.853566 0.69173 -2.161836
883.0234375 2.827957 0.677957 -2.15
883.82421875 2.779599 0.600576 -2.179023
884.61328125 2.820685 0.616237 -2.204448
885.42578125 2.8023689999999997 0.667369 -2.135
886.23046875 2.8099610000000004 0.629961 -2.18
887.04296875 2.61277 0.537817 -2.074953
887.640625 2.824631 0.744685 -2.079946
888.671875 2.641228 0.501427 -2.139801
889.56640625 2.686455 0.554841 -2.131614
890.421875 2.611818 0.572564 -2.039254
891.29296875 2.638369 0.508635 -2.129734
892.12109375 2.622278 0.54244 -2.079838
892.93359375 2.764643 0.634686 -2.129957
893.76953125 2.644568 0.584956 -2.059612
894.5703125 2.701731 0.674055 -2.027676
895.3671875 2.704033 0.649818 -2.054215
896.17578125 2.692543 0.672215 -2.020328
896.96484375 2.713809 0.683809 -2.03
897.7734375 2.674957 0.634957 -2.04
898.59765625 2.619443 0.631477 -1.987966
899.41015625 2.7336370000000003 0.650313 -2.083324
900.22265625 2.722942 0.565188 -2.157754
901.03515625 2.711843 0.563718 -2.148125
901.85546875 2.660554 0.610586 -2.049968
902.6640625 2.735407 0.654242 -2.081165
903.46875 2.758463 0.671041 -2.087422
904.25 2.887493 0.735 -2.152493
905.0625 2.781245 0.637561 -2.143684
905.8671875 2.8073919999999997 0.63799 -2.169402
906.6796875 2.6744749999999997 0.614489 -2.059986
907.50390625 2.785414 0.655446 -2.129968
908.30078125 2.785238 0.585538 -2.1997
909.109375 2.6698510000000004 0.580789 -2.089062
909.9140625 2.8464470000000004 0.661646 -2.184801
910.73828125 2.7842189999999998 0.649219 -2.135
911.54296875 2.740175 0.721456 -2.018719
912.33984375 2.778341 0.599337 -2.179004
913.1484375 2.806378 0.476887 -2.329491
913.92578125 2.812985 0.509414 -2.303571
914.734375 2.666618 0.458609 -2.208009
915.5390625 2.704091 0.449515 -2.254576
916.328125 2.7192 0.4892 -2.23
916.96484375 2.74184 0.761755 -1.980085
918.18359375 2.8150380000000004 0.678202 -2.136836
919.140625 2.669355 0.520069 -2.149286
919.9921875 2.7891529999999998 0.6292 -2.159953
920.77734375 2.7094449999999997 0.500805 -2.20864
921.59375 2.819295 0.674308 -2.144987
922.39453125 2.796609 0.674942 -2.121667
923.17578125 2.7627930000000003 0.608652 -2.154141
924.0 2.8075 0.71 -2.0975
924.78515625 2.759577 0.60291 -2.156667
925.5703125 2.6251110000000004 0.500961 -2.12415
926.37109375 2.766371 0.611736 -2.154635
927.17578125 2.697526 0.519151 -2.178375
927.97265625 2.692701 0.554744 -2.137957
928.75390625 2.780082 0.565506 -2.214576
929.5625 2.7546039999999996 0.489355 -2.265249
930.34375 2.601 0.471 -2.13
931.13671875 2.630408 0.497104 -2.133304
931.94921875 2.5425250000000004 0.352733 -2.189792
932.7421875 2.609193 0.409179 -2.200014
933.53125 2.697047 0.532963 -2.164084
934.3203125 2.521337 0.341337 -2.18
935.12890625 2.648568 0.510187 -2.138381
935.91796875 2.629627 0.464627 -2.165
936.7109375 2.474338 0.399918 -2.07442
937.484375 2.552593 0.447573 -2.10502
938.26953125 2.51938 0.374737 -2.144643
939.06640625 2.5390379999999997 0.419319 -2.119719
939.85546875 2.543035 0.434943 -2.108092
940.65234375 2.599377 0.435 -2.164377
941.44140625 2.434663 0.354663 -2.08
942.203125 2.6239950000000003 0.483995 -2.14
942.796875 2.894145 0.80179 -2.092355
943.6328125 2.492761 0.432825 -2.059936
944.43359375 2.514044 0.539073 -1.974971
945.1796875 2.629816 0.560716 -2.0691
945.96875 2.408458 0.488488 -1.91997
946.73046875 2.440884 0.519951 -1.920933
947.48828125 2.60664 0.58818 -2.01846
948.2734375 2.465736 0.501392 -1.964344
949.0546875 2.373396 0.468396 -1.905
949.80859375 2.490287 0.470287 -2.02
950.59375 2.41144 0.444679 -1.966761
951.38671875 2.390117 0.457617 -1.9325
952.0 2.613072 0.675 -1.938072
953.20703125 2.3484700000000003 0.43963 -1.90884
954.046875 2.478259 0.379005 -2.099254
954.82421875 2.333705 0.313705 -2.02
955.6015625 2.533276 0.503795 -2.029481
956.359375 2.465697 0.401385 -2.064312
957.1328125 2.444861 0.444861 -2.0
957.890625 2.492641 0.4653 -2.027341
958.52734375 2.528777 0.538971 -1.989806
959.3671875 2.407297 0.500111 -1.907186
960.16015625 2.536048 0.591354 -1.944694
960.7265625 2.105994 0.941032 -1.164962
961.67578125 2.479839 0.558918 -1.920921
962.47265625 2.607326 0.584572 -2.022754
963.24609375 2.555281 0.525281 -2.03
964.015625 2.582194 0.514062 -2.068132
964.79296875 2.783766 0.588795 -2.194971
965.5625 2.755378 0.562372 -2.193006
966.33984375 2.736912 0.606963 -2.129949
967.1171875 2.809593 0.635339 -2.174254
967.93359375 2.762307 0.608678 -2.153629
968.69921875 2.821471 0.596471 -2.225
969.47265625 2.9159379999999997 0.586451 -2.329487
970.26171875 2.9123300000000003 0.50869 -2.40364
971.0390625 2.8787689999999997 0.559157 -2.319612
971.828125 2.926277 0.553244 -2.373033
972.6328125 2.8684200000000004 0.64842 -2.22
973.43359375 2.667064 0.642064 -2.025
974.19140625 2.889186 0.689206 -2.19998
974.82421875 2.828135 0.638135 -2.19
975.67578125 2.673708 0.533951 -2.139757
976.4765625 2.886282 0.536282 -2.35
977.28125 2.9429540000000003 0.486607 -2.456347
978.046875 2.722891 0.538253 -2.184638
978.8203125 2.943679 0.726667 -2.217012
979.5859375 3.022598 0.599437 -2.423161
980.359375 2.862693 0.648693 -2.214
981.1484375 3.0278099999999997 0.743092 -2.284718
981.9375 2.6881749999999998 0.675449 -2.012726
982.69921875 2.9247199999999998 0.75972 -2.165
983.46484375 2.976347 0.586347 -2.39
984.1328125 3.087146 0.74763 -2.339516
985.01171875 2.759468 0.409909 -2.349559
985.828125 2.831873 0.608994 -2.222879
986.625 2.818512 0.765 -2.053512
987.38671875 2.9338830000000002 0.766105 -2.167778
988.171875 2.871128 0.60655 -2.264578
988.96484375 2.9265540000000003 0.731752 -2.194802
989.73828125 2.919871 0.660877 -2.258994
990.5078125 2.660262 0.430487 -2.229775
991.2890625 2.653917 0.62381 -2.030107
992.0625 2.637853 0.692897 -1.944956
992.8359375 2.768642 0.809794 -1.958848
993.62890625 2.9177060000000004 0.858407 -2.059299
994.390625 2.82924 0.654487 -2.174753
995.171875 2.665787 0.598681 -2.067106
995.94921875 2.685436 0.685436 -2.0
996.71875 2.794396 0.744604 -2.049792
997.49609375 2.918921 0.609477 -2.309444
997.9921875 2.408042 0.864304 -1.543738
999.0703125 2.7491000000000003 0.552458 -2.196642
999.86328125 2.817372 0.593157 -2.224215
1000.6640625 2.849413 0.609475 -2.239938
1001.4453125 2.744684 0.536718 -2.207966
1002.21484375 2.712666 0.540623 -2.172043
1002.99609375 2.828592 0.629041 -2.199551
1003.79296875 2.714102 0.546966 -2.167136
1004.58203125 2.708932 0.583932 -2.125
1005.1953125 2.824734 0.894734 -1.93
1006.06640625 2.73634 0.627317 -2.109023
1006.93359375 2.761581 0.623866 -2.137715
1007.7734375 2.795789 0.620789 -2.175
1008.6171875 2.715411 0.569092 -2.146319
1009.4375 2.7383629999999997 0.574286 -2.164077
1010.2734375 2.783711 0.613711 -2.17
1011.09375 2.73205 0.562273 -2.169777
1011.93359375 2.698524 0.508531 -2.189993
1012.75390625 2.681295 0.379908 -2.301387
1013.58203125 2.7148120000000002 0.422022 -2.29279
1014.41796875 2.6433050000000002 0.458473 -2.184832
1015.23828125 2.750328 0.490227 -2.260101
1016.05078125 2.708103 0.443888 -2.264215
1016.87890625 2.798304 0.459151 -2.339153
1018.43359375 2.761758 0.36 -2.401758
1019.26953125 2.719017 0.414759 -2.304258
1020.125 2.7449999999999997 0.445 -2.3
1020.9375 2.618187 0.616897 -2.00129
1021.75 2.56 0.62 -1.94
1022.578125 2.782785 0.53425 -2.248535
1023.3828125 2.709168 0.224565 -2.484603
1024.1796875 2.6403909999999997 0.229478 -2.410913
1024.984375 2.723014 0.449554 -2.27346
1025.79296875 2.75555 0.487402 -2.268148
1026.58984375 2.837832 0.543374 -2.294458
1027.390625 2.6132809999999997 0.607721 -2.00556
1028.19140625 2.837871 0.637877 -2.199994
1028.99609375 2.6961190000000004 0.601119 -2.095
1029.796875 2.82625 0.627742 -2.198508
1030.60546875 2.834853 0.659853 -2.175
1031.41796875 2.7379610000000003 0.657961 -2.08
1032.21484375 2.873234 0.720089 -2.153145
1033.0 2.756691 0.62 -2.136691
1033.8046875 2.7642949999999997 0.604529 -2.159766
1034.59765625 2.613048 0.531727 -2.081321
1035.36328125 2.682149 0.572149 -2.11
1036.1328125 2.724597 0.544597 -2.18
1036.921875 2.629448 0.574917 -2.054531
1037.69140625 2.74168 0.574954 -2.166726
1038.48046875 2.5697970000000003 0.469797 -2.1
1039.2890625 2.6336399999999998 0.584364 -2.049276
1040.07421875 2.6426749999999997 0.612675 -2.03
1040.86328125 2.670712 0.635712 -2.035
1041.6796875 2.780844 0.687602 -2.093242
1042.48828125 2.649813 0.59 -2.059813
1043.29296875 2.69932 0.664344 -2.034976
1044.1015625 2.58463 0.654659 -1.929971
1044.90234375 2.67238 0.714989 -1.957391
1045.6953125 2.67617 0.656596 -2.019574
1046.51171875 2.562982 0.628346 -1.934636
1047.10546875 2.795218 0.899896 -1.895322
1048.0 2.545 0.55 -1.995
1048.8359375 2.489469 0.569427 -1.920042
1049.6484375 2.632471 0.628125 -2.004346
1050.4765625 2.435266 0.395477 -2.039789
1051.296875 2.5471459999999997 0.489362 -2.057784
1052.08203125 2.440618 0.468848 -1.97177
1052.90625 2.444995 0.539995 -1.905
1054.3828125 2.454908 0.579908 -1.875
1055.23828125 2.453907 0.552032 -1.901875
1056.08203125 2.527939 0.577178 -1.950761
1056.890625 2.509866 0.601935 -1.907931
1057.703125 2.539218 0.627674 -1.911544
1058.54296875 2.439305 0.623213 -1.816092
1059.33203125 2.405267 0.597115 -1.808152
1060.125 2.47904 0.495 -1.98404
1060.9296875 2.495803 0.607711 -1.888092
1061.70703125 2.446878 0.509182 -1.937696
1062.5 2.584707 0.63 -1.954707
1063.30859375 2.64834 0.698354 -1.949986
1064.11328125 2.566205 0.620877 -1.945328
1064.921875 2.558188 0.643668 -1.91452
1065.74609375 2.38413 0.639405 -1.744725
1066.546875 2.44429 0.72929 -1.715
1067.390625 2.674763 0.741263 -1.9335
1068.22265625 2.681849 0.675916 -2.005933
1069.05078125 2.8321959999999997 0.727524 -2.104672
1069.859375 2.863021 0.713652 -2.149369
1070.68359375 2.815302 0.747575 -2.067727
1071.4921875 2.849616 0.754616 -2.095
1072.3125 2.9337030000000004 0.823717 -2.109986
1073.13671875 2.9048689999999997 0.819997 -2.084872
1073.9296875 2.934609 0.780566 -2.154043
1074.7734375 2.874238 0.726557 -2.147681
1075.58984375 2.790607 0.653 -2.137607
1076.38671875 2.8850540000000002 0.652264 -2.23279
1077.21875 2.884477 0.695703 -2.188774
1078.01953125 3.0115160000000003 0.721516 -2.29
1078.82421875 2.8520700000000003 0.629577 -2.222493
1079.6484375 2.903997 0.584688 -2.319309
1080.46484375 2.743098 0.598098 -2.145
1081.26171875 2.432617 0.797617 -1.635
1082.046875 2.298093 0.779916 -1.518177
1082.8359375 2.592625 0.769207 -1.823418
1083.62890625 2.717819 0.709333 -2.008486
1084.42578125 2.5952140000000004 0.411093 -2.184121
1085.23046875 2.4828970000000004 0.469889 -2.013008
1085.9921875 2.625568 0.460568 -2.165
1086.7734375 2.861481 0.506614 -2.354867
1087.5546875 2.941436 0.446783 -2.494653
1088.3515625 2.8399859999999997 0.425 -2.414986
1089.1328125 2.875174 0.427 -2.448174
1089.9296875 2.7916169999999996 0.402601 -2.389016
1090.75 2.843956 0.535 -2.308956
1091.5546875 2.864162 0.54431 -2.319852
1092.375 2.8649999999999998 0.545 -2.32
1093.17578125 2.903729 0.578954 -2.324775
1094.0078125 2.732562 0.503086 -2.229476
1094.82421875 2.7499190000000002 0.526861 -2.223058
1095.640625 2.786724 0.576892 -2.209832
1096.49609375 2.661636 0.551861 -2.109775
1097.31640625 2.691635 0.526968 -2.164667
1098.12890625 2.69074 0.47415 -2.21659
1098.98046875 2.799525 0.584819 -2.214706
1099.81640625 2.554355 0.441201 -2.113154
1100.640625 2.649651 0.39068 -2.258971
1101.453125 2.328332 0.198332 -2.13
1102.23828125 2.7148389999999996 0.500732 -2.214107
1103.046875 2.697452 0.408901 -2.288551
1103.8828125 2.5757019999999997 0.299594 -2.276108
1104.69921875 2.51221 0.46338 -2.04883
1105.515625 2.416569 0.332933 -2.083636
1106.31640625 2.352927 0.524206 -1.828721
1107.13671875 2.454218 0.569218 -1.885
1107.953125 2.510797 0.395468 -2.115329
1108.76953125 2.5843439999999998 0.499745 -2.084599
1109.3515625 2.619224 0.964552 -1.654672
1110.1953125 2.495843 0.608152 -1.887691
1111.05078125 2.187295 0.390286 -1.797009
1111.83984375 2.295868 0.375868 -1.92
1112.68359375 2.472094 0.359546 -2.112548
1113.5234375 2.451398 0.331645 -2.119753
1114.33984375 2.433122 0.256835 -2.176287
1115.18359375 2.5148460000000004 0.339904 -2.174942
1116.046875 2.391492 0.26533 -2.126162
1116.875 2.454458 0.4 -2.054458
1117.6953125 2.673968 0.547767 -2.126201
1118.52734375 2.609905 0.524905 -2.085
1119.34375 2.571293 0.521293 -2.05
1120.16796875 2.5235819999999998 0.444769 -2.078813
1121.0078125 2.48205 0.48205 -2.0
1121.80078125 2.321189 0.560045 -1.761144
1122.60546875 2.669913 0.614913 -2.055
1123.47265625 2.5563179999999996 0.418592 -2.137726
1124.30859375 2.265346 0.401002 -1.864344
1125.1171875 2.680581 0.547981 -2.1326
1125.95703125 2.5570510000000004 0.462051 -2.095
1126.78125 2.743827 0.576744 -2.167083
1127.60546875 2.7655790000000002 0.32485 -2.440729
1128.43359375 2.838488 0.39851 -2.439978
1129.25 2.6818980000000003 0.345 -2.336898
1129.86328125 3.023905 0.699296 -2.324609
1130.75 2.8298880000000004 0.635 -2.194888
1131.58203125 2.859582 0.810571 -2.049011
1132.4375 2.854571 0.888837 -1.965734
1133.2734375 2.9481710000000003 0.966126 -1.982045
1134.0859375 2.8898159999999997 1.014816 -1.875
1134.93359375 2.817095 0.867102 -1.949993
1135.7578125 2.901168 0.922528 -1.97864
1136.59375 2.944355 0.913074 -2.031281
1137.453125 2.928493 0.838764 -2.089729
1138.95703125 2.883826 0.733826 -2.15
1139.828125 2.848629 0.638629 -2.21
1140.6875 2.918696 0.653696 -2.265
1141.54296875 2.898217 0.647098 -2.251119
1142.37109375 2.8209239999999998 0.665456 -2.155468
1143.2109375 2.920995 0.704605 -2.21639
1144.0625 2.874386 0.719394 -2.154992
1144.90625 2.9271329999999995 0.786141 -2.140992
1145.7421875 2.894731 0.768222 -2.126509
1146.58203125 2.817688 0.767557 -2.050131
1147.41796875 2.7866920000000004 0.716804 -2.069888
1148.2578125 2.789819 0.749819 -2.04
1149.11328125 2.798312 0.754099 -2.044213
1149.94921875 2.719842 0.649203 -2.070639
1150.78125 2.8247790000000004 0.795456 -2.029323
1151.6328125 2.750492 0.730604 -2.019888
1152.48046875 2.6941949999999997 0.764953 -1.929242
1153.3203125 2.7743640000000003 0.784697 -1.989667
1154.18359375 2.643383 0.723383 -1.92
1155.0078125 2.651948 0.789267 -1.862681
1155.8359375 2.729812 0.844492 -1.88532
1156.69921875 2.613156 0.777395 -1.835761
1157.53125 2.6154770000000003 0.808333 -1.807144
1158.34765625 2.745943 0.868931 -1.877012
1159.1796875 2.600656 0.819006 -1.78165
1159.99609375 2.6972199999999997 0.80722 -1.89
1160.81640625 2.708376 0.978802 -1.729574
1161.6484375 2.648948 0.789772 -1.859176
1162.4921875 2.519993 0.64002 -1.879973
1163.30859375 2.527761 0.578933 -1.948828
1164.1171875 2.669947 0.509947 -2.16
1164.953125 2.350531 0.35284 -1.997691
1165.7734375 2.299603 0.328655 -1.970948
1166.56640625 2.448658 0.473239 -1.975419
1167.35546875 2.659955 0.484955 -2.175
1168.1796875 2.388617 0.356583 -2.032034
1168.984375 2.321276 0.361276 -1.96
1169.77734375 2.4844609999999996 0.46777 -2.016691
1170.58984375 2.552933 0.37357 -2.179363
1171.3828125 2.136776 0.631139 -1.505637
1172.16796875 2.206002 0.551769 -1.654233
1172.95703125 2.089752 0.611861 -1.477891
1173.6328125 2.413071 0.648265 -1.764806
1174.48828125 2.49732 0.492545 -2.004775
1175.27734375 2.678385 0.383931 -2.294454
1176.0859375 2.5913370000000002 0.424932 -2.166405
1176.85546875 2.58977 0.21477 -2.375
1177.6328125 2.685199 0.480292 -2.204907
1178.28515625 2.6831139999999998 0.793136 -1.889978
1179.12109375 2.711151 0.759132 -1.952019
1179.91015625 2.660223 0.750714 -1.909509
1180.66796875 2.690554 0.821255 -1.869299
1181.4375 2.7267520000000003 0.744097 -1.982655
1182.1953125 2.8820959999999998 0.802148 -2.079948
1182.95703125 2.8353330000000003 0.757963 -2.07737
1183.71484375 2.932359 0.703072 -2.229287
1184.48828125 2.844713 0.664768 -2.179945
1185.2734375 3.0157320000000003 0.691355 -2.324377
1186.05859375 2.9907719999999998 0.64137 -2.349402
1186.875 3.0200000000000005 0.655 -2.365
1187.66796875 3.070203 0.625266 -2.444937
1188.453125 2.94236 0.572031 -2.370329
1189.2734375 3.0478549999999998 0.623455 -2.4244
1190.0703125 3.088302 0.683621 -2.404681
1190.87109375 2.989917 0.603063 -2.386854
1191.66015625 3.025686 0.735823 -2.289863
1192.4609375 3.1180959999999995 0.789248 -2.328848
1193.25 2.8354679999999997 0.695 -2.140468
1194.046875 2.651684 0.726875 -1.924809
1194.84765625 2.507517 0.617742 -1.889775
1195.6171875 2.559391 0.734411 -1.82498
1196.2578125 2.824935 0.810027 -2.014908
1197.1796875 2.888288 0.620322 -2.267966
1198.00390625 2.970236 0.596406 -2.37383
1198.80859375 2.937909 0.672457 -2.265452
1199.6015625 2.8828950000000004 0.62205 -2.260845
1200.4140625 2.938171 0.654659 -2.283512
1201.2265625 2.8626110000000002 0.551702 -2.310909
1202.046875 2.91243 0.523859 -2.388571
1202.875 2.88957 0.535 -2.35457
1203.69921875 2.832033 0.488738 -2.343295
1204.51953125 2.791575 0.481575 -2.31
1205.328125 2.804856 0.521863 -2.282993
1206.1796875 2.798507 0.604491 -2.194016
1207.0078125 2.788494 0.634149 -2.154345
1207.82421875 2.784114 0.559114 -2.225
1208.65625 2.821484 0.471923 -2.349561
1209.48046875 2.914975 0.534975 -2.38
1210.30078125 2.6208110000000002 0.31584 -2.304971
1211.14453125 2.7849280000000003 0.604928 -2.18
1211.96484375 2.681279 0.536279 -2.145
1212.7734375 2.675066 0.495234 -2.179832
1213.609375 2.730976 0.621713 -2.109263
1214.45703125 2.7227829999999997 0.752783 -1.97
1215.29296875 2.761133 0.826284 -1.934849
1216.13671875 2.671696 0.904196 -1.7675
1216.96875 2.725461 0.900461 -1.825
1217.80859375 2.684309 0.879309 -1.805
1218.6640625 2.740249 0.939214 -1.801035
1219.50390625 2.718781 0.903781 -1.815
1220.34765625 2.637241 0.926727 -1.710514
1221.18359375 2.6446810000000003 0.834687 -1.809994
1222.01171875 2.699851 0.75949 -1.940361
1222.859375 2.635153 0.663715 -1.971438
1223.7109375 2.584931 0.684931 -1.9
1224.51171875 2.652256 0.67 -1.982256
1225.35546875 2.569446 0.594774 -1.974672
1226.1875 2.575379 0.597225 -1.978154
1226.99609375 2.7167839999999996 0.660538 -2.056246
1227.85546875 2.61932 0.629995 -1.989325
1228.6796875 2.48507 0.61007 -1.875
1229.48046875 2.608711 0.651611 -1.9571
1230.3046875 2.6458559999999998 0.636265 -2.009591
1231.13671875 2.483627 0.653166 -1.830461
1231.9453125 2.667105 0.813384 -1.853721
1232.7421875 2.683989 0.848989 -1.835
1233.5546875 2.638528 0.827615 -1.810913
1234.34375 2.7190659999999998 0.744679 -1.974387
1235.16015625 2.773654 0.673654 -2.1
1235.9765625 2.7358599999999997 0.650898 -2.084962
1236.765625 2.406853 0.992853 -1.414
1237.5625 2.152414 0.983192 -1.169222
1238.31640625 2.580872 1.045872 -1.535
1239.13671875 2.776822 0.892014 -1.884808
1239.953125 2.560758 0.704265 -1.856493
1240.73828125 2.460397 0.655608 -1.804789
1241.5390625 2.5744800000000003 0.699648 -1.874832
1242.328125 2.573055 0.645176 -1.927879
1243.11328125 2.7835229999999997 0.665063 -2.11846
1243.6875 2.890677 0.755169 -2.135508
1244.55859375 2.538049 0.528049 -2.01
1245.35546875 2.704955 0.57 -2.134955
1246.14453125 2.8205549999999997 0.529771 -2.290784
1246.98046875 2.825249 0.454797 -2.370452
1247.79296875 2.671779 0.401456 -2.270323
1248.59765625 2.772742 0.599873 -2.172869
1249.4140625 2.7824839999999997 0.607484 -2.175
1250.234375 2.854281 0.349281 -2.505
1251.0390625 2.719781 0.264957 -2.454824
1251.87109375 2.795699 0.505811 -2.289888
1252.7109375 2.819906 0.689906 -2.13
1253.53125 2.719675 0.704675 -2.015
1254.3671875 2.69163 0.761657 -1.929973
1255.2109375 2.771731 0.768861 -2.00287
1256.046875 2.7352589999999997 0.682708 -2.052551
1256.90625 2.683661 0.549432 -2.134229
1257.7265625 2.6526769999999997 0.642699 -2.009978
1258.57421875 2.697569 0.714809 -1.98276
1259.4375 2.686726 0.795 -1.891726
1260.28515625 2.689286 0.804625 -1.884661
1261.15234375 2.7145960000000002 0.784913 -1.929683
1262.015625 2.668027 0.823027 -1.845
1262.8515625 2.668596 0.753603 -1.914993
1263.73046875 2.640301 0.69492 -1.945381
1264.5859375 2.569571 0.599571 -1.97
1265.4375 2.5626 0.7126 -1.85
1266.30078125 2.508043 0.59 -1.918043
1267.16015625 2.5772 0.5472 -2.03
1268.0234375 2.504734 0.474985 -2.029749
1268.90625 2.5633150000000002 0.565243 -1.998072
1269.76171875 2.465037 0.463438 -2.001599
1270.625 2.535 0.495 -2.04
1271.5 2.428318 0.535 -1.893318
1272.3671875 2.3118369999999997 0.591837 -1.72
1273.21484375 2.437082 0.627695 -1.809387
1274.05078125 2.505271 0.631164 -1.874107
1274.91015625 2.270914 0.480914 -1.79
1275.75390625 2.407464 0.617464 -1.79
1276.59375 2.442152 0.637152 -1.805
1277.45703125 2.3586169999999997 0.648202 -1.710415
1278.2890625 2.474456 0.738988 -1.735468
1279.109375 2.4762500000000003 0.68625 -1.79
1279.9765625 2.352855 0.659964 -1.692891
1280.80859375 2.558705 0.819155 -1.73955
1281.6328125 2.582697 0.834395 -1.748302
1282.48046875 2.558975 0.754805 -1.80417
1283.328125 2.585253 0.740253 -1.845
1284.16015625 2.714278 0.735 -1.979278
1285.0234375 2.641414 0.686631 -1.954783
1285.875 2.654953 0.77 -1.884953
1286.6875 2.726154 0.881154 -1.845
1287.52734375 2.4082719999999997 0.75957 -1.648702
1288.3671875 2.47495 0.765038 -1.709912
1289.171875 2.669382 0.759408 -1.909974
1289.97265625 2.647012 0.679453 -1.967559
1290.8125 2.478485 0.583849 -1.894636
1291.60546875 2.727448 0.643674 -2.083774
1292.42578125 2.877764 0.582764 -2.295
1293.2734375 2.710533 0.425408 -2.285125
1294.078125 2.849609 0.547804 -2.301805
1294.91796875 2.915343 0.573545 -2.341798
1295.76171875 2.744363 0.569363 -2.175
1296.58984375 2.899493 0.714493 -2.185
1297.421875 3.072823 0.78837 -2.284453
1298.23828125 2.8602100000000004 0.743844 -2.116366
1299.07421875 2.8051440000000003 0.773754 -2.03139
1299.89453125 3.019433 0.875298 -2.144135
1300.703125 3.0990149999999996 0.864015 -2.235
1301.54296875 2.900665 0.738833 -2.161832
1302.359375 2.96664 0.81164 -2.155
1303.1640625 3.0447509999999998 0.809283 -2.235468
1303.99609375 2.9437480000000003 0.666723 -2.277025
1304.828125 2.904579 0.734448 -2.170131
1305.64453125 2.950833 0.735 -2.215833
1306.4609375 3.049193 0.769193 -2.28
1307.3125 2.91175 0.7126 -2.19915
1308.12890625 3.011212 0.736272 -2.27494
1308.9609375 3.1123760000000003 0.759586 -2.35279
1309.8203125 2.995256 0.611135 -2.384121
1310.6484375 2.905974 0.565513 -2.340461
1311.47265625 3.0284259999999996 0.583467 -2.444959
1312.328125 2.9299009999999996 0.535824 -2.394077
1313.15234375 2.861563 0.436814 -2.424749
1313.9921875 2.712351 0.427816 -2.284535
1314.8046875 2.8426839999999998 0.465213 -2.377471
1315.6328125 2.8734170000000003 0.508973 -2.364444
1316.484375 2.8108319999999996 0.441816 -2.369016
1317.3203125 2.8078179999999997 0.467818 -2.34
1318.16796875 2.808737 0.498737 -2.31
1319.0234375 2.678154 0.384716 -2.293438
1319.8671875 2.7214769999999997 0.486509 -2.234968
1320.73828125 2.762692 0.523692 -2.239
1321.59765625 2.6931839999999996 0.49861 -2.194574
1322.453125 2.715919 0.58804 -2.127879
1323.30859375 2.809356 0.674366 -2.13499
1324.171875 2.732787 0.639153 -2.093634
1325.0234375 2.7318930000000003 0.636893 -2.095
1325.8984375 2.6512860000000003 0.597786 -2.0535
1326.75390625 2.603132 0.503991 -2.099141
1327.6015625 2.6110569999999997 0.501269 -2.109788
1328.47265625 2.7054750000000003 0.560461 -2.145014
1329.34765625 2.6007599999999997 0.526932 -2.073828
1330.20703125 2.619148 0.495538 -2.12361
1331.0625 2.709369 0.444375 -2.264994
1331.94140625 2.569662 0.374707 -2.194955
1332.796875 2.666994 0.5321 -2.134894
1334.35546875 2.556796 0.503577 -2.053219
1335.2421875 2.504299 0.504411 -1.999888
1336.09375 2.691773 0.410608 -2.281165
1336.92578125 2.773726 0.158975 -2.614751
1337.734375 2.456242 0.318765 -2.137477
1338.546875 2.525058 0.512274 -2.012784
1339.3125 2.721802 0.414859 -2.306943
1340.1171875 2.810747 0.560747 -2.25
1340.7890625 2.707583 0.694071 -2.013512
1341.65625 2.877409 0.746429 -2.13098
1342.51171875 2.682874 0.663554 -2.01932
1343.34375 2.680975 0.820975 -1.86
1344.15625 2.967848 0.975257 -1.992591
1345.00390625 2.671185 0.771185 -1.9
1345.85546875 2.805659 0.87493 -1.930729
1346.67578125 2.822572 0.798353 -2.024219
1347.48828125 2.888364 0.768364 -2.12
1348.33984375 2.679028 0.681687 -1.997341
1349.16015625 2.7959300000000002 0.78093 -2.015
1349.98046875 2.82496 0.829989 -1.994971
1350.828125 2.6260779999999997 0.803512 -1.822566
1351.6484375 2.6751579999999997 0.730259 -1.944899
1352.47265625 2.818339 0.753411 -2.064928
1353.296875 2.8915990000000003 0.661599 -2.23
1354.140625 2.848027 0.675527 -2.1725
1354.9765625 2.920039 0.636716 -2.283323
1355.7890625 2.902011 0.609658 -2.292353
1356.640625 2.792833 0.599262 -2.193571
1357.296875 2.909158 0.761502 -2.147656
1358.296875 2.998027 0.676152 -2.321875
1358.85546875 2.670276 0.964778 -1.705498
1359.93359375 2.859334 0.616443 -2.242891
1360.78515625 3.0345129999999996 0.721093 -2.31342
1361.66015625 3.000832 0.720978 -2.279854
1362.51953125 2.8698309999999996 0.669983 -2.199848
1363.3671875 2.937733 0.687809 -2.249924
1364.21875 2.962277 0.62309 -2.339187
1365.08203125 2.935047 0.58509 -2.349957
1365.71484375 3.03247 0.765948 -2.266522
1366.734375 2.770092 0.672986 -2.097106
1367.6640625 2.744298 0.68 -2.064298
1368.55859375 2.8685650000000003 0.683946 -2.184619
1369.4453125 2.874941 0.654941 -2.22
1370.3359375 2.801869 0.627721 -2.174148
1371.2265625 2.644997 0.525011 -2.119986
1372.09375 2.723341 0.453341 -2.27
1372.953125 2.795951 0.471874 -2.324077
1373.8125 2.8228679999999997 0.492895 -2.329973
1374.6875 2.70793 0.4175 -2.29043
1375.55859375 2.808258 0.489296 -2.318962
1376.4296875 2.780627 0.462627 -2.318
1377.296875 2.7191929999999997 0.459256 -2.259937
1378.17578125 2.762192 0.517192 -2.245
1379.06640625 2.690197 0.458262 -2.231935
1379.9453125 2.8640410000000003 0.554041 -2.31
1380.5703125 2.8066180000000003 0.626501 -2.180117
1381.60546875 2.63472 0.364945 -2.269775
1382.52734375 2.674473 0.359724 -2.314749
1383.046875 2.4528980000000002 0.793072 -1.659826
1384.3046875 2.575163 0.378741 -2.196422
1385.18359375 2.6332969999999998 0.478297 -2.155
1386.05078125 2.725913 0.550913 -2.175
1386.70703125 2.689898 0.57605 -2.113848
1387.71484375 2.58878 0.421944 -2.166836
1388.62890625 2.535822 0.390927 -2.144895
1389.53515625 2.601712 0.478096 -2.123616
1390.4296875 2.5903799999999997 0.435554 -2.154826
1391.32421875 2.529577 0.429577 -2.1
1392.23828125 2.540837 0.357426 -2.183411
1393.12890625 2.574882 0.3607 -2.214182
1394.0078125 2.499575 0.400255 -2.09932
1394.90234375 2.557413 0.422413 -2.135
1395.76953125 2.664189 0.499189 -2.165
1396.62890625 2.6300589999999997 0.475059 -2.155
1397.515625 2.5951839999999997 0.468066 -2.127118
1398.140625 2.753224 0.591784 -2.16144
1399.171875 2.710864 0.49115 -2.219714
1400.11328125 2.7173870000000004 0.602387 -2.115
1400.99609375 2.691827 0.558231 -2.133596
1401.8828125 2.835604 0.600424 -2.23518
1402.7890625 2.9113979999999997 0.66661 -2.244788
1403.66015625 2.606282 0.605951 -2.000331
1404.5390625 2.8650390000000003 0.769385 -2.095654
1405.40625 2.978869 0.784328 -2.194541
1406.25390625 2.9304740000000002 0.73342 -2.197054
1407.12890625 2.724355 0.694955 -2.0294
1407.984375 2.905704 0.746276 -2.159428
1408.61328125 3.015874 0.80751 -2.208364
1409.6015625 2.850098 0.665261 -2.184837
1410.453125 2.7750580000000005 0.656128 -2.11893
1411.32421875 2.957011 0.702648 -2.254363
1412.1875 2.906542 0.535813 -2.370729
1412.80078125 2.8148370000000003 0.635218 -2.179619
1413.75 2.8997070000000003 0.6 -2.299707
1414.6015625 3.057957 0.676092 -2.381865
1415.4453125 2.831329 0.587467 -2.243862
1416.30859375 2.8785670000000003 0.703574 -2.174993
1416.92578125 2.88492 0.75992 -2.125
1417.8828125 2.841921 0.604813 -2.237108
1418.73046875 2.779396 0.734865 -2.044531
1419.59765625 2.821018 0.769917 -2.051101
1420.4453125 2.932767 0.783412 -2.149355
1421.28125 2.706705 0.76735 -1.939355
1422.125 2.71 0.79 -1.92
1422.9609375 2.854687 0.859687 -1.995
1423.578125 2.929816 0.898327 -2.031489
1424.5703125 2.768228 0.775662 -1.992566
1425.421875 2.8890249999999997 0.809281 -2.079744
1426.28125 2.901733 0.78241 -2.119323
1426.9140625 2.896071 0.892813 -2.003258
1427.8828125 2.8027059999999997 0.749814 -2.052892
1428.7578125 2.8282680000000004 0.654514 -2.173754
1429.61328125 2.762021 0.58947 -2.172551
1430.25 2.8082019999999996 0.695 -2.113202
1431.2265625 2.7570289999999997 0.582029 -2.175
1432.109375 2.6897830000000003 0.535877 -2.153906
1432.984375 2.712824 0.562977 -2.149847
1433.84375 2.745622 0.563074 -2.182548
1434.6953125 2.630613 0.485 -2.145613
1435.57421875 2.552523 0.537523 -2.015
1436.41796875 2.641827 0.539952 -2.101875
1437.25390625 2.606703 0.493252 -2.113451
1438.1171875 2.5972239999999998 0.551833 -2.045391
1438.96875 2.542212 0.458135 -2.084077
1439.8125 2.557783 0.497812 -2.059971
1440.6953125 2.564512 0.495407 -2.069105
1441.56640625 2.6074759999999997 0.51252 -2.094956
1442.41796875 2.5700819999999998 0.515573 -2.054509
1443.296875 2.59659 0.539039 -2.057551
1444.16796875 2.5550469999999996 0.490172 -2.064875
1445.03515625 2.601066 0.541476 -2.05959
1445.8984375 2.535528 0.522042 -2.013486
1446.7578125 2.602922 0.573886 -2.029036
1447.625 2.614355 0.5 -2.114355
1448.5 2.5910349999999998 0.445 -2.146035
1449.390625 2.5303050000000002 0.415305 -2.115
1450.25390625 2.550581 0.340581 -2.21
1451.125 2.525 0.33 -2.195
1452.0234375 2.495484 0.363358 -2.132126
1452.89453125 2.67468 0.444874 -2.229806
1453.73828125 2.66052 0.29445 -2.36607
1454.6015625 2.750654 0.315654 -2.435
1455.47265625 2.5522839999999998 0.333134 -2.21915
1456.32421875 2.650627 0.410627 -2.24
1457.1796875 2.725937 0.439655 -2.286282
1458.0390625 2.739008 0.464046 -2.274962
1458.8984375 2.591712 0.49836 -2.093352
1459.75390625 2.701383 0.560087 -2.141296
1460.609375 2.785148 0.535148 -2.25
1461.453125 2.700218 0.458828 -2.24139
1462.3046875 2.5260949999999998 0.453368 -2.072727
1463.16796875 2.615025 0.455025 -2.16
1464.015625 2.7726569999999997 0.509877 -2.26278
1464.890625 2.634922 0.519138 -2.115784
1465.7578125 2.682318 0.59247 -2.089848
1466.59765625 2.841809 0.582901 -2.258908
1467.4453125 2.7629 0.518984 -2.243916
1468.3046875 2.617108 0.502695 -2.114413
1469.140625 2.77294 0.538187 -2.234753
1469.98046875 2.874858 0.549872 -2.324986
1470.80078125 2.7497749999999996 0.49 -2.259775
1471.65234375 2.5521420000000004 0.43407 -2.118072
1472.4921875 2.745101 0.495244 -2.249857
1473.31640625 2.839694 0.40973 -2.429964
1474.17578125 2.666007 0.337647 -2.32836
1475.0234375 2.611663 0.366663 -2.245
1475.84375 2.763036 0.398082 -2.364954
1476.7109375 2.7190209999999997 0.344254 -2.374767
1477.21484375 2.431101 0.783222 -1.647879
1478.35546875 2.694839 0.369839 -2.325
1479.20703125 2.699709 0.339709 -2.36
1480.04296875 2.597807 0.382807 -2.215
1480.8671875 2.617161 0.412696 -2.204465
1481.6953125 2.696243 0.391614 -2.304629
1482.5390625 2.503666 0.308722 -2.194944
1483.37109375 2.568413 0.368413 -2.2
1484.1953125 2.657024 0.367326 -2.289698
1485.05078125 2.5774980000000003 0.372498 -2.205
1485.90625 2.6346420000000004 0.47359 -2.161052
1486.74609375 2.618885 0.428941 -2.189944
1487.5859375 2.565849 0.369397 -2.196452
1488.44921875 2.524587 0.369587 -2.155
1489.30078125 2.485346 0.310346 -2.175
1490.15625 2.581849 0.364397 -2.217452
1491.02734375 2.4339749999999998 0.279333 -2.154642
1491.875 2.364355 0.245 -2.119355
1492.71484375 2.559278 0.370669 -2.188609
1493.578125 2.453061 0.278984 -2.174077
1494.42578125 2.523827 0.370081 -2.153746
1495.25390625 2.561275 0.396275 -2.165
1496.1171875 2.503762 0.363818 -2.139944
1496.9765625 2.3673610000000003 0.335789 -2.031572
1497.8359375 2.457249 0.45437 -2.002879
1498.71484375 2.59269 0.550142 -2.042548
1499.578125 2.589258 0.469551 -2.119707
1500.453125 2.583676 0.503676 -2.08
1501.3359375 2.692827 0.539217 -2.15361
1502.203125 2.68794 0.544092 -2.143848
1503.07421875 2.601601 0.472799 -2.128802
1503.9296875 2.793109 0.599932 -2.193177
1504.79296875 2.7779870000000004 0.583534 -2.194453
1505.6640625 2.754421 0.554646 -2.199775
1506.515625 2.8676440000000003 0.594158 -2.273486
1507.390625 2.846403 0.611473 -2.23493
1508.26953125 2.8199129999999997 0.689913 -2.13
1509.11328125 2.92657 0.635669 -2.290901
1509.98828125 2.961206 0.644331 -2.316875
1510.8515625 2.897334 0.530944 -2.36639
1511.69921875 2.9654870000000004 0.560948 -2.404539
1512.57421875 2.940163 0.513876 -2.426287
1513.43359375 2.927983 0.583189 -2.344794
1514.27734375 3.04718 0.657717 -2.389463
1515.14453125 3.090529 0.65084 -2.439689
1515.9921875 2.9578189999999998 0.637428 -2.320391
1516.828125 3.0464119999999997 0.684919 -2.361493
1517.703125 3.059275 0.705267 -2.354008
1518.546875 2.993129 0.788129 -2.205
1519.39453125 3.074159 0.799711 -2.274448
1520.25390625 3.006907 0.801214 -2.205693
1521.09375 2.832512 0.740144 -2.092368
1521.9375 3.050281 0.865381 -2.1849
1522.78125 2.96073 0.739766 -2.220964
1523.62890625 2.741718 0.622131 -2.119587
1524.47265625 2.93526 0.820916 -2.114344
1525.3046875 2.954287 0.794287 -2.16
1526.16015625 2.812264 0.757802 -2.054462
1527.01953125 2.835927 0.614677 -2.22125
1527.62109375 2.999355 0.814482 -2.184873
1528.5078125 2.819344 0.640056 -2.179288
1529.375 2.841933 0.73 -2.111933
1530.20703125 2.8 0.73 -2.07
1531.0703125 2.844644 0.721822 -2.122822
1531.91796875 2.759164 0.761687 -1.997477
1532.75 2.748202 0.74 -2.008202
1533.58984375 2.8578639999999997 0.767864 -2.09
1534.44921875 2.7477329999999998 0.697733 -2.05
1535.29296875 2.622476 0.667775 -1.954701
1536.125 2.8120249999999998 0.715 -2.097025
1536.96484375 2.7510589999999997 0.596059 -2.155
1537.796875 2.569612 0.559612 -2.01
1538.6328125 2.672814 0.603345 -2.069469
1539.46875 2.7226589999999997 0.603938 -2.118721
1540.29296875 2.653904 0.598967 -2.054937
1541.1171875 2.570208 0.594817 -1.975391
1541.9453125 2.629777 0.587017 -2.04276
1542.76171875 2.783996 0.672475 -2.111521
1543.60546875 2.634877 0.634877 -2.0
1544.41796875 2.64633 0.631795 -2.014535
1545.25 2.63457 0.58 -2.05457
1546.09375 2.5722389999999997 0.59968 -1.972559
1546.640625 2.267353 0.937627 -1.329726
1547.4609375 2.681117 0.649665 -2.031452
1548.51171875 2.4596069999999997 0.429607 -2.03
1549.375 2.574859 0.525 -2.049859
1550.24609375 2.5433879999999998 0.516905 -2.026483
1551.1015625 2.474877 0.474877 -2.0
1551.94921875 2.572767 0.463412 -2.109355
1552.796875 2.58576 0.468283 -2.117477
1553.64453125 2.494025 0.449989 -2.044036
1554.46875 2.6392230000000003 0.527563 -2.11166
1555.3125 2.562237 0.447237 -2.115
1556.171875 2.529267 0.524267 -2.005
1556.9921875 2.699787 0.59686 -2.102927
1557.828125 2.7082829999999998 0.592704 -2.115579
1558.6875 2.60772 0.483333 -2.124387
1559.53125 2.6710350000000003 0.551035 -2.12
1560.37890625 2.604146 0.562244 -2.041902
1561.2109375 2.671913 0.452645 -2.219268
1562.0390625 2.318778 0.438778 -1.88
1562.86328125 2.482341 0.343546 -2.138795
1563.69921875 2.2955 0.767549 -1.527951
1564.52734375 2.028885 0.598341 -1.430544
1565.3359375 2.1100060000000003 0.709752 -1.400254
1566.1171875 2.4407110000000003 0.666677 -1.774034
1566.71875 2.7000450000000003 0.771129 -1.928916
1567.6015625 2.678818 0.588861 -2.089957
1568.41796875 2.6418 0.508873 -2.132927
1569.23046875 2.687615 0.575852 -2.111763
1570.0625 2.6922669999999997 0.505 -2.187267
1570.88671875 2.647024 0.54449 -2.102534
1571.734375 2.802675 0.603493 -2.199182
1572.60546875 2.6191549999999997 0.509702 -2.109453
1573.44140625 2.70764 0.537383 -2.170257
1574.28515625 2.846983 0.563274 -2.283709
1575.171875 2.824262 0.514262 -2.31
1576.03125 2.780764 0.646728 -2.134036
1576.8671875 2.7313199999999997 0.51632 -2.215
1577.71875 2.993966 0.708523 -2.285443
1578.546875 2.845732 0.731669 -2.114063
1579.3828125 2.779277 0.681149 -2.098128
1580.2421875 2.761768 0.767248 -1.99452
1581.07421875 2.812658 0.742658 -2.07
1581.921875 2.675502 0.525947 -2.149555
1582.7890625 2.687005 0.62998 -2.057025
1583.65625 2.789493 0.634493 -2.155
1584.5390625 2.722971 0.554713 -2.168258
1585.40234375 2.616658 0.561658 -2.055
1586.2734375 2.708394 0.569852 -2.138542
1586.8203125 2.457763 0.95456 -1.503203
1587.9765625 2.65066 0.54066 -2.11
1588.62890625 1.86616 0.81 -1.05616
1589.69921875 2.595289 0.595289 -2.0
1590.53515625 2.609598 0.540887 -2.068711
1591.40234375 2.70901 0.631329 -2.077681
1592.2578125 2.578107 0.588707 -1.9894
1593.09765625 2.6009379999999998 0.624435 -1.976503
1593.9453125 2.5984949999999998 0.535334 -2.063161
1594.79296875 2.5995790000000003 0.442515 -2.157064
1595.66015625 2.6147470000000004 0.499747 -2.115
1596.5234375 2.628372 0.468372 -2.16
1597.38671875 2.603587 0.478712 -2.124875
1598.2421875 2.5878539999999997 0.483284 -2.10457
1599.1171875 2.461589 0.486589 -1.975
1599.98828125 2.578985 0.584166 -1.994819
1600.8515625 2.538924 0.573924 -1.965
1601.70703125 2.4245419999999998 0.492172 -1.93237
1602.55859375 2.5547079999999998 0.60974 -1.944968
1603.41796875 2.50457 0.53 -1.97457
1604.27734375 2.50982 0.540314 -1.969506
1605.140625 2.506239 0.459177 -2.047062
1606.01171875 2.531807 0.45948 -2.072327
1606.86328125 2.507571 0.479746 -2.027825
1607.73046875 2.510178 0.55985 -1.950328
1608.58984375 2.551969 0.453139 -2.09883
1609.43359375 2.528178 0.520287 -2.007891
1610.27734375 2.795882 0.528191 -2.267691
1611.13671875 2.915796 0.511457 -2.404339
1611.96875 2.798841 0.835017 -1.963824
1612.80078125 2.8539839999999996 0.763984 -2.09
1613.6484375 2.8698509999999997 0.848092 -2.021759
1614.44921875 2.695879 0.863684 -1.832195
1615.26953125 2.6384980000000002 0.996794 -1.641704
1616.1015625 2.621489 0.952937 -1.668552
1616.890625 2.721901 0.958464 -1.763437
1617.53125 2.872725 0.813269 -2.059456
1618.40234375 2.7046289999999997 0.69 -2.014629
1619.23046875 2.823626 1.004954 -1.818672
1620.02734375 2.8312850000000003 0.88141 -1.949875
1620.8203125 2.813705 0.857418 -1.956287
1621.6171875 2.844449 0.874686 -1.969763
1622.26953125 2.9754389999999997 1.134177 -1.841262
1623.125 3.449943 0.995 -2.454943
1623.90625 3.147483 0.69874 -2.448743
1624.6953125 3.118009 0.738025 -2.379984
1625.4609375 3.099049 0.824977 -2.274072
1626.17578125 3.142162 1.087162 -2.055
1626.921875 3.330072 1.132365 -2.197707
1627.6484375 3.143096 1.11337 -2.029726
1628.37109375 3.223895 1.127926 -2.095969
1629.08984375 3.0983989999999997 1.040465 -2.057934
1629.828125 3.153664 1.121484 -2.03218
1630.53515625 3.232857 0.918419 -2.314438
1631.23828125 2.9961610000000003 0.966956 -2.029205
1631.953125 3.3386299999999998 1.187474 -2.151156
1632.67578125 3.194667 1.229667 -1.965
1633.359375 3.073144 1.023977 -2.049167
1634.0546875 3.089396 1.069552 -2.019844
1634.73828125 3.1787479999999997 1.121717 -2.057031
1635.4296875 3.380238 1.049719 -2.330519
1636.10546875 2.959838 0.919838 -2.04
1636.78125 3.052263 0.952314 -2.099949
1637.46484375 3.115122 0.836658 -2.278464
1638.1328125 3.325698 0.812401 -2.513297
1638.80078125 2.822211 0.272011 -2.5502
1639.47265625 2.697407 0.52275 -2.174657
1640.140625 2.7485910000000002 0.654081 -2.09451
1640.82421875 2.997702 0.799328 -2.198374
1641.5 3.2498630000000004 1.09 -2.159863
1642.171875 2.982042 0.643134 -2.338908
1642.828125 2.952355 0.589223 -2.363132
1643.51953125 2.878956 0.673956 -2.205
1644.19921875 2.942692 0.753207 -2.189485
1644.87890625 2.99993 0.795007 -2.204923
1645.5625 2.844618 0.785546 -2.059072
1646.25 3.024975 0.955 -2.069975
1646.93359375 2.9194590000000002 0.847268 -2.072191
1647.59765625 2.939177 0.966272 -1.972905
1648.28125 2.981706 1.072183 -1.909523
1648.96875 2.936711 0.976711 -1.96
1649.640625 2.727331 0.741638 -1.985693
1650.30859375 2.824372 0.722536 -2.101836
1650.9765625 2.882306 0.769507 -2.112799
1651.65234375 2.864537 0.698474 -2.166063
1652.31640625 2.808351 0.733357 -2.074994
1652.98828125 2.879966 0.844185 -2.035781
1653.671875 2.872107 0.812107 -2.06
1654.35546875 2.699868 0.744884 -1.954984
1655.02734375 2.738619 0.74778 -1.990839
1655.703125 2.854571 0.830747 -2.023824
1656.38671875 2.796392 0.680604 -2.115788
1657.0703125 2.667268 0.659823 -2.007445
1657.74609375 2.646736 0.586736 -2.06
1658.42578125 2.734238 0.604721 -2.129517
1659.09375 2.690536 0.562125 -2.128411
1659.76953125 2.714276 0.574744 -2.139532
1660.44140625 2.7541539999999998 0.549298 -2.204856
1661.1171875 2.623798 0.616659 -2.007139
1661.7890625 2.685426 0.620588 -2.064838
1662.47265625 2.631255 0.571411 -2.059844
1663.15625 2.756952 0.648499 -2.108453
1663.8359375 2.709788 0.594788 -2.115
1664.5078125 2.774614 0.685 -2.089614
1665.03125 2.728684 0.664773 -2.063911
1665.80859375 2.697793 0.628202 -2.069591
1666.50390625 2.636586 0.532333 -2.104253
1667.17578125 2.78202 0.647375 -2.134645
1667.87890625 2.898956 0.75404 -2.144916
1668.5625 2.7892259999999998 0.7624 -2.026826
1669.23828125 2.970675 0.928938 -2.041737
1669.9296875 2.808449 0.789724 -2.018725
1670.6328125 3.007769 0.802769 -2.205
1671.30859375 2.727411 0.655852 -2.071559
1671.99609375 2.733764 0.718469 -2.015295
1672.6875 2.923521 0.904949 -2.018572
1673.40234375 3.006191 0.999247 -2.006944
1674.07421875 2.988187 1.015626 -1.972561
1674.765625 2.811556 0.922024 -1.889532
1675.44921875 2.826118 0.976612 -1.849506
1676.140625 2.798816 0.854325 -1.944491
1676.828125 2.963872 0.86483 -2.099042
1677.53125 2.9355539999999998 0.813976 -2.121578
1678.234375 3.079638 0.796595 -2.283043
1678.94140625 3.057205 0.859248 -2.197957
1679.6328125 3.138559 0.833682 -2.304877
1680.33984375 3.037974 0.714646 -2.323328
1681.04296875 3.0978909999999997 0.867984 -2.229907
1681.7578125 3.229736 0.961539 -2.268197
1682.45703125 3.059407 0.843977 -2.21543
1683.15625 2.954702 0.749822 -2.20488
1683.84375 3.083399 0.919783 -2.163616
1684.55078125 3.0543949999999995 1.042997 -2.011398
1685.23828125 2.969056 0.79423 -2.174826
1685.92578125 3.279253 0.915401 -2.363852
1686.6328125 3.139253 0.97717 -2.162083
1687.34375 3.126163 0.88138 -2.244783
1688.0390625 2.980255 0.794794 -2.185461
1688.734375 3.082143 0.867143 -2.215
1689.45703125 3.08947 0.83447 -2.255
1690.16796875 3.002725 0.842781 -2.159944
1690.875 3.184612 0.94 -2.244612
1691.5703125 3.077635 0.932852 -2.144783
1692.29296875 2.9732060000000002 0.817692 -2.155514
1692.984375 3.206768 0.847159 -2.359609
1693.6875 3.207478 0.925643 -2.281835
1694.39453125 2.8161910000000003 0.714751 -2.10144
1695.10546875 2.899552 0.78982 -2.109732
1695.80078125 3.066522 0.927061 -2.139461
1696.51171875 3.0735580000000002 0.868025 -2.205533
1697.2109375 2.884612 0.699612 -2.185
1697.92578125 3.063749 0.851114 -2.212635
1698.62890625 2.948791 0.677094 -2.271697
1699.33984375 2.855233 0.670102 -2.185131
1700.03125 3.061448 0.916448 -2.145
1700.578125 2.978682 0.84226 -2.136422
1701.74609375 2.9548170000000002 0.601774 -2.353043
1702.4765625 2.868259 0.614852 -2.253407
1703.2109375 2.929824 0.739824 -2.19
1703.9296875 3.015635 0.822326 -2.193309
1704.640625 2.975749 0.763214 -2.212535
1705.3359375 2.9744219999999997 0.844422 -2.13
1706.0546875 2.898021 0.798357 -2.099664
1706.76171875 2.988551 0.886 -2.102551
1707.453125 2.849737 0.729737 -2.12
1708.14453125 2.939556 0.821803 -2.117753
1708.6796875 2.985413 0.971632 -2.013781
1709.4453125 2.90777 0.824567 -2.083203
1710.14453125 3.099419 0.889862 -2.209557
1710.85546875 2.909713 0.839904 -2.069809
1711.56640625 3.0192959999999998 0.85432 -2.164976
1712.1015625 2.84659 0.76664 -2.07995
1712.8984375 2.676365 0.588365 -2.088
1713.609375 2.965654 0.820654 -2.145
1714.328125 2.983625 0.829795 -2.15383
1715.0390625 2.9965580000000003 0.726558 -2.27
1715.75 3.014912 0.73 -2.284912
1716.453125 3.0666770000000003 0.803523 -2.263154
1717.16015625 2.999549 0.808606 -2.190943
1717.859375 3.229894 0.9253 -2.304594
1718.5703125 3.196497 0.888154 -2.308343
1719.2734375 3.153157 0.863157 -2.29
1719.99609375 3.1989970000000003 0.91415 -2.284847
1720.6953125 3.199997 0.974997 -2.225
1721.390625 3.132854 1.008555 -2.124299
1722.078125 3.092124 0.860482 -2.231642
1722.796875 3.244004 1.019056 -2.224948
1723.48828125 3.118934 0.999752 -2.119182
1724.18359375 3.19355 1.03855 -2.155
1724.875 3.1949759999999996 1.035 -2.159976
1725.5859375 3.40252 1.079908 -2.322612
1726.27734375 3.291067 1.051571 -2.239496
1726.96875 3.914618 0.834315 -3.080303
1727.68359375 3.2378549999999997 0.778018 -2.459837
1728.390625 3.2292430000000003 0.824489 -2.404754
1729.06640625 3.340948 0.98473 -2.356218
1729.75 3.383975 1.005 -2.378975
1730.4375 3.293722 0.908722 -2.385
1731.1328125 3.193909 0.883938 -2.309971
1731.8125 3.4431399999999996 1.018171 -2.424969
1732.50390625 3.3717240000000004 1.068252 -2.303472
1733.1875 3.444955 1.072407 -2.372548
1733.703125 3.349362 1.134362 -2.215
1734.4921875 3.269818 0.899818 -2.37
1735.20703125 3.278321 0.893289 -2.385032
1735.91015625 3.270741 0.900586 -2.370155
1736.62890625 3.3471909999999996 1.0068 -2.340391
1737.33203125 3.457542 1.027542 -2.43
1738.03515625 3.2649600000000003 0.929095 -2.335865
1738.74609375 3.316335 0.994466 -2.321869
1739.46875 3.370967 0.942107 -2.42886
1740.1875 3.367654 0.9526 -2.415054
1740.875 3.447934 1.015 -2.432934
1741.59375 3.246271 0.965405 -2.280866
1742.296875 3.332699 1.025 -2.307699
1742.81640625 3.114867 1.044867 -2.07
1743.30859375 3.480366 1.268775 -2.211591
1744.0234375 3.251156 1.046448 -2.204708
1744.75 3.279734 1.17 -2.109734
1745.4375 3.2721400000000003 1.079747 -2.192393
1746.13671875 3.357866 1.12894 -2.228926
1746.8515625 3.2566230000000003 0.997663 -2.25896
1747.5625 3.154652 0.913163 -2.241489
1748.265625 3.1518729999999997 0.923739 -2.228134
1748.94921875 3.153144 0.974121 -2.179023
1749.65625 3.2565500000000003 1.075517 -2.181033
1750.33984375 3.100578 0.946748 -2.15383
1751.0390625 3.271648 0.961648 -2.31
1751.74609375 3.090885 0.793825 -2.29706
1752.4609375 3.164539 0.854539 -2.31
1753.1484375 2.988524 0.63639 -2.352134
1753.8515625 3.082729 0.835786 -2.246943
1754.55078125 2.948021 0.70356 -2.244461
1755.26171875 2.972142 0.733744 -2.238398
1755.96875 2.874472 0.729524 -2.144948
1756.6796875 2.939613 0.786289 -2.153324
1757.3671875 3.113201 0.96463 -2.148571
1758.08203125 2.893935 0.768789 -2.125146
1758.7890625 3.1185869999999998 0.90957 -2.209017
1759.5 2.996144 0.92 -2.076144
1760.203125 2.93681 0.843629 -2.093181
1760.91796875 3.007827 1.008551 -1.999276
1761.62890625 3.077383 0.930558 -2.146825
1762.3203125 2.943509 0.879735 -2.063774
1763.046875 3.036836 0.92044 -2.116396
1763.76953125 2.891848 0.871848 -2.02
1764.4921875 2.872141 0.889818 -1.982323
1765.19921875 2.811487 0.914326 -1.897161
1765.921875 2.821414 0.900295 -1.921119
1766.64453125 2.815286 0.914925 -1.900361
1767.359375 2.7837490000000003 0.886649 -1.8971
1768.08203125 2.8618390000000002 0.862453 -1.999386
1768.82421875 2.8258650000000003 0.671984 -2.153881
1769.53125 2.836152 0.690835 -2.145317
1770.25 2.934857 0.8 -2.134857
1770.78125 2.733911 0.816131 -1.91778
1771.9609375 2.719816 0.729816 -1.99
1772.70703125 2.878101 0.763101 -2.115
1773.421875 2.828954 0.664071 -2.164883
1774.1328125 2.794027 0.624173 -2.169854
1774.83984375 2.803509 0.653842 -2.149667
1775.55859375 2.6488750000000003 0.492293 -2.156582
1776.09765625 2.553813 0.489046 -2.064767
1776.87890625 2.7445779999999997 0.539795 -2.204783
1777.59375 2.683211 0.478458 -2.204753
1778.30078125 2.675148 0.564103 -2.111045
1779.0 2.664719 0.54 -2.124719
1779.5390625 2.764621 0.684646 -2.079975
1780.32421875 2.79508 0.593963 -2.201117
1781.0390625 2.833563 0.678946 -2.154617
1781.71875 2.858359 0.733359 -2.125
1782.43359375 2.923318 0.839634 -2.083684
1783.13671875 2.953463 0.82365 -2.129813
1783.828125 2.849062 0.784062 -2.065
1784.53515625 2.995066 1.012831 -1.982235
1785.2578125 3.080055 1.006853 -2.073202
1785.94921875 3.0041640000000003 0.935322 -2.068842
1786.65234375 3.143835 0.954117 -2.189718
1787.3671875 3.062383 0.798232 -2.264151
1788.09765625 3.09294 0.645009 -2.447931
1788.8046875 3.1066030000000002 0.772863 -2.33374
1789.51953125 3.2634790000000002 0.899839 -2.36364
1790.22265625 3.138716 0.915674 -2.223042
1790.9296875 3.1857599999999997 0.870799 -2.314961
1791.63671875 3.1153090000000003 0.834366 -2.280943
1792.36328125 3.141143 0.842315 -2.298828
1793.08984375 3.358581 0.973581 -2.385
1793.8046875 3.28857 0.97357 -2.315
1794.51953125 3.331703 1.044828 -2.286875
1795.140625 3.249682 1.074999 -2.174683
1795.9375 3.175372 0.954643 -2.220729
1796.6640625 3.228352 1.037208 -2.191144
1797.40234375 3.203812 1.019969 -2.183843
1798.1015625 3.097741 0.959236 -2.138505
1798.66015625 3.2926729999999997 1.250539 -2.042134
1799.453125 3.1250400000000003 1.04004 -2.085
1800.19140625 3.2543189999999997 1.080462 -2.173857
1800.921875 3.2969289999999996 1.194399 -2.10253
1801.671875 3.319423 1.22953 -2.089893
1802.203125 3.128832 1.270915 -1.857917
1803.41015625 3.213457 1.171321 -2.042136
1803.96875 3.261961 1.419139 -1.842822
