238 
337 
503 
602 
760 
1018 
1289 
1551 
1816 
2063 
2288 
2527 
2783 
3033 
3268 
3506 
3725 
3941 
4157 
4379 
4590 
4793 
4998 
5205 
5404 
5604 
5807 
6015 
6216 
6406 
6581 
6756 
6935 
7127 
7323 
7514 
7728 
7984 
8229 
8475 
8725 
8982 
9233 
9459 
9671 
9885 
10105 
10344 
10585 
10818 
11053 
11294 
11540 
11796 
12075 
12328 
12575 
12806 
13025 
13246 
13473 
13694 
13910 
14117 
14307 
14499 
14701 
14913 
15134 
15374 
15638 
15892 
16122 
16355 
16602 
16854 
17088 
17312 
17540 
17772 
18005 
18261 
18525 
18785 
19036 
19286 
19523 
19764 
20013 
20255 
20469 
20685 
20900 
21116 
21338 
21559 
21769 
21976 
22168 
22361 
22548 
22753 
22982 
23218 
23358 
23480 
23794 
23920 
24031 
24383 
24639 
24775 
25076 
25209 
25323 
25660 
25794 
26126 
26263 
26395 
26712 
26948 
27076 
27209 
27547 
27678 
27798 
28141 
28363 
28493 
28607 
28940 
29167 
29300 
29418 
29738 
29857 
30167 
30300 
30413 
30761 
30892 
31210 
31338 
31637 
31768 
31886 
32237 
32376 
32682 
32809 
32922 
33252 
33379 
33703 
33843 
33960 
34282 
34407 
34521 
34839 
34969 
35107 
35426 
35558 
35845 
35976 
36088 
36405 
36539 
36859 
36992 
37111 
37436 
37561 
37872 
38088 
38298 
38439 
38563 
38897 
39018 
39152 
39496 
39624 
39971 
40199 
40409 
40645 
40873 
41008 
41138 
41477 
41607 
41937 
42065 
42173 
42491 
42615 
42961 
43097 
43425 
43553 
43885 
44147 
44424 
44661 
44879 
45143 
45279 
45396 
45522 
45903 
46037 
46414 
46711 
46995 
47266 
47551 
47846 
48131 
48411 
48673 
48961 
49247 
49506 
49741 
49965 
50205 
50475 
50766 
51057 
51325 
51586 
51860 
52138 
52418 
52672 
52901 
53138 
53420 
53687 
53966 
54237 
54509 
54761 
55028 
55292 
55566 
55810 
56064 
56351 
56628 
56901 
57143 
57365 
57602 
57865 
58160 
58451 
58716 
58971 
59228 
59482 
59746 
60031 
60316 
60584 
60859 
61151 
61414 
61681 
61949 
62215 
62487 
62778 
63071 
63345 
63583 
63805 
64029 
64271 
64541 
64794 
65023 
65235 
65443 
65655 
65878 
66132 
66401 
66628 
66856 
67099 
67342 
67573 
67814 
68053 
68186 
68493 
68725 
68971 
69201 
69406 
69612 
69831 
70042 
70259 
70483 
70722 
70962 
71183 
71413 
71659 
71915 
72178 
72438 
72684 
72918 
73167 
73446 
73706 
73973 
74234 
74496 
74742 
75011 
75293 
75570 
75814 
76060 
76336 
76628 
76896 
77170 
77442 
77705 
77974 
78255 
78517 
78770 
79017 
79255 
79513 
79793 
80070 
80312 
80560 
80821 
81096 
81341 
81579 
81824 
82070 
82309 
82563 
82855 
83123 
83386 
83652 
83892 
84157 
84438 
84710 
84955 
85215 
85480 
85750 
86036 
86318 
86580 
86828 
87078 
87319 
87553 
87799 
88083 
88342 
88624 
88899 
89172 
89437 
89670 
89909 
90165 
90418 
90700 
90978 
91230 
91492 
91756 
92039 
92304 
92563 
92816 
93052 
93309 
93593 
93863 
94127 
94368 
94622 
94896 
95159 
95424 
95681 
95920 
96167 
96426 
96683 
96951 
97214 
97452 
97699 
97948 
98192 
98449 
98703 
98955 
99209 
99454 
99711 
99951 
100198 
100452 
100709 
100947 
101204 
101472 
101726 
101959 
102180 
102412 
102640 
102871 
103091 
103323 
103587 
103856 
104132 
104396 
104658 
104904 
105142 
105368 
105602 
105864 
106158 
106432 
106677 
106929 
107209 
107492 
107773 
108028 
108282 
108550 
108825 
109094 
109347 
109562 
109770 
109985 
110214 
110438 
110661 
110880 
111083 
111276 
111471 
111667 
111874 
112071 
112270 
112465 
112652 
112835 
113011 
113198 
113399 
113613 
113852 
114108 
114231 
114530 
114773 
115010 
115242 
115491 
115742 
115868 
116162 
116403 
116659 
116905 
117133 
117365 
117608 
117857 
118103 
118331 
118548 
118765 
119001 
119238 
119483 
119740 
120002 
120245 
120477 
120704 
120942 
121208 
121463 
121700 
121932 
122178 
122442 
122699 
122945 
123194 
123436 
123664 
123888 
124118 
124353 
124565 
124781 
124989 
125194 
125416 
125641 
125866 
126089 
126293 
126486 
126698 
126918 
127158 
127403 
127633 
127853 
128075 
128302 
128543 
128799 
129055 
129290 
129514 
129740 
129967 
130195 
130430 
130674 
130916 
131139 
131367 
131608 
131865 
132116 
132360 
132606 
132838 
133071 
133327 
133571 
133825 
134067 
134296 
134528 
134753 
134981 
135207 
135441 
135658 
135885 
136131 
136389 
136649 
136911 
137164 
137397 
137635 
137880 
138125 
138374 
138623 
138854 
139084 
139339 
139595 
139853 
140112 
140360 
140599 
140837 
141081 
141330 
141595 
141843 
142070 
142308 
142562 
142819 
143075 
143311 
143532 
143751 
143973 
144186 
144403 
144620 
144829 
145034 
145243 
145465 
145706 
145975 
146240 
146484 
146733 
146977 
147235 
147516 
147779 
148029 
148276 
148531 
148788 
149047 
149300 
149539 
149778 
150025 
150284 
150540 
150800 
151043 
151281 
151536 
151791 
152043 
152297 
152539 
152747 
152970 
153216 
153476 
153733 
153968 
154192 
154413 
154645 
154877 
155107 
155340 
155574 
155809 
156042 
156282 
156534 
156800 
157056 
157304 
157568 
157848 
158133 
158404 
158665 
158919 
159165 
159422 
159677 
159915 
160151 
160378 
160597 
160823 
161052 
161282 
161502 
161709 
161921 
162131 
162361 
162602 
162835 
163068 
163308 
163534 
163748 
163966 
164201 
164443 
164688 
164926 
165140 
165367 
165612 
165861 
166100 
166332 
166561 
166793 
167021 
167261 
167509 
167763 
168001 
168232 
168456 
168689 
168935 
169184 
169406 
169634 
169870 
170125 
170382 
170626 
170853 
171063 
171268 
171487 
171732 
171982 
172242 
172502 
172761 
173005 
173259 
173514 
173752 
173995 
174232 
174472 
174724 
174973 
175216 
175453 
175665 
175874 
176086 
176309 
176526 
176744 
176956 
177170 
177380 
177583 
177797 
178017 
178230 
178447 
178645 
178846 
179055 
179272 
179525 
179777 
180014 
180235 
180441 
180656 
180864 
181086 
181318 
181540 
181758 
181975 
182105 
182394 
182608 
182824 
183031 
183158 
183426 
183554 
183834 
183964 
184256 
184463 
184593 
184870 
184997 
185301 
185508 
185716 
185929 
186063 
186331 
186523 
186709 
186831 
186960 
187263 
187470 
187597 
187872 
187996 
188261 
188461 
188672 
188804 
189095 
189294 
189419 
189547 
189812 
189932 
190205 
190395 
190529 
190666 
190926 
191040 
191278 
191410 
191650 
191780 
192018 
192145 
192377 
192492 
192718 
192832 
193065 
193185 
193443 
193561 
193822 
193937 
194178 
194289 
194542 
194662 
194927 
195049 
195318 
195432 
195679 
195794 
196032 
196159 
196399 
196518 
196765 
196884 
197126 
197236 
197477 
197588 
197842 
197963 
198224 
198341 
198579 
198687 
198914 
199026 
199261 
199378 
199616 
199731 
199969 
200081 
200313 
200422 
200662 
200775 
201029 
201149 
201394 
201512 
201740 
201848 
202073 
202190 
202434 
202554 
202797 
202911 
203148 
203253 
203486 
203599 
203837 
203951 
204206 
204325 
204589 
204699 
204952 
205060 
205317 
205433 
205710 
205831 
206089 
206202 
206437 
206550 
206791 
206909 
207156 
207277 
207521 
207637 
207872 
207986 
208227 
208341 
208603 
208722 
208998 
209126 
209370 
209489 
209729 
209869 
210097 
210228 
210481 
210601 
210857 
210971 
211227 
211344 
211622 
211743 
212046 
212166 
212463 
212578 
212870 
212988 
213318 
213441 
213755 
213874 
214183 
214302 
214620 
214744 
215057 
215185 
215478 
215594 
215864 
215983 
216279 
216402 
216722 
216846 
217146 
217263 
217568 
217694 
218013 
218139 
218432 
218566 
218833 
218957 
219254 
219379 
219693 
219824 
220126 
220243 
220528 
220944 
221080 
221366 
221492 
221763 
221896 
222017 
222308 
222429 
222719 
222844 
222989 
223273 
223386 
223665 
223784 
224069 
224211 
224480 
224610 
224856 
224973 
225232 
225358 
225634 
225757 
226031 
226152 
226432 
226549 
226830 
226952 
227247 
227385 
227661 
227779 
228033 
228218 
228357 
228482 
228794 
228919 
229200 
229328 
229595 
229715 
230013 
230165 
230435 
230637 
230826 
231012 
231142 
231250 
231542 
231746 
231946 
232140 
232269 
232540 
232659 
232933 
233078 
233345 
233544 
233675 
233791 
234092 
234220 
234489 
234629 
234917 
235117 
235328 
235537 
235757 
235883 
236200 
236442 
236673 
236905 
237155 
237383 
237617 
237866 
238106 
238336 
238563 
238777 
238997 
239222 
239455 
239680 
239889 
240098 
240306 
240511 
240736 
240965 
241187 
241414 
241637 
241853 
242077 
242321 
242558 
242801 
243045 
243267 
243494 
243737 
243977 
244218 
244448 
244673 
244899 
245111 
245337 
245575 
245807 
246040 
246262 
246470 
246672 
246864 
247069 
247279 
247422 
247551 
247821 
247950 
248200 
248339 
248584 
248716 
248965 
249099 
249344 
249520 
249646 
249754 
250051 
250184 
250471 
250665 
250854 
250979 
251083 
251398 
251832 
252253 
252442 
252627 
252814 
253008 
253225 
253445 
253580 
253863 
254068 
254261 
254477 
254717 
254858 
255156 
255373 
255574 
255707 
255833 
256132 
256268 
256569 
256779 
256974 
257101 
257207 
257513 
257645 
257963 
258175 
258381 
258581 
258777 
258973 
259175 
259393 
259603 
259810 
260024 
260232 
260429 
260625 
260834 
261058 
261280 
261486 
261688 
261892 
262099 
262314 
262532 
262747 
262952 
263163 
263383 
263600 
263824 
264057 
264283 
264515 
264738 
264944 
265177 
265431 
265679 
265902 
266119 
266318 
266524 
266748 
266991 
267225 
267480 
267734 
267965 
268212 
268467 
268619 
268963 
269103 
269397 
269609 
269822 
270062 
270201 
270316 
270655 
270782 
271096 
271222 
271334 
271671 
271809 
272146 
272267 
272575 
272699 
273028 
273156 
273518 
273640 
273967 
274091 
274425 
274548 
274910 
275037 
275386 
275508 
275834 
275970 
276320 
276453 
276790 
277036 
277264 
277399 
277518 
277876 
278013 
278357 
278498 
278608 
278926 
279060 
279391 
279535 
279863 
280097 
280225 
280539 
280783 
280930 
281053 
281386 
281522 
281832 
281956 
282282 
282422 
282760 
283007 
283138 
283274 
283590 
283724 
284072 
284339 
284582 
284834 
284975 
285310 
285585 
285840 
286109 
286248 
286568 
286817 
286968 
287112 
287446 
287598 
287899 
288031 
288348 
288507 
288838 
289081 
289220 
289343 
289658 
289789 
290117 
290353 
290493 
290615 
290930 
291054 
291372 
291510 
291835 
291965 
292289 
292409 
292715 
292845 
293162 
293290 
293632 
293753 
294065 
294186 
294516 
294647 
294995 
295125 
295448 
295569 
295899 
296032 
296367 
296498 
296829 
296953 
297272 
297393 
297730 
297864 
298206 
298331 
298652 
298771 
299097 
299232 
299572 
299697 
300024 
300149 
300461 
300582 
300928 
301054 
301389 
301519 
301836 
301957 
302306 
302437 
302779 
302907 
303216 
303346 
303661 
303789 
304118 
304365 
304611 
304747 
305052 
305292 
305546 
305790 
305932 
306247 
306494 
306740 
306995 
307254 
307508 
307753 
308011 
308151 
308487 
308772 
309038 
309298 
309558 
309696 
310037 
310313 
310457 
310782 
311046 
311182 
311519 
311665 
312456 
312590 
312728 
313053 
313195 
313537 
313671 
313992 
314114 
314444 
314584 
314925 
315054 
315391 
315520 
315837 
315964 
316306 
316564 
316707 
317013 
317136 
317461 
317606 
317915 
318058 
318338 
318471 
318775 
319010 
319151 
319481 
319630 
319960 
320080 
320394 
320530 
320864 
321121 
321262 
321578 
321826 
321963 
322308 
322448 
322799 
322938 
323262 
323397 
323735 
323872 
324225 
324365 
324687 
324810 
325148 
325287 
325634 
325774 
326104 
326235 
326543 
326774 
327024 
327168 
327514 
327764 
328003 
328269 
328560 
328832 
329109 
329382 
329655 
329918 
330198 
330479 
330751 
331013 
331280 
331575 
331864 
332138 
332398 
332677 
332964 
333232 
333507 
333769 
334038 
334309 
334582 
334866 
335120 
335370 
335645 
335920 
336185 
336457 
336719 
336979 
337224 
337478 
337756 
338053 
338343 
338626 
338910 
339195 
339484 
339764 
340032 
340289 
340572 
340858 
341136 
341433 
341695 
341954 
342229 
342519 
342814 
343074 
343351 
343629 
343921 
344182 
344441 
344701 
344958 
345197 
345454 
345732 
345997 
346242 
346499 
346748 
347035 
347297 
347562 
347834 
348087 
348363 
348643 
348900 
349149 
349403 
349659 
349929 
350208 
350481 
350738 
350979 
351227 
351483 
351749 
352027 
352281 
352537 
352807 
353081 
353359 
353633 
353888 
354132 
354373 
354626 
354878 
355138 
355396 
355638 
355897 
356179 
356446 
356714 
356971 
357216 
357478 
357763 
358049 
358331 
358597 
358886 
359176 
359467 
359750 
360012 
360278 
360549 
360833 
361133 
361405 
361683 
361956 
362238 
362532 
362809 
363084 
363333 
363614 
363898 
364166 
364414 
364637 
364858 
365074 
365301 
365525 
365739 
365951 
366159 
366374 
366589 
366809 
367025 
367243 
367476 
367610 
367912 
368135 
368276 
368602 
368850 
368982 
369288 
369423 
369729 
369875 
370186 
370323 
370467 
370769 
370892 
371215 
371347 
371680 
371820 
372140 
372265 
372562 
372691 
373032 
373169 
373501 
373627 
373950 
374071 
374400 
374532 
374871 
375001 
375311 
375430 
375725 
375849 
376179 
376310 
376643 
376762 
377079 
377199 
377532 
377664 
378007 
378135 
378457 
378576 
378875 
379009 
379328 
379458 
379772 
379891 
380172 
380300 
380615 
380743 
381074 
381200 
381512 
381647 
381967 
382105 
382439 
382576 
382891 
383016 
383323 
383452 
383776 
384014 
384150 
384280 
384607 
384731 
385047 
385275 
385414 
385546 
385880 
386006 
386317 
386441 
386765 
386911 
387239 
387372 
387683 
387809 
388104 
388245 
388381 
388703 
388833 
389157 
389276 
389579 
389708 
390037 
390167 
390483 
390607 
390913 
391037 
391353 
391487 
391806 
391933 
392235 
392356 
392661 
392794 
393118 
393250 
393583 
393715 
394026 
394150 
394483 
394616 
394957 
395085 
395391 
395520 
395848 
395982 
396316 
396448 
396769 
396909 
397210 
397340 
397676 
397820 
398156 
398286 
398419 
398729 
398864 
399192 
399335 
399458 
399796 
399924 
400258 
400391 
400513 
400883 
401158 
401408 
401544 
401657 
402006 
402303 
402447 
402565 
402918 
403045 
403162 
403512 
403792 
404038 
404298 
404438 
404569 
404889 
405169 
405461 
405743 
406016 
406309 
406579 
406833 
407096 
407381 
407639 
407916 
408214 
408506 
408800 
409097 
409400 
409719 
410027 
410340 
410624 
410909 
411180 
411476 
411794 
412097 
412342 
412593 
412861 
413109 
413350 
413501 
413622 
413950 
414196 
414449 
414696 
414843 
414969 
415323 
415604 
415892 
416041 
416167 
416541 
416830 
416967 
417083 
417461 
417773 
417918 
418040 
418402 
418712 
418849 
418994 
419371 
419508 
419627 
419983 
420270 
420408 
420528 
420913 
421216 
421350 
421465 
421829 
422136 
422281 
422404 
422779 
423075 
423209 
423322 
423700 
424027 
424166 
424287 
424645 
424780 
424895 
425276 
425604 
425744 
425866 
426220 
426347 
426461 
426851 
427158 
427299 
427414 
427773 
428066 
428209 
428334 
428718 
429000 
429135 
429249 
429603 
429904 
430049 
430173 
430532 
430803 
430939 
431058 
431418 
431727 
431867 
432011 
432339 
432472 
432607 
432950 
433086 
433227 
433558 
433689 
433992 
434129 
434260 
434592 
434731 
434862 
435180 
435304 
435636 
435776 
435928 
436265 
436407 
436731 
436973 
437105 
437434 
437696 
437841 
438183 
438434 
438567 
438691 
439062 
439366 
439508 
439853 
439995 
440121 
440486 
440789 
440935 
441068 
441428 
441691 
441830 
441956 
442343 
442637 
442900 
443037 
443166 
443525 
443815 
443962 
444089 
444445 
444696 
444829 
445155 
445310 
445623 
445843 
446081 
446302 
446445 
446569 
446916 
447059 
447360 
447566 
447761 
447968 
448172 
448392 
448537 
448655 
448984 
449112 
449397 
449627 
449771 
449895 
450214 
450346 
450621 
450750 
450863 
451167 
451302 
451597 
451728 
452010 
452140 
452417 
452537 
452852 
452984 
453302 
453429 
453733 
453852 
454147 
454281 
454602 
454730 
455028 
455157 
455293 
455591 
455717 
456029 
456249 
456384 
456508 
456806 
456925 
457211 
457344 
457631 
457774 
458043 
458238 
458368 
458484 
458788 
458928 
459224 
459364 
459487 
459804 
460017 
460236 
460482 
460630 
460977 
461231 
461477 
461614 
461751 
462062 
