3.828125 2.410895 1.644059 -0.766836
4.390625 2.076801 1.667029 -0.409772
5.16796875 1.859325 1.681374 -0.177951
5.7265625 2.072289 1.552422 -0.519867
6.23828125 1.83834 1.49 -0.34834
7.10546875 1.7780960000000001 1.593096 -0.185
7.6328125 2.061633 1.519289 -0.542344
8.140625 2.131781 1.584199 -0.547582
8.890625 1.773562 1.573231 -0.200331
9.484375 2.013055 1.553242 -0.459813
10.015625 2.128486 1.662031 -0.466455
10.79296875 1.8432659999999998 1.685952 -0.157314
11.38671875 2.586146 2.031214 -0.554932
11.8515625 1.908951 1.38328 -0.525671
12.6796875 1.7503199999999999 1.502754 -0.247566
13.2421875 2.394375 1.815 -0.579375
13.734375 2.022991 1.633642 -0.389349
14.4375 1.8519249999999998 1.731596 -0.120329
15.04296875 2.5781099999999997 2.07311 -0.505
15.46875 1.829675 1.539844 -0.289831
16.38671875 1.937092 1.672342 -0.26475
16.9609375 1.988063 1.354976 -0.633087
17.515625 2.147273 1.407925 -0.739348
18.2734375 1.810819 1.480095 -0.330724
18.82421875 2.865353 2.216015 -0.649338
19.28515625 2.25738 2.004261 -0.253119
19.91796875 1.9471649999999998 1.801014 -0.146151
20.41796875 1.845653 1.693666 -0.151987
20.96484375 2.591399 2.071738 -0.519661
21.52734375 1.769237 1.015565 -0.753672
22.0859375 1.870444 1.103955 -0.766489
22.6328125 2.201787 1.939912 -0.261875
23.10546875 2.12744 2.040525 -0.086915
23.6953125 1.64785 2.12785 0.48
24.23828125 1.610896 1.761818 0.150922
24.78515625 1.996121 1.764316 -0.231805
25.2421875 2.571972 1.641972 -0.93
25.8203125 1.898809 1.064414 -0.834395
26.3125 1.660752 0.675752 -0.985
26.8046875 2.002719 0.968411 -1.034308
27.2890625 2.4297269999999997 1.174727 -1.255
27.875 1.839496 0.95 -0.889496
28.41796875 1.676558 0.966682 -0.709876
28.94921875 1.6829960000000002 1.098738 -0.584258
29.43359375 2.494419 1.734048 -0.760371
29.97265625 1.879337 1.489778 -0.389559
30.48046875 1.823417 1.533417 -0.29
30.984375 2.142753 1.912837 -0.229916
31.45703125 1.8481239999999999 1.527431 -0.320693
32.01953125 1.914046 1.719757 -0.194289
32.4921875 1.853957 1.968204 0.114247
33.0234375 2.226239 2.181896 -0.044343
33.48828125 2.065721 1.555094 -0.510627
34.09375 1.8929449999999999 1.629344 -0.263601
34.64453125 1.94464 1.46464 -0.48
35.22265625 1.8137429999999999 1.476087 -0.337656
35.81640625 1.950112 1.672161 -0.277951
36.38671875 1.772034 1.522215 -0.249819
36.9296875 2.263561 1.714456 -0.549105
37.4609375 1.829065 1.448782 -0.380283
37.9765625 1.8704640000000001 1.513805 -0.356659
38.4765625 1.7272070000000002 1.474328 -0.252879
39.01953125 1.8083200000000001 1.509052 -0.299268
39.578125 1.8669229999999999 1.547294 -0.319629
40.13671875 2.036683 1.841683 -0.195
40.62109375 1.963689 1.465902 -0.497787
41.23828125 1.7718770000000001 1.562599 -0.209278
41.765625 1.810633 1.559621 -0.251012
42.3203125 2.1144600000000002 1.60446 -0.51
42.8671875 1.819816 1.624861 -0.194955
43.4140625 1.672494 1.357494 -0.315
43.98046875 2.556604 2.135587 -0.421017
44.53515625 1.835549 1.590907 -0.244642
45.11328125 1.851167 1.656545 -0.194622
45.6171875 1.813764 1.308764 -0.505
46.328125 1.727011 1.410995 -0.316016
46.94140625 1.824741 1.506839 -0.317902
47.4765625 1.8598759999999999 1.49 -0.369876
48.08984375 1.832333 1.527333 -0.305
48.65625 1.704091 1.424383 -0.279708
49.21484375 2.271208 1.800098 -0.47111
49.76953125 1.8778069999999998 1.734773 -0.143034
50.3046875 1.705895 1.543399 -0.162496
50.8515625 2.060464 1.90171 -0.158754
51.4453125 1.7482389999999999 1.520298 -0.227941
52.0234375 1.863568 1.603198 -0.26037
52.5859375 2.4457679999999997 2.009165 -0.436603
53.04296875 1.317383 1.106309 -0.211074
53.703125 1.660525 1.166067 -0.494458
54.2734375 1.7409660000000002 1.201418 -0.539548
54.796875 2.390223 1.728914 -0.661309
55.33203125 1.8773779999999998 1.640324 -0.237054
55.84765625 1.779489 1.535605 -0.243884
56.36328125 2.59565 2.321232 -0.274418
56.8203125 2.117798 1.786033 -0.331765
57.55859375 1.72836 1.739356 0.010996
58.14453125 2.259799 2.239799 -0.02
58.62890625 2.022351 1.795828 -0.226523
59.33203125 1.739754 1.7 -0.039754
59.890625 1.5603989999999999 1.310649 -0.24975
60.36328125 2.0026 1.405031 -0.597569
60.96875 1.764744 1.497724 -0.26702
61.5234375 1.6306969999999998 1.372337 -0.25836
62.0546875 2.354974 1.960046 -0.394928
62.484375 1.970675 1.323207 -0.647468
63.16015625 1.723252 1.328776 -0.394476
63.734375 1.713208 1.338522 -0.374686
64.25 1.689276 1.28 -0.409276
64.953125 1.709872 1.423369 -0.286503
65.53125 1.7440760000000002 1.399358 -0.344718
66.0703125 2.0597209999999997 1.464303 -0.595418
66.671875 1.730159 1.496201 -0.233958
67.23828125 1.640889 1.385421 -0.255468
67.80859375 2.07123 1.411691 -0.659539
68.2421875 1.912115 1.231522 -0.680593
69.04296875 1.687991 1.39123 -0.296761
69.63671875 2.350999 1.719745 -0.631254
70.09765625 1.8196529999999997 1.265 -0.554653
70.87109375 1.6959780000000002 1.352402 -0.343576
71.43359375 2.325398 1.933905 -0.391493
71.87890625 2.131687 1.546973 -0.584714
72.55859375 1.673942 1.458942 -0.215
73.11328125 1.593626 1.328721 -0.264905
73.625 1.9342100000000002 1.3 -0.63421
74.234375 1.732105 1.42195 -0.310155
74.76953125 1.632938 1.309298 -0.32364
75.3359375 1.780792 1.300556 -0.480236
76.1015625 1.593191 1.398457 -0.194734
76.7578125 1.695377 1.432659 -0.262718
77.3515625 1.960315 1.48301 -0.477305
77.81640625 1.600266 1.304266 -0.296
78.65234375 1.6506539999999998 1.45 -0.200654
79.19140625 1.840308 1.349445 -0.490863
79.65234375 1.441958 1.22451 -0.217448
80.453125 1.7527220000000001 1.548264 -0.204458
81.03125 2.510348 1.968587 -0.541761
81.51953125 1.868755 1.359994 -0.508761
82.1640625 1.7033610000000001 1.463529 -0.239832
82.72265625 1.797483 1.508776 -0.288707
83.29296875 1.748578 1.464134 -0.284444
83.86328125 1.77218 1.467348 -0.304832
84.4453125 1.743986 1.389566 -0.35442
85.00390625 1.926865 1.306642 -0.620223
85.4609375 1.4237250000000001 1.094912 -0.328813
86.2890625 1.781981 1.453252 -0.328729
86.80078125 2.073264 1.466317 -0.606947
87.33203125 1.772885 1.378223 -0.394662
88.0625 1.682533 1.380919 -0.301614
88.6484375 2.11848 1.767596 -0.350884
89.109375 2.037428 1.535192 -0.502236
89.76953125 1.787655 1.564692 -0.222963
90.32421875 1.697715 1.470625 -0.22709
90.890625 2.4516400000000003 1.931696 -0.519944
91.4609375 1.652177 1.392177 -0.26
92.02734375 1.686969 1.371758 -0.315211
92.546875 1.831317 1.583245 -0.248072
93.1171875 1.8087790000000001 1.593039 -0.21574
93.71484375 1.700599 1.449719 -0.25088
94.328125 2.501721 2.031771 -0.46995
94.80078125 1.6495410000000001 1.224541 -0.425
95.5703125 1.719496 1.414496 -0.305
96.14453125 2.531153 2.134898 -0.396255
96.59375 2.171313 1.594187 -0.577126
97.28125 1.716701 1.3534 -0.363301
97.83984375 1.80623 1.447373 -0.358857
98.296875 2.112186 1.468991 -0.643195
98.9765625 1.712837 1.472323 -0.240514
99.55859375 1.838958 1.623539 -0.215419
100.06640625 2.0596509999999997 1.519769 -0.539882
100.6875 1.8208090000000001 1.457559 -0.36325
101.25390625 1.891394 1.353258 -0.538136
101.8046875 2.618247 2.151466 -0.466781
102.265625 2.000114 1.493206 -0.506908
102.90234375 1.698609 1.415 -0.283609
103.44140625 1.739563 1.394563 -0.345
103.97265625 1.860797 1.542152 -0.318645
104.4765625 1.926212 1.686874 -0.239338
105.02734375 1.912506 1.578168 -0.334338
105.66796875 2.68044 2.14268 -0.53776
106.1328125 1.583901 1.23278 -0.351121
107.0390625 1.794257 1.484257 -0.31
107.56640625 2.094562 1.429562 -0.665
108.04296875 1.761519 1.297727 -0.463792
108.8515625 1.665463 1.275463 -0.39
109.39453125 2.6441649999999997 2.059995 -0.58417
109.87109375 2.07814 1.41408 -0.66406
110.52734375 1.769205 1.4644 -0.304805
111.12890625 2.062954 1.718676 -0.344278
111.62890625 1.922561 1.428954 -0.493607
112.53125 1.7446599999999999 1.39234 -0.35232
113.1171875 2.087084 1.499521 -0.587563
113.6171875 1.659504 1.307603 -0.351901
114.54296875 1.7713700000000001 1.486399 -0.284971
115.05859375 1.9818540000000002 1.394627 -0.587227
115.53515625 1.750697 1.216947 -0.53375
116.3984375 1.7328759999999999 1.373233 -0.359643
116.9296875 2.0120329999999997 1.472535 -0.539498
117.45703125 1.967505 1.53445 -0.433055
118.25 1.76384 1.52 -0.24384
118.8515625 2.532888 2.04682 -0.486068
119.28515625 1.816757 1.280126 -0.536631
120.125 1.8599999999999999 1.585 -0.275
120.68359375 2.059466 1.518508 -0.540958
121.1796875 1.964867 1.441888 -0.522979
121.96484375 1.7425540000000002 1.49049 -0.252064
122.5 2.419036 1.905 -0.514036
122.953125 2.040639 1.524775 -0.515864
123.71875 1.7336820000000002 1.535381 -0.198301
124.32421875 2.5708889999999998 2.186295 -0.384594
124.78515625 1.778697 1.355906 -0.422791
125.62890625 1.71771 1.473452 -0.244258
126.203125 2.489106 1.96983 -0.519276
126.66796875 1.870202 1.553469 -0.316733
127.375 1.559718 1.865 0.305282
127.9609375 2.2852319999999997 2.244763 -0.040469
128.375 1.956918 1.615 -0.341918
129.140625 1.683535 1.155 -0.528535
129.73046875 2.564939 1.704939 -0.86
130.1953125 1.882968 1.000422 -0.882546
130.96484375 1.705897 1.071059 -0.634838
131.52734375 2.432693 1.730469 -0.702224
131.98046875 2.180069 1.375 -0.805069
132.69140625 1.757395 1.238474 -0.518921
133.25390625 1.9162469999999998 1.431398 -0.484849
133.69921875 1.940675 1.280182 -0.660493
134.37109375 1.734923 1.289987 -0.444936
134.9375 1.936604 1.531604 -0.405
135.4296875 1.7000959999999998 1.38 -0.320096
136.16796875 1.692825 1.407568 -0.285257
136.7734375 1.709235 1.38002 -0.329215
137.26171875 1.881948 1.384362 -0.497586
137.9296875 1.8383090000000002 1.539268 -0.299041
138.51171875 1.866058 1.536058 -0.33
139.01953125 1.851765 1.375266 -0.476499
139.78515625 1.71622 1.46622 -0.25
140.3359375 2.142544 1.55463 -0.587914
140.76953125 1.7037069999999999 1.41 -0.293707
141.6875 1.773972 1.638972 -0.135
142.24609375 1.964788 1.592263 -0.372525
142.76171875 1.562877 1.491827 -0.07105
143.63671875 1.7774979999999998 1.601495 -0.176003
144.1875 2.11148 1.630547 -0.480933
144.6796875 2.000399 1.574819 -0.42558
145.36328125 1.767651 1.65284 -0.114811
145.94921875 2.670822 2.303591 -0.367231
146.34765625 2.150074 1.648305 -0.501769
147.16015625 1.798274 1.628274 -0.17
147.78125 2.347653 1.807047 -0.540606
148.2578125 1.829912 1.449028 -0.380884
148.9921875 1.791845 1.486877 -0.304968
149.54296875 2.1335889999999997 1.825386 -0.308203
150.0078125 2.075285 1.648645 -0.42664
150.72265625 1.756724 1.536741 -0.219983
151.2890625 1.662569 1.407697 -0.254872
151.7734375 1.989675 1.476483 -0.513192
152.40234375 1.772379 1.519129 -0.25325
153.0078125 1.680567 1.435986 -0.244581
153.5390625 1.739793 1.42 -0.319793
154.359375 1.7575919999999998 1.425957 -0.331635
155.01171875 2.539475 1.929475 -0.61
155.42578125 1.661161 1.321161 -0.34
156.296875 1.801842 1.539833 -0.262009
156.828125 2.014941 1.403127 -0.611814
157.3046875 1.7048269999999999 1.173779 -0.531048
158.14453125 1.799637 1.309923 -0.489714
158.69140625 2.413423 1.839131 -0.574292
159.171875 1.8448950000000002 1.359895 -0.485
159.87109375 1.6922739999999998 1.542274 -0.15
160.4765625 2.11209 1.929018 -0.183072
160.93359375 2.055287 1.549877 -0.50541
161.75390625 1.6964080000000001 1.475038 -0.22137
162.359375 2.563469 2.183675 -0.379794
162.80078125 1.91281 1.422272 -0.490538
163.546875 1.716596 1.466596 -0.25
164.1015625 2.607006 2.067174 -0.539832
164.5078125 2.192972 1.548089 -0.644883
165.2890625 1.737183 1.399958 -0.337225
165.875 2.414375 2.04 -0.374375
166.34375 2.098988 1.618393 -0.480595
167.08203125 1.737173 1.327358 -0.409815
167.640625 1.8974769999999999 1.464929 -0.432548
168.109375 2.015089 1.425801 -0.589288
168.7890625 1.7539310000000001 1.463931 -0.29
169.3671875 1.635585 1.390649 -0.244936
169.890625 1.4928970000000001 1.378154 -0.114743
170.5703125 1.7481170000000001 1.398225 -0.349892
171.1640625 2.162023 1.829211 -0.332812
171.62890625 1.8546840000000002 1.372529 -0.482155
172.4921875 1.657715 1.33799 -0.319725
173.11328125 2.177128 1.732296 -0.444832
173.5703125 2.227738 1.478817 -0.748921
174.3046875 1.638367 1.245164 -0.393203
174.87109375 1.872857 1.514659 -0.358198
175.32421875 2.018949 1.496117 -0.522832
176.01171875 1.6734930000000001 1.309218 -0.364275
176.5625 1.6893770000000001 1.280272 -0.409105
177.09765625 2.016575 1.319664 -0.696911
177.72265625 1.74222 1.367714 -0.374506
178.30859375 1.743178 1.46851 -0.274668
178.890625 2.527506 2.074108 -0.453398
179.34765625 1.652795 1.216218 -0.436577
180.1484375 1.586528 1.27495 -0.311578
180.71484375 2.355088 2.048034 -0.307054
181.16015625 2.020764 1.503655 -0.517109
181.8046875 1.5708739999999999 1.18223 -0.388644
182.31640625 1.602771 1.184162 -0.418609
182.84765625 2.301488 1.641488 -0.66
183.3828125 1.64146 1.071709 -0.569751
183.94140625 1.9456950000000002 1.075636 -0.870059
184.49609375 1.7401119999999999 1.165664 -0.574448
184.9765625 1.9196900000000001 1.186191 -0.733499
185.53515625 1.649799 1.235648 -0.414151
186.04296875 1.745034 1.182308 -0.562726
186.578125 2.014549 1.589549 -0.425
187.0390625 1.6378819999999998 1.075 -0.562882
187.66796875 2.005899 1.630437 -0.375462
188.1875 1.7818370000000001 1.255516 -0.526321
188.6953125 1.690907 1.233096 -0.457811
189.2578125 1.6609049999999999 1.265934 -0.394971
189.83984375 1.739307 1.294354 -0.444953
190.43359375 2.534982 2.057416 -0.477566
190.89453125 2.077906 1.664945 -0.412961
191.609375 1.6832880000000001 1.496502 -0.186786
192.19921875 2.231403 1.943395 -0.288008
192.6328125 1.997416 1.514275 -0.483141
193.3828125 1.615651 1.29769 -0.317961
193.9296875 2.315887 1.965887 -0.35
194.34765625 2.107292 1.713364 -0.393928
195.0859375 1.6683599999999998 1.43 -0.23836
195.67578125 2.323226 1.923226 -0.4
196.12890625 2.0611189999999997 1.44 -0.621119
196.89453125 1.738816 1.419737 -0.319079
197.46484375 2.517967 2.107967 -0.41
197.90625 2.173781 1.693781 -0.48
198.63671875 1.734888 1.502098 -0.23279
199.20703125 2.4410380000000003 2.078561 -0.362477
199.63671875 2.007609 1.464002 -0.543607
200.3515625 1.676651 1.304158 -0.372493
200.89453125 2.5312140000000003 2.01473 -0.516484
201.35546875 2.058618 1.475283 -0.583335
202.09765625 1.493822 1.169097 -0.324725
202.69140625 2.031739 1.603302 -0.428437
203.15625 1.828264 1.471071 -0.357193
203.82421875 1.2608519999999999 0.987624 -0.273228
204.38671875 0.949078 0.656725 -0.292353
204.83984375 1.429484 1.014254 -0.41523
205.53515625 0.924716 0.612707 -0.312009
206.09375 1.243761 0.808761 -0.435
206.5078125 1.242836 0.914777 -0.328059
207.2109375 0.689883 0.434883 -0.255
207.7890625 0.824854 0.539854 -0.285
208.2578125 1.261727 1.04 -0.221727
208.921875 0.609707 0.254707 -0.355
210.0234375 0.79015 0.455 -0.33515
210.59375 0.356484 0.111484 -0.245
211.140625 0.5647059999999999 0.26 -0.304706
211.67578125 0.70697 0.309548 -0.397422
212.0234375 0.035501000000000005 -0.361813 -0.397314
212.75 1.387672 1.01 -0.377672
213.31640625 2.132508 1.819101 -0.313407
213.796875 1.8809330000000002 1.490933 -0.39
214.55859375 1.670501 1.452576 -0.217925
215.14453125 2.321888 2.074824 -0.247064
215.578125 2.248967 1.748037 -0.50093
216.3046875 1.605075 1.385377 -0.219698
216.87109375 2.327808 1.948249 -0.379559
217.3203125 2.25421 1.618874 -0.635336
217.95703125 1.754032 1.429213 -0.324819
218.4609375 1.688483 1.358533 -0.32995
219.0 1.725 1.425 -0.3
219.5625 1.692464 1.423192 -0.269272
220.171875 1.671099 1.441099 -0.23
220.75390625 1.9569999999999999 1.476422 -0.480578
221.22265625 1.475526 1.24332 -0.232206
222.03125 1.64462 1.322279 -0.322341
222.5859375 2.529438 2.009438 -0.52
223.01171875 2.003193 1.464574 -0.538619
223.6796875 1.6044019999999999 1.259402 -0.345
224.23046875 1.623672 1.24 -0.383672
224.7578125 2.179201 1.47884 -0.700361
225.30078125 1.718719 1.338743 -0.379976
225.859375 1.714422 1.372286 -0.342136
226.4140625 2.188785 1.824264 -0.364521
226.8828125 1.896175 1.330461 -0.565714
227.484375 1.655965 1.354701 -0.301264
227.99609375 1.5799320000000001 1.225124 -0.354808
228.5390625 1.9546549999999998 1.574655 -0.38
229.0 2.063446 1.39 -0.673446
229.57421875 1.794727 1.302627 -0.4921
230.08203125 1.587318 1.107929 -0.479389
230.5703125 2.047314 1.595878 -0.451436
231.02734375 2.003902 1.474862 -0.52904
231.66796875 1.6643139999999998 1.310914 -0.3534
232.23828125 1.6790429999999998 1.259132 -0.419911
232.7890625 1.773142 1.334858 -0.438284
233.33984375 1.790526 1.415526 -0.375
233.875 1.6686400000000001 1.33 -0.33864
234.43359375 2.100974 1.787797 -0.313177
234.87890625 2.0704029999999998 1.565032 -0.505371
235.59375 1.6683 1.348741 -0.319559
236.14453125 2.018424 1.624749 -0.393675
236.58203125 2.039371 1.527528 -0.511843
237.2265625 1.689967 1.376523 -0.313444
237.79296875 1.693899 1.313899 -0.38
238.36328125 1.706471 1.322985 -0.383486
238.93359375 1.7033 1.3183 -0.385
239.51171875 1.6317309999999998 1.291864 -0.339867
240.1015625 2.5096700000000003 2.086806 -0.422864
240.5390625 1.649195 1.199948 -0.449247
241.34375 1.629387 1.289416 -0.339971
241.8984375 2.143906 1.529121 -0.614785
242.3046875 2.031172 1.370011 -0.661161
243.0234375 1.6377449999999998 1.353376 -0.284369
243.59375 2.0625269999999998 1.727766 -0.334761
244.07421875 1.929151 1.424057 -0.505094
244.7421875 1.699708 1.257833 -0.441875
245.30078125 1.675707 1.201344 -0.474363
245.83984375 2.184854 1.45159 -0.733264
246.42578125 1.703341 1.323389 -0.379952
247.0234375 1.70255 1.377579 -0.324971
247.578125 1.930942 1.375 -0.555942
248.23828125 1.686461 1.336566 -0.349895
248.796875 2.5875060000000003 2.07783 -0.509676
249.22265625 2.052223 1.509292 -0.542931
249.98828125 1.6746660000000002 1.380076 -0.29459
250.58984375 2.376611 1.950099 -0.426512
251.046875 1.991865 1.561865 -0.43
251.75390625 1.6852580000000001 1.291258 -0.394
252.31640625 1.679009 1.249204 -0.429805
252.7890625 1.9815559999999999 1.386556 -0.595
253.3984375 1.72835 1.44347 -0.28488
253.9609375 1.6288779999999998 1.324957 -0.303921
254.52734375 1.710231 1.400276 -0.309955
255.12109375 1.795226 1.455226 -0.34
255.70703125 1.729629 1.439372 -0.290257
256.32421875 2.409671 1.846199 -0.563472
256.80859375 1.7115150000000001 1.374867 -0.336648
257.5625 1.5981079999999999 1.30314 -0.294968
258.15234375 2.452512 1.845406 -0.607106
258.58203125 2.0772380000000004 1.515829 -0.561409
259.30078125 1.730424 1.485671 -0.244753
259.84375 2.254767 1.954943 -0.299824
260.265625 2.183573 1.529229 -0.654344
260.90234375 1.702295 1.356555 -0.34574
261.47265625 1.697068 1.218212 -0.478856
262.0078125 2.221392 1.509401 -0.711991
262.60546875 1.839202 1.467603 -0.371599
263.1484375 1.678236 1.393573 -0.284663
263.703125 2.612216 2.182216 -0.43
264.16015625 2.037163 1.544055 -0.493108
264.8828125 1.629728 1.304816 -0.324912
265.44140625 2.513376 2.109001 -0.404375
265.8828125 2.240538 1.713018 -0.52752
266.52734375 1.678585 1.414803 -0.263782
267.08984375 1.632905 1.357905 -0.275
267.60546875 2.061853 1.469973 -0.59188
268.25390625 1.736396 1.386458 -0.349938
268.85546875 1.853431 1.514855 -0.338576
269.453125 2.587765 2.037779 -0.549986
269.90625 1.752271 1.360921 -0.39135
270.73046875 1.6437680000000001 1.369107 -0.274661
271.265625 2.2012080000000003 1.514199 -0.687009
271.70703125 1.718213 1.298117 -0.420096
272.51171875 1.6424180000000002 1.31373 -0.328688
273.08984375 2.320101 1.690101 -0.63
273.5546875 1.965863 1.49 -0.475863
274.30078125 1.695571 1.406663 -0.288908
274.87109375 2.30049 1.930737 -0.369753
275.3203125 2.23419 1.619375 -0.614815
275.984375 1.729687 1.444833 -0.284854
276.5546875 1.712554 1.402887 -0.309667
277.05078125 1.988941 1.401161 -0.58778
277.67578125 1.724067 1.359115 -0.364952
278.23046875 1.784881 1.389881 -0.395
278.7109375 2.125676 1.494951 -0.630725
279.35546875 1.7532699999999999 1.424694 -0.328576
279.96484375 1.687541 1.342541 -0.345
280.50390625 1.0947850000000001 1.288423 0.193638
281.24609375 1.6759300000000001 1.296424 -0.379506
281.8203125 2.384732 1.946674 -0.438058
282.2578125 2.281011 1.758659 -0.522352
282.97265625 1.793042 1.508472 -0.28457
283.5546875 2.358046 1.955 -0.403046
284.0 2.310896 1.64 -0.670896
284.6875 1.683674 1.309524 -0.37415
285.2421875 1.698747 1.239355 -0.459392
285.73828125 2.090885 1.407984 -0.682901
286.3671875 1.78761 1.390484 -0.397126
286.921875 1.7654489999999998 1.396181 -0.369268
287.4921875 2.402741 1.977741 -0.425
287.953125 2.033379 1.504408 -0.528971
288.703125 1.6592310000000001 1.309231 -0.35
289.2578125 2.073941 1.70418 -0.369761
289.6875 2.013871 1.5257 -0.488171
290.3671875 1.6681620000000001 1.369158 -0.299004
290.9453125 1.6358549999999998 1.275855 -0.36
291.4921875 2.04239 1.415755 -0.626635
292.12890625 1.7254889999999998 1.443164 -0.282325
292.70703125 1.697363 1.423922 -0.273441
293.3125 2.075469 1.511667 -0.563802
293.734375 1.1982929999999998 1.169922 -0.028371
294.57421875 1.6123020000000001 1.367321 -0.244981
295.125 2.008448 1.51 -0.498448
295.56640625 1.770851 1.355 -0.415851
296.28125 1.753211 1.462887 -0.290324
296.82421875 2.155583 1.855737 -0.299846
297.26953125 2.040922 1.529939 -0.510983
297.94921875 1.735824 1.450394 -0.28543
298.53515625 1.784086 1.485551 -0.298535
299.12109375 1.7513859999999999 1.444119 -0.307267
299.7109375 1.644215 1.384517 -0.259698
300.31640625 1.683991 1.416201 -0.26779
300.8671875 2.154693 1.568033 -0.58666
301.33203125 1.740004 1.4734 -0.266604
302.125 1.678486 1.545 -0.133486
302.65234375 2.0417829999999997 1.623757 -0.418026
303.1328125 1.4868730000000001 1.364044 -0.122829
303.99609375 1.71529 1.481853 -0.233437
304.5859375 2.464049 1.959063 -0.504986
305.046875 1.959629 1.589629 -0.37
305.73828125 1.788699 1.634087 -0.154612
306.32421875 1.693165 1.448179 -0.244986
306.7890625 2.015119 1.540991 -0.474128
307.44140625 1.832288 1.58314 -0.249148
307.99609375 1.866164 1.660399 -0.205765
308.46484375 1.86997 1.5252 -0.34477
309.19140625 1.696863 1.442272 -0.254591
309.80859375 2.394395 1.984395 -0.41
310.265625 2.228752 1.716035 -0.512717
311.046875 1.720735 1.445813 -0.274922
311.62109375 2.183585 1.851258 -0.332327
312.06640625 2.190011 1.639753 -0.550258
312.77734375 1.662544 1.293638 -0.368906
313.34765625 1.74147 1.361901 -0.379569
313.82421875 1.8875320000000002 1.464522 -0.42301
314.44921875 1.713432 1.43339 -0.280042
315.00390625 1.659296 1.356335 -0.302961
315.53125 1.933755 1.382461 -0.551294
316.23828125 1.810236 1.486918 -0.323318
316.82421875 1.8143850000000001 1.449399 -0.364986
317.3828125 2.136025 1.431587 -0.704438
318.03515625 1.769402 1.436042 -0.33336
318.62890625 1.7033299999999998 1.311926 -0.391404
319.1484375 2.03626 1.326523 -0.709737
319.76953125 1.863491 1.43971 -0.423781
320.31640625 1.7696399999999999 1.41964 -0.35
320.91015625 2.566066 2.029986 -0.53608
321.51953125 1.686364 1.464763 -0.221601
322.15234375 1.704475 1.43723 -0.267245
322.765625 2.341231 1.691016 -0.650215
323.3671875 1.861164 1.546292 -0.314872
323.96484375 1.7188500000000002 1.433121 -0.285729
324.5625 1.71577 1.3884 -0.32737
325.17578125 1.669545 1.300087 -0.369458
325.78515625 2.140109 1.7505 -0.389609
326.234375 2.294323 1.611406 -0.682917
326.92578125 1.682229 1.372771 -0.309458
327.5234375 1.588527 1.321174 -0.267353
328.07421875 2.076536 1.472126 -0.60441
328.74609375 1.82215 1.432291 -0.389859
329.3125 1.7466279999999998 1.342984 -0.403644
329.86328125 1.7633040000000002 1.360343 -0.402961
330.42578125 1.724474 1.309685 -0.414789
330.984375 1.7881070000000001 1.339849 -0.448258
331.5390625 2.719718 2.114718 -0.605
331.9765625 2.2079210000000002 1.59 -0.617921
332.6953125 1.676192 1.291734 -0.384458
333.2890625 2.3111189999999997 1.899854 -0.411265
333.74609375 2.093008 1.633192 -0.459816
334.47265625 1.64649 1.336741 -0.309749
335.03515625 1.7488739999999998 1.432972 -0.315902
335.578125 2.347056 1.74707 -0.599986
336.1328125 1.670382 1.415851 -0.254531
336.65625 1.686843 1.396843 -0.29
337.171875 1.674721 1.394874 -0.279847
337.625 2.054363 1.58 -0.474363
338.20703125 1.6354190000000002 1.453162 -0.182257
338.73046875 1.740981 1.534724 -0.206257
339.26953125 1.864794 1.604826 -0.259968
339.765625 1.670468 1.232172 -0.438296
340.40234375 1.684098 1.325325 -0.358773
340.94921875 1.700404 1.373392 -0.327012
341.48828125 2.0766869999999997 1.801915 -0.274772
341.9453125 1.78402 1.43116 -0.35286
342.59375 1.6084699999999998 1.56347 -0.045
343.15234375 1.734541 1.440299 -0.294242
343.69140625 2.25586 1.69086 -0.565
344.2265625 1.725333 1.338389 -0.386944
344.72265625 1.6234739999999999 1.178998 -0.444476
345.2734375 2.088418 1.568125 -0.520293
345.75 1.755544 1.325 -0.430544
346.37890625 1.709203 1.347805 -0.361398
346.9453125 1.6450019999999999 1.233034 -0.411968
347.5 2.156098 1.73 -0.426098
347.9609375 1.613122 1.179841 -0.433281
348.58203125 1.6100189999999999 1.325019 -0.285
349.1015625 1.536493 1.241319 -0.295174
349.6171875 1.940721 1.277227 -0.663494
350.14453125 1.8404850000000001 1.269902 -0.570583
350.4453125 0.7016979999999999 0.18319 -0.518508
350.66796875 1.697257 1.057257 -0.64
350.9296875 0.150804 -0.198859 -0.349663
351.19140625 1.817278 1.253631 -0.563647
351.734375 2.297192 1.65543 -0.641762
352.265625 1.810858 1.265858 -0.545
352.80078125 2.099622 1.514162 -0.58546
353.3359375 1.922287 1.56918 -0.353107
353.79296875 1.801473 1.312414 -0.489059
354.36328125 1.7562010000000001 1.446538 -0.309663
354.87109375 1.605394 1.330441 -0.274953
355.390625 1.7380060000000002 1.306094 -0.431912
355.84765625 1.903321 1.623515 -0.279806
356.3984375 2.0073879999999997 1.67081 -0.336578
356.92578125 1.976208 1.431228 -0.54498
357.4921875 2.6824339999999998 2.069753 -0.612681
357.98046875 1.879238 1.454994 -0.424244
358.64453125 1.774785 1.529785 -0.245
359.1953125 1.8297889999999999 1.53226 -0.297529
359.70703125 1.996207 1.485028 -0.511179
360.234375 1.8243779999999998 1.286101 -0.538277
360.484375 0.536228 0.194344 -0.341884
360.7578125 2.002664 1.48271 -0.519954
361.265625 1.518592 1.109178 -0.409414
361.79296875 2.400074 1.96818 -0.431894
362.296875 1.463562 1.296428 -0.167134
362.80859375 1.6697600000000001 1.579746 -0.090014
363.33203125 1.526826 1.559581 0.032755
363.81640625 2.048794 1.813951 -0.234843
364.3828125 2.011597 1.808472 -0.203125
364.91796875 2.057517 1.649821 -0.407696
365.45703125 1.8724370000000001 1.192437 -0.68
365.93359375 1.9448020000000001 1.209726 -0.735076
366.49609375 1.8668230000000001 1.524416 -0.342407
366.97265625 1.950631 1.516968 -0.433663
367.47265625 1.923014 0.923014 -1.0
367.95703125 2.197176 1.190133 -1.007043
368.41796875 1.887023 0.890129 -0.996894
368.91015625 1.922364 1.001626 -0.920738
369.5 0.2274219999999999 -0.55 -0.777422
369.9453125 2.122144 1.291965 -0.830179
370.4609375 2.049934 1.404934 -0.645
371.00390625 1.99146 1.31929 -0.67217
371.5390625 1.833131 1.329393 -0.503738
372.16015625 0.12565700000000002 -0.31 -0.435657
372.6640625 2.079211 1.744211 -0.335
373.18359375 1.853533 1.528462 -0.325071
373.6953125 1.807034 1.518229 -0.288805
374.1953125 3.00694 2.225899 -0.781041
374.6953125 2.215141 1.725141 -0.49
375.23046875 1.999726 1.879726 -0.12
375.7890625 2.26954 2.10454 -0.165
376.2734375 1.8319239999999999 1.375665 -0.456259
376.98828125 1.9532669999999999 1.909463 -0.043804
377.5859375 1.848038 1.789695 -0.058343
378.0703125 1.965622 1.659926 -0.305696
378.73828125 1.853648 1.758801 -0.094847
379.3046875 1.8042680000000002 1.699515 -0.104753
379.828125 1.965185 1.556119 -0.409066
380.53515625 1.814768 1.806416 -0.008352
381.125 1.8646189999999998 1.88 0.015381
381.64453125 1.863632 1.584969 -0.278663
382.4375 1.78108 1.626094 -0.154986
383.078125 2.5786160000000002 2.228663 -0.349953
383.5078125 1.949746 1.438796 -0.51095
384.40625 1.853752 1.518752 -0.335
385.69140625 1.8474920000000001 1.402492 -0.445
386.24609375 1.796257 1.37614 -0.420117
386.78515625 2.457878 1.997358 -0.46052
387.2578125 2.0471500000000002 1.597917 -0.449233
388.0703125 1.762035 1.547813 -0.214222
388.671875 1.809176 1.609176 -0.2
389.19140625 1.8548 1.370808 -0.483992
389.8359375 1.931128 1.714958 -0.21617
390.42578125 1.825009 1.572759 -0.25225
390.98828125 2.576352 2.186475 -0.389877
391.44140625 2.079171 1.484769 -0.594402
392.21875 1.796406 1.43458 -0.361826
393.421875 1.7054150000000001 1.250606 -0.454809
394.01171875 1.764082 1.353227 -0.410855
394.61328125 2.157453 1.70813 -0.449323
395.08984375 1.917971 1.358864 -0.559107
395.8515625 1.543164 1.261403 -0.281761
396.99609375 1.723249 1.458249 -0.265
397.546875 1.723792 1.567879 -0.155913
398.1015625 1.773901 1.689135 -0.084766
398.5546875 1.8477489999999999 1.624428 -0.223321
399.28125 1.7763309999999999 1.813154 0.036823
399.8984375 1.7141149999999998 1.722009 0.007894
400.5234375 2.600786 2.270977 -0.329809
400.97265625 1.905946 1.594704 -0.311242
401.80859375 1.864015 1.753766 -0.110249
402.42578125 2.640801 2.232667 -0.408134
402.859375 1.804326 1.302955 -0.501371
403.671875 1.7352569999999998 1.539788 -0.195469
404.2265625 2.183188 1.943188 -0.24
404.640625 2.01524 1.518307 -0.496933
405.40234375 1.773367 1.468367 -0.305
405.9921875 1.881249 1.573046 -0.308203
406.5859375 2.349177 1.959302 -0.389875
407.07421875 1.827914 1.359138 -0.468776
407.8515625 1.814916 1.352025 -0.462891
408.43359375 1.7518289999999999 1.337708 -0.414121
408.94921875 1.8722089999999998 1.167209 -0.705
409.6015625 1.7999079999999998 1.344852 -0.455056
410.21484375 1.877485 1.402368 -0.475117
410.796875 2.410367 1.701012 -0.709355
411.26171875 1.9489299999999998 1.323025 -0.625905
412.14453125 1.7853539999999999 1.4561 -0.329254
412.7734375 2.431005 1.77898 -0.652025
413.21484375 2.057773 1.451509 -0.606264
414.0234375 1.873883 1.619108 -0.254775
414.62890625 2.488452 2.048677 -0.439775
415.05859375 2.280934 1.634739 -0.646195
415.76953125 1.873986 1.654642 -0.219344
416.3046875 1.6985480000000002 1.743586 0.045038
416.81640625 1.849564 1.574877 -0.274687
417.53125 1.782393 1.488171 -0.294222
418.140625 1.798093 1.253099 -0.544994
418.76171875 2.2425 1.187734 -1.054766
419.25390625 1.7627030000000001 0.891138 -0.871565
420.203125 1.806753 1.268874 -0.537879
420.73046875 1.904696 1.184988 -0.719708
421.4921875 1.804069 1.409193 -0.394876
422.109375 1.893624 1.475449 -0.418175
422.6796875 2.548134 1.913134 -0.635
423.16796875 1.900999 1.345999 -0.555
424.07421875 1.836352 1.496362 -0.33999
424.67578125 2.028693 1.476379 -0.552314
425.21875 2.007017 1.500201 -0.506816
426.0078125 1.856835 1.558918 -0.297917
426.37109375 0.03998099999999999 -0.275 -0.314981
426.5859375 2.6896009999999997 2.164627 -0.524974
427.01953125 2.2325239999999997 1.624947 -0.607577
427.8203125 1.912359 1.588511 -0.323848
428.37890625 2.7225460000000004 2.173395 -0.549151
428.828125 1.974942 1.304783 -0.670159
429.73828125 1.8426239999999998 1.547653 -0.294971
430.3203125 2.060995 1.360167 -0.700828
430.8515625 2.007612 1.335359 -0.672253
431.66015625 1.817983 1.442245 -0.375738
432.27734375 2.6710570000000002 2.206507 -0.46455
432.73828125 1.992126 1.598414 -0.393712
433.5078125 1.914426 1.630989 -0.283437
434.06640625 2.2221830000000002 1.889312 -0.332871
434.4765625 2.126954 1.615 -0.511954
435.265625 1.816437 1.386473 -0.429964
435.90234375 2.375937 1.875947 -0.49999
436.3671875 1.9634779999999998 1.303945 -0.659533
437.2578125 1.8083 1.433321 -0.374979
437.85546875 2.572014 2.10987 -0.462144
438.28125 2.014438 1.383761 -0.630677
439.11328125 1.792669 1.444183 -0.348486
439.71484375 2.6254239999999998 2.06569 -0.559734
440.13671875 2.057607 1.325559 -0.732048
440.93359375 1.864646 1.53899 -0.325656
441.53515625 2.509967 2.152406 -0.357561
441.98828125 1.883332 1.347261 -0.536071
442.90625 1.847395 1.532395 -0.315
443.53125 2.251192 1.569286 -0.681906
443.98828125 1.90469 1.285 -0.61969
444.83203125 1.792308 1.437308 -0.355
445.42578125 2.44393 1.715 -0.72893
445.83984375 1.854299 1.171603 -0.682696
446.67578125 1.815236 1.376129 -0.439107
447.3046875 2.529813 1.943199 -0.586614
447.7734375 1.7274319999999999 1.298301 -0.429131
448.6328125 1.774337 1.5709 -0.203437
449.23828125 2.633437 2.315 -0.318437
449.68359375 1.9949400000000002 1.609568 -0.385372
450.46484375 1.800277 1.614393 -0.185884
451.05859375 2.528564 2.188596 -0.339968
451.48828125 2.083372 1.563758 -0.519614
452.3125 1.857396 1.612396 -0.245
452.90234375 2.3683009999999998 1.933396 -0.434905
453.3515625 1.670324 1.360903 -0.309421
454.26171875 1.7771190000000001 1.517146 -0.259973
454.88671875 2.579943 2.025003 -0.55494
455.35546875 1.934712 1.445 -0.489712
456.1328125 1.789306 1.514407 -0.274899
456.71875 2.591615 2.179183 -0.412432
457.15234375 2.170849 1.561385 -0.609464
457.91796875 1.794681 1.435 -0.359681
458.46875 2.36763 1.978228 -0.389402
458.9296875 2.038093 1.522473 -0.51562
459.625 1.6046420000000001 1.26 -0.344642
460.20703125 1.5594059999999998 1.200184 -0.359222
460.7890625 1.759142 1.409197 -0.349945
461.3984375 1.777651 1.438922 -0.338729
462.046875 1.807417 1.477855 -0.329562
462.625 1.718102 1.225 -0.493102
463.17578125 1.7120229999999999 1.221053 -0.49097
464.05859375 1.7842190000000002 1.291492 -0.492727
464.58203125 1.981331 1.235896 -0.745435
465.08984375 1.723334 1.002588 -0.720746
466.12109375 1.786511 1.292292 -0.494219
466.703125 2.001722 1.299272 -0.70245
467.2265625 1.72484 1.191619 -0.533221
468.109375 1.774667 1.490117 -0.28455
468.66796875 2.064497 1.4502 -0.614297
469.171875 1.748511 1.341035 -0.407476
470.05859375 1.818077 1.600287 -0.21779
470.57421875 1.973456 1.408172 -0.565284
471.0859375 1.681125 1.269893 -0.411232
472.0234375 1.6969319999999999 1.427271 -0.269661
472.5859375 1.8670209999999998 1.289596 -0.577425
473.1484375 1.8726530000000001 1.220054 -0.652599
474.0546875 1.6872919999999998 1.367398 -0.319894
474.60546875 1.9318969999999998 1.314979 -0.616918
475.109375 1.7685689999999998 1.162942 -0.605627
475.96484375 1.70439 1.489417 -0.214973
476.515625 1.9659980000000001 1.462676 -0.503322
477.0078125 1.885428 1.364806 -0.520622
477.8984375 1.746902 1.57699 -0.169912
478.4765625 1.913923 1.388923 -0.525
478.984375 1.6066719999999999 1.251761 -0.354911
479.875 1.805161 1.52 -0.285161
480.4296875 1.858111 1.302415 -0.555696
480.953125 1.677551 1.204559 -0.472992
481.8359375 1.721755 1.39678 -0.324975
482.34765625 1.924845 1.334046 -0.590799
482.8828125 1.880875 1.335 -0.545875
483.71875 1.769873 1.439873 -0.33
484.35546875 2.523984 1.91998 -0.604004
484.828125 1.8536270000000001 1.374902 -0.478725
485.61328125 1.753144 1.545364 -0.20778
486.21875 2.307932 1.696536 -0.611396
486.65234375 1.7205499999999998 1.243742 -0.476808
487.51171875 1.8106 1.545698 -0.264902
488.05859375 1.910401 1.414808 -0.495593
488.5390625 1.609817 1.199751 -0.410066
489.44140625 1.858933 1.533933 -0.325
490.0 1.9337330000000001 1.445 -0.488733
490.53125 1.839953 1.408869 -0.431084
491.375 1.7449999999999999 1.515 -0.23
491.97265625 2.328237 1.793584 -0.534653
492.43359375 1.922386 1.464886 -0.4575
493.23828125 1.763526 1.603526 -0.16
493.77734375 1.89727 1.47 -0.42727
494.24609375 1.759777 1.286973 -0.472804
495.140625 1.80846 1.643487 -0.164973
495.71484375 1.865785 1.447662 -0.418123
496.2421875 1.483094 1.248526 -0.234568
497.15234375 1.779936 1.449207 -0.330729
497.6875 1.9273129999999998 1.298646 -0.628667
498.1875 1.8764980000000002 1.188681 -0.687817
499.00390625 1.737804 1.403249 -0.334555
499.58984375 2.120048 1.550035 -0.570013
500.0234375 1.6841270000000002 0.976052 -0.708075
500.85546875 1.7947639999999998 1.379989 -0.414775
501.41796875 1.831277 1.318487 -0.51279
501.9375 1.468749 1.156797 -0.311952
502.9140625 1.747175 1.474214 -0.272961
503.47265625 1.984489 1.413665 -0.570824
503.95703125 1.647664 1.211119 -0.436545
504.875 1.648754 1.455 -0.193754
505.40625 1.681802 1.37825 -0.303552
505.8984375 1.64124 1.136276 -0.504964
506.8671875 1.777401 1.493026 -0.284375
507.421875 1.827623 1.365 -0.462623
507.9375 1.64603 1.190132 -0.455898
508.9296875 1.6264409999999998 1.346774 -0.279667
509.46875 1.8805200000000002 1.34725 -0.53327
509.96484375 1.587538 1.23192 -0.355618
510.875 1.77 1.6 -0.17
511.40625 1.939957 1.43 -0.509957
511.87890625 1.639737 1.201187 -0.43855
512.71484375 1.8584699999999998 1.551702 -0.306768
513.28125 1.8700539999999999 1.41 -0.460054
513.8203125 1.623747 1.239416 -0.384331
514.7421875 1.79617 1.5169 -0.27927
515.28515625 1.994075 1.415 -0.579075
515.76953125 1.708999 1.225287 -0.483712
516.61328125 1.618234 1.409748 -0.208486
517.15625 1.714591 1.352079 -0.362512
517.62109375 1.535371 1.145987 -0.389384
518.453125 1.6986659999999998 1.410478 -0.288188
519.0078125 1.778211 1.299561 -0.47865
519.50390625 1.411832 1.090838 -0.320994
520.45703125 1.445261 1.081937 -0.363324
521.04296875 1.591246 1.066246 -0.525
521.51953125 1.535543 0.99 -0.545543
522.35546875 1.694798 1.339798 -0.355
522.921875 2.181585 1.55886 -0.622725
523.34765625 1.832341 1.089638 -0.742703
524.125 1.889612 1.495 -0.394612
524.6953125 2.4854410000000002 1.815441 -0.67
525.15234375 1.643364 1.129491 -0.513873
526.09765625 1.852767 1.447767 -0.405
526.671875 2.030398 1.251052 -0.779346
527.1328125 1.853081 1.163133 -0.689948
528.05078125 1.837506 1.453365 -0.384141
528.61328125 1.944184 1.29822 -0.645964
529.0859375 1.6107580000000001 1.094877 -0.515881
529.921875 1.921415 1.542411 -0.379004
530.44140625 2.0937419999999998 1.444523 -0.649219
530.921875 1.808292 1.313815 -0.494477
531.71875 1.900662 1.584416 -0.316246
532.3515625 2.631478 1.911478 -0.72
532.80078125 1.97989 1.24342 -0.73647
533.6171875 1.910958 1.507233 -0.403725
534.21875 2.322003 1.721719 -0.600284
534.6484375 1.490614 1.07 -0.420614
535.5390625 1.8729149999999999 1.48938 -0.383535
536.0859375 1.974526 1.389574 -0.584952
536.53125 1.62277 1.2 -0.42277
537.41796875 1.8655020000000002 1.590502 -0.275
537.9921875 2.004078 1.369783 -0.634295
538.46875 1.658615 1.197852 -0.460763
539.3203125 1.9031420000000001 1.563142 -0.34
539.88671875 2.025564 1.444397 -0.581167
540.375 1.557863 1.145 -0.412863
541.234375 1.873029 1.464728 -0.408301
541.765625 1.96593 1.437212 -0.528718
542.23828125 1.903515 1.333515 -0.57
543.07421875 1.840287 1.560245 -0.280042
543.66796875 2.071532 1.499507 -0.572025
544.140625 1.813262 1.500645 -0.312617
544.92578125 1.870143 1.560457 -0.309686
545.5 2.621246 2.14 -0.481246
545.95703125 1.835454 1.423358 -0.412096
546.61328125 1.85225 1.53864 -0.31361
547.16796875 1.91938 1.48438 -0.435
547.6953125 2.45172 1.825106 -0.626614
548.21875 1.9527590000000001 1.573525 -0.379234
548.72265625 2.005439 1.62776 -0.377679
549.296875 2.530865 2.063822 -0.467043
549.78125 1.852271 1.339645 -0.512626
550.71484375 1.800342 1.517776 -0.282566
551.2734375 1.8678569999999999 1.348898 -0.518959
551.75390625 1.544864 1.166732 -0.378132
552.6640625 1.808605 1.473613 -0.334992
553.1953125 1.980422 1.405344 -0.575078
553.65625 1.7884520000000002 1.292812 -0.49564
554.421875 1.8439539999999999 1.593961 -0.249993
555.01171875 2.568223 2.125664 -0.442559
555.46875 1.685054 1.217536 -0.467518
556.36328125 1.828171 1.503893 -0.324278
556.92578125 1.9162689999999998 1.372075 -0.544194
557.421875 1.5310759999999999 1.176076 -0.355
558.35546875 1.772464 1.447524 -0.32494
558.890625 1.916919 1.317292 -0.599627
559.34375 1.736245 1.207187 -0.529058
560.23046875 1.822091 1.454083 -0.368008
560.75390625 1.858832 1.305 -0.553832
561.23828125 1.642643 1.164355 -0.478288
562.109375 1.82502 1.480469 -0.344551
562.73046875 2.464686 1.929952 -0.534734
563.19140625 1.873176 1.384663 -0.488513
563.9609375 1.8541159999999999 1.579853 -0.274263
564.546875 2.5557350000000003 2.047689 -0.508046
564.9765625 1.6766969999999999 1.239606 -0.437091
565.8125 1.8561040000000002 1.573225 -0.282879
566.37109375 2.349734 1.863515 -0.486219
566.8046875 1.747661 1.309502 -0.438159
567.66796875 1.808263 1.498271 -0.309992
568.29296875 2.126407 1.511407 -0.615
568.75 1.90632 1.43 -0.47632
569.55078125 1.8582299999999998 1.587573 -0.270657
570.1640625 2.487081 1.919857 -0.567224
570.58984375 1.803077 1.300753 -0.502324
571.390625 1.908585 1.60425 -0.304335
571.9609375 2.294946 1.769946 -0.525
572.38671875 1.7484830000000002 1.293616 -0.454867
573.29296875 1.8426740000000001 1.456619 -0.386055
573.87109375 1.99627 1.306676 -0.689594
574.375 1.9231120000000002 1.27 -0.653112
575.21484375 1.899157 1.564493 -0.334664
575.81640625 2.024032 1.459697 -0.564335
576.25 1.813045 1.28 -0.533045
577.05078125 1.8441990000000001 1.540545 -0.303654
577.6328125 2.563548 2.063797 -0.499751
578.07421875 1.859585 1.414047 -0.445538
578.8125 1.808068 1.516803 -0.291265
579.41796875 2.681346 2.119541 -0.561805
579.8828125 1.983076 1.439321 -0.543755
580.734375 1.893148 1.57989 -0.313258
581.34375 2.389221 1.875205 -0.514016
581.765625 1.5898029999999999 1.206016 -0.383787
582.65234375 1.917824 1.577986 -0.339838
583.1953125 2.032152 1.422152 -0.61
583.6953125 1.967213 1.441888 -0.525325
584.46484375 1.7980360000000002 1.468093 -0.329943
585.06640625 2.364731 1.779032 -0.585699
585.515625 1.865972 1.288203 -0.577769
586.34765625 1.8589419999999999 1.54965 -0.309292
586.96484375 2.483711 1.950503 -0.533208
587.4375 1.796856 1.36 -0.436856
588.2578125 1.843291 1.523291 -0.32
588.84765625 2.454722 1.889046 -0.565676
589.28515625 1.966303 1.459339 -0.506964
590.0625 1.769074 1.4995 -0.269574
590.625 2.374629 1.76 -0.614629
591.0703125 1.7633999999999999 1.186626 -0.576774
591.9375 1.925024 1.59125 -0.333774
592.5546875 2.427008 1.857008 -0.57
593.0234375 1.769813 1.323326 -0.446487
593.80859375 1.8794570000000002 1.568696 -0.310761
594.41015625 2.528104 1.94811 -0.579994
594.8671875 1.8719459999999999 1.343526 -0.52842
595.6953125 1.821784 1.572098 -0.249686
596.24609375 2.0789489999999997 1.348094 -0.730855
596.671875 1.846578 1.293901 -0.552677
597.5078125 1.8701210000000001 1.622926 -0.247195
598.125 2.2044 1.635 -0.5694
598.6171875 1.7010429999999999 1.339289 -0.361754
599.39453125 1.819893 1.494893 -0.325
599.984375 2.696715 2.196816 -0.499899
600.421875 2.2550689999999998 1.69471 -0.560359
601.15234375 1.905691 1.63572 -0.269971
601.734375 2.515261 2.125261 -0.39
602.1796875 2.008933 1.474451 -0.534482
602.96875 1.882305 1.582706 -0.299599
603.5859375 2.574834 2.139863 -0.434971
604.0390625 1.763082 1.429805 -0.333277
604.859375 1.772135 1.547135 -0.225
605.45703125 2.586002 1.951961 -0.634041
605.88671875 1.826689 1.273486 -0.553203
606.69140625 1.888576 1.533909 -0.354667
607.2734375 2.537173 1.928003 -0.60917
607.6953125 1.776027 1.09 -0.686027
608.44140625 1.854288 1.399489 -0.454799
609.03125 2.609674 2.014674 -0.595
609.50390625 1.848848 1.338135 -0.510713
610.328125 1.890674 1.475731 -0.414943
610.9453125 2.637781 2.012937 -0.624844
611.37109375 1.8836140000000001 1.333285 -0.550329
612.125 1.812528 1.54 -0.272528
612.7109375 2.584176 2.079277 -0.504899
613.12890625 2.011317 1.392566 -0.618751
613.89453125 1.814632 1.499898 -0.314734
614.453125 2.604856 2.162346 -0.44251
614.890625 1.933391 1.428274 -0.505117
615.65625 1.867026 1.547026 -0.32
616.24609375 2.468113 2.049331 -0.418782
616.71484375 2.008382 1.460101 -0.548281
617.44921875 1.797491 1.478882 -0.318609
618.02734375 2.237903 1.866571 -0.371332
618.4921875 1.972174 1.366575 -0.605599
619.234375 1.8773369999999998 1.522565 -0.354772
619.8125 2.5755920000000003 2.160886 -0.414706
620.25 2.01361 1.43 -0.58361
621.015625 1.7988780000000002 1.644003 -0.154875
621.625 2.4372499999999997 1.91 -0.52725
622.08984375 2.069967 1.464332 -0.605635
622.84765625 1.9487720000000002 1.567036 -0.381736
623.40625 2.669117 2.25192 -0.417197
624.09375 1.6990020000000001 1.28 -0.419002
624.88671875 1.8288280000000001 1.738828 -0.09
625.41796875 1.9411070000000001 1.716107 -0.225
625.86328125 1.6978609999999998 1.38 -0.317861
626.71484375 1.760403 1.440872 -0.319531
627.30859375 1.932439 1.1996 -0.732839
627.765625 1.622783 0.985 -0.637783
628.45703125 1.795528 1.290199 -0.505329
629.0078125 1.770764 1.32078 -0.449984
629.54296875 1.8159800000000001 1.414535 -0.401445
630.0703125 1.865042 1.51 -0.355042
630.58984375 1.842046 1.497452 -0.344594
631.09375 1.848398 1.441523 -0.406875
631.6015625 1.800512 1.400637 -0.399875
632.12890625 1.795701 1.464419 -0.331282
632.625 1.841853 1.465 -0.376853
633.1640625 1.7830400000000002 1.373193 -0.409847
633.71484375 1.882331 1.484659 -0.397672
634.30078125 1.8333409999999999 1.513677 -0.319664
634.90234375 1.809032 1.504748 -0.304284
635.48828125 2.607158 2.227158 -0.38
635.96875 1.937535 1.470297 -0.467238
636.7421875 1.855759 1.586025 -0.269734
637.30859375 2.428687 2.087235 -0.341452
637.7578125 2.0997 1.625 -0.4747
638.44140625 1.8638119999999998 1.618812 -0.245
639.03515625 2.4186159999999997 2.11114 -0.307476
639.51953125 1.8906 1.624978 -0.265622
640.26171875 1.8583210000000001 1.609653 -0.248668
640.8515625 1.86799 1.54299 -0.325
641.41796875 2.088776 1.513457 -0.575319
641.99609375 1.756 1.445 -0.311
642.578125 1.784646 1.474646 -0.31
643.16796875 2.599723 2.091911 -0.507812
643.61328125 1.685201 1.124058 -0.561143
644.38671875 1.809819 1.406209 -0.40361
644.96484375 2.465675 1.862238 -0.603437
645.48828125 1.8388309999999999 1.32615 -0.512681
646.12890625 1.8241509999999999 1.499151 -0.325
646.72265625 1.8479160000000001 1.508472 -0.339444
647.296875 1.799893 1.484918 -0.314975
647.84375 1.787752 1.432752 -0.355
648.40625 1.801953 1.442604 -0.359349
648.96875 2.1484199999999998 1.79842 -0.35
649.42578125 1.814788 1.306737 -0.508051
650.1328125 1.75233 1.407414 -0.344916
650.70703125 1.837096 1.385084 -0.452012
651.2109375 1.7435969999999998 1.186011 -0.557586
651.97265625 1.8182779999999998 1.428278 -0.39
652.59375 2.315991 1.951023 -0.364968
653.046875 1.772853 1.287853 -0.485
653.890625 1.725988 1.370143 -0.355845
654.50390625 2.5705780000000003 1.95011 -0.620468
654.9296875 1.7520170000000002 1.10807 -0.643947
655.65625 1.818473 1.448636 -0.369837
656.20703125 2.166844 1.769163 -0.397681
656.640625 1.984502 1.428467 -0.556035
657.3515625 1.798712 1.509635 -0.289077
657.96875 1.8111460000000001 1.606146 -0.205
658.52734375 1.7799070000000001 1.369849 -0.410058
659.2890625 1.869647 1.60978 -0.259867
659.90625 2.357768 1.843198 -0.51457
660.3359375 1.506663 1.184914 -0.321749
661.2265625 1.7606110000000001 1.561101 -0.19951
661.78125 1.8485 1.333641 -0.514859
662.23828125 1.84857 1.18973 -0.65884
663.03125 1.793546 1.473546 -0.32
663.63671875 2.272586 1.682586 -0.59
664.109375 1.697753 1.191695 -0.506058
664.87890625 1.877192 1.452333 -0.424859
665.48046875 2.529554 2.009801 -0.519753
665.9453125 1.8768440000000002 1.385728 -0.491116
666.703125 1.730926 1.360962 -0.369964
667.2890625 2.534934 1.949934 -0.585
667.703125 1.919059 1.229805 -0.689254
668.4609375 1.777882 1.384238 -0.393644
669.07421875 2.297318 1.613544 -0.683774
669.53515625 1.755661 1.060661 -0.695
670.3359375 1.869541 1.364541 -0.505
670.9296875 2.622655 1.972655 -0.65
671.38671875 1.825971 1.225 -0.600971
672.09375 1.782894 1.360179 -0.422715
672.6796875 2.306125 1.791125 -0.515
673.125 2.055702 1.375 -0.680702
673.875 1.933754 1.625 -0.308754
674.4296875 2.562809 2.109655 -0.453154
674.8671875 1.809273 1.223088 -0.586185
675.69921875 1.809372 1.379379 -0.429993
676.33984375 2.264438 1.517292 -0.747146
676.80859375 1.821552 1.160842 -0.66071
677.5859375 1.839934 1.404934 -0.435
678.16015625 2.571333 1.965552 -0.605781
678.5859375 1.846186 1.193988 -0.652198
679.37890625 1.933545 1.618473 -0.315072
679.953125 2.288212 1.823212 -0.465
680.375 1.7777729999999998 1.275 -0.502773
681.1953125 1.830433 1.503776 -0.326657
681.80859375 2.346293 1.720839 -0.625454
682.2734375 1.899529 1.310054 -0.589475
683.0546875 1.855762 1.52931 -0.326452
683.66015625 2.514982 1.950474 -0.564508
684.11328125 1.8292860000000002 1.253616 -0.57567
684.8828125 1.897769 1.567785 -0.329984
685.4375 2.583971 2.049 -0.534971
685.8828125 1.864093 1.238404 -0.625689
686.61328125 1.828409 1.348409 -0.48
687.1953125 2.692809 2.047823 -0.644986
687.6640625 2.008727 1.404921 -0.603806
688.421875 1.8848120000000002 1.509918 -0.374894
689.0078125 2.225453 1.873932 -0.351521
689.46484375 1.913767 1.378536 -0.535231
690.18359375 1.90412 1.492185 -0.411935
690.76953125 2.374448 1.929729 -0.444719
691.23046875 2.049747 1.499994 -0.549753
691.953125 1.8535 1.5735 -0.28
692.49609375 2.485652 2.166364 -0.319288
692.93359375 2.08404 1.609883 -0.474157
693.6796875 1.909338 1.61937 -0.289968
694.28125 2.170662 1.895662 -0.275
694.75390625 1.710481 1.39286 -0.317621
695.61328125 1.814718 1.536232 -0.278486
696.18359375 1.950864 1.464726 -0.486138
696.65234375 1.805332 1.305 -0.500332
697.3984375 1.8143900000000002 1.574318 -0.240072
697.97265625 2.681578 2.297009 -0.384569
698.39453125 1.968537 1.485 -0.483537
699.140625 1.860406 1.580915 -0.279491
699.75 2.345 2.14 -0.205
700.203125 1.9333770000000001 1.629258 -0.304119
701.03515625 1.818108 1.59467 -0.223438
701.625 2.381406 1.905 -0.476406
702.0625 1.661245 1.308333 -0.352912
702.91015625 1.848829 1.703532 -0.145297
703.4609375 1.97126 1.52 -0.45126
703.91796875 1.857613 1.363804 -0.493809
704.6640625 1.931142 1.694078 -0.237064
705.26953125 2.455468 2.075937 -0.379531
705.75390625 1.6763329999999999 1.39 -0.286333
706.60546875 1.846925 1.634448 -0.212477
707.23046875 2.435672 1.964901 -0.470771
707.66796875 1.7823039999999999 1.422304 -0.36
708.46484375 1.779358 1.594434 -0.184924
709.05078125 2.6495569999999997 2.139557 -0.51
709.484375 1.929369 1.440643 -0.488726
710.26953125 1.830346 1.624581 -0.205765
710.83984375 2.597741 2.202741 -0.395
711.28515625 1.802927 1.383288 -0.419639
712.14453125 1.88484 1.679897 -0.204943
712.76953125 2.528064 2.059705 -0.468359
713.25390625 1.811475 1.410274 -0.401201
714.1171875 1.885832 1.71187 -0.173962
714.68359375 2.014686 1.504131 -0.510555
715.17578125 1.928277 1.454002 -0.474275
715.93359375 1.85272 1.723091 -0.129629
716.5 2.578437 2.2 -0.378437
716.94140625 1.591346 1.334949 -0.256397
717.859375 1.770761 1.636427 -0.134334
718.4453125 1.799102 1.435461 -0.363641
718.97265625 1.793542 1.36 -0.433542
719.796875 1.85858 1.647667 -0.210913
720.40625 2.565772 2.123547 -0.442225
720.87890625 1.879449 1.491093 -0.388356
721.640625 1.822552 1.657677 -0.164875
722.21875 2.601414 2.196414 -0.405
722.62109375 2.129252 1.584809 -0.544443
723.4609375 1.8168170000000001 1.612208 -0.204609
724.08203125 2.5616649999999996 2.112367 -0.449298
724.54296875 1.744243 1.219684 -0.524559
725.390625 1.88938 1.55938 -0.33
725.984375 2.606062 2.151062 -0.455
726.4375 1.864566 1.434531 -0.430035
727.22265625 1.761512 1.47518 -0.286332
727.81640625 2.639638 2.154646 -0.484992
728.2578125 2.104675 1.542578 -0.562097
729.046875 1.848749 1.629051 -0.219698
729.66015625 2.593558 2.198558 -0.395
730.109375 1.883205 1.415728 -0.467477
730.9609375 1.855289 1.584409 -0.27088
731.5546875 2.6159809999999997 2.259492 -0.356489
732.01953125 1.887009 1.48487 -0.402139
732.828125 1.855924 1.641149 -0.214775
733.41796875 2.728613 2.293874 -0.434739
733.8515625 1.9133229999999999 1.453533 -0.45979
734.6640625 1.809927 1.579934 -0.229993
735.25 1.941647 1.43 -0.511647
735.76953125 1.557492 1.309978 -0.247514
736.70703125 1.949311 1.719311 -0.23
737.2578125 1.909096 1.484361 -0.424735
737.765625 1.821614 1.437864 -0.38375
738.56640625 1.875203 1.609458 -0.265745
738.94140625 0.039803000000000005 -0.205141 -0.244944
739.58984375 2.054355 1.640299 -0.414056
740.40625 1.867843 1.672853 -0.19499
740.98828125 2.042775 1.468411 -0.574364
741.44921875 1.518868 1.241165 -0.277703
742.3828125 1.75519 1.535728 -0.219462
742.9765625 1.932045 1.441688 -0.490357
743.46875 1.794475 1.273309 -0.521166
744.30078125 1.835014 1.534101 -0.300913
744.87890625 2.540284 2.086644 -0.45364
745.3203125 1.7879369999999999 1.351011 -0.436926
746.13671875 1.823506 1.529752 -0.293754
746.71875 2.535735 1.955735 -0.58
747.1640625 1.740224 1.369663 -0.370561
748.02734375 1.8757419999999998 1.626726 -0.249016
748.65625 2.597067 2.097074 -0.499993
749.0859375 1.666926 1.219973 -0.446953
749.92578125 1.8560219999999998 1.581869 -0.274153
750.55078125 2.621621 2.072201 -0.54942
750.98828125 1.652139 1.146226 -0.505913
751.828125 1.90641 1.514649 -0.391761
752.390625 2.432682 1.803327 -0.629355
752.82421875 1.800281 1.322312 -0.477969
753.67578125 1.831143 1.596143 -0.235
754.3203125 2.608376 2.074767 -0.533609
754.76953125 1.7086609999999998 1.300161 -0.4085
755.63671875 1.888572 1.663678 -0.224894
756.2421875 2.111587 1.646587 -0.465
756.66796875 1.5914220000000001 1.211422 -0.38
757.54296875 1.842275 1.514121 -0.328154
758.109375 1.8537439999999998 1.405438 -0.448306
758.578125 1.8056770000000002 1.328977 -0.4767
759.4296875 1.870696 1.577812 -0.292884
760.0234375 2.02746 1.427369 -0.600091
760.51171875 1.624279 1.238411 -0.385868
761.3671875 1.8676629999999999 1.612758 -0.254905
761.9765625 2.3839040000000002 1.924045 -0.459859
762.4296875 1.557968 1.159141 -0.398827
763.2578125 1.8810250000000002 1.557449 -0.323576
763.83984375 2.490088 1.973746 -0.516342
764.27734375 1.954975 1.42 -0.534975
765.046875 1.9376449999999998 1.662645 -0.275
765.6640625 2.634958 2.204958 -0.43
766.125 2.2342709999999997 1.755 -0.479271
766.9296875 1.847534 1.582534 -0.265
767.53515625 2.6934329999999997 2.253694 -0.439739
767.9765625 1.506974 1.198264 -0.30871
768.84375 1.9093310000000001 1.599331 -0.31
769.39453125 1.930021 1.475292 -0.454729
769.890625 1.864616 1.406562 -0.458054
770.65234375 1.865154 1.595317 -0.269837
771.25 2.647319 2.13 -0.517319
771.69140625 1.931693 1.474417 -0.457276
772.546875 1.941853 1.707891 -0.233962
773.17578125 2.57709 2.038228 -0.538862
773.61328125 1.4964870000000001 1.146781 -0.349706
774.45703125 1.8745690000000002 1.5097 -0.364869
775.00390625 2.085781 1.455 -0.630781
775.484375 1.895847 1.420728 -0.475119
776.2578125 1.870136 1.622855 -0.247281
776.84765625 2.424032 1.936676 -0.487356
777.28515625 1.601372 1.274986 -0.326386
778.1875 1.903225 1.630968 -0.272257
778.75390625 1.928839 1.449513 -0.479326
779.25390625 1.542598 1.275 -0.267598
780.15234375 1.877629 1.587629 -0.29
780.69921875 1.999971 1.498565 -0.501406
781.19140625 1.83583 1.399806 -0.436024
781.9453125 1.8442999999999998 1.647139 -0.197161
782.5 2.5768940000000002 2.095 -0.481894
782.93359375 1.9717770000000001 1.509497 -0.46228
783.74609375 1.891638 1.666307 -0.225331
784.375 2.5997890000000003 2.2 -0.399789
784.83203125 1.6809749999999999 1.339438 -0.341537
785.71875 1.881919 1.592422 -0.289497
786.265625 2.0057650000000002 1.483343 -0.522422
786.7578125 1.716516 1.339011 -0.377505
787.62109375 1.811465 1.586465 -0.225
788.16015625 1.9649960000000002 1.471386 -0.49361
788.59765625 1.779842 1.354212 -0.42563
789.39453125 1.8944569999999998 1.679995 -0.214462
790.015625 2.600548 2.191548 -0.409
790.4765625 1.7947510000000002 1.423264 -0.371487
791.28125 1.852814 1.588427 -0.264387
791.89453125 2.649623 2.139652 -0.509971
792.3203125 1.9172550000000002 1.424303 -0.492952
793.109375 1.816873 1.635182 -0.181691
793.6875 2.418284 1.984674 -0.43361
794.109375 1.552015 1.226836 -0.325179
794.9375 1.9263599999999999 1.663481 -0.262879
795.55078125 2.360473 1.84486 -0.515613
796.01171875 1.7325430000000002 1.32 -0.412543
796.80859375 1.836363 1.592488 -0.243875
797.41796875 2.7372769999999997 2.264398 -0.472879
797.84765625 2.174478 1.623687 -0.550791
798.6171875 1.907558 1.692558 -0.215
799.22265625 2.729073 2.299366 -0.429707
799.63671875 1.801336 1.368397 -0.432939
800.453125 1.902955 1.598319 -0.304636
800.99609375 1.913088 1.463088 -0.45
801.50390625 1.4788299999999999 1.271601 -0.207229
802.44140625 1.882635 1.613052 -0.269583
803.015625 1.965189 1.462864 -0.502325
803.4921875 1.942894 1.408916 -0.533978
804.25390625 1.940493 1.696352 -0.244141
804.8359375 2.72945 2.269507 -0.459943
805.25390625 2.093399 1.539396 -0.554003
806.02734375 1.9247189999999998 1.609827 -0.314892
806.609375 2.5634379999999997 2.078826 -0.484612
807.05078125 1.643491 1.219253 -0.424238
807.91796875 1.868685 1.493701 -0.374984
808.4921875 2.052735 1.393033 -0.659702
809.0 1.8474050000000002 1.29 -0.557405
809.8203125 1.844767 1.604767 -0.24
810.41796875 2.491421 1.906448 -0.584973
810.83203125 1.817596 1.235188 -0.582408
811.59375 1.871008 1.538 -0.333008
812.16796875 2.601522 2.04488 -0.556642
812.578125 1.82745 1.299325 -0.528125
813.37890625 1.842522 1.48791 -0.354612
813.99609375 2.712554 2.207769 -0.504785
814.4609375 2.017916 1.595551 -0.422365
815.2421875 1.861808 1.647808 -0.214
815.82421875 2.728081 2.228081 -0.5
816.2578125 1.891848 1.417454 -0.474394
817.08984375 1.887005 1.622161 -0.264844
817.6640625 2.3649999999999998 1.89 -0.475
818.09765625 1.7123080000000002 1.184849 -0.527459
818.8828125 1.826225 1.461393 -0.364832
819.484375 2.4029819999999997 1.769142 -0.63384
819.94140625 1.8112 1.31493 -0.49627
820.75 1.833324 1.605 -0.228324
821.359375 2.635913 2.17616 -0.459753
821.79296875 1.968011 1.462543 -0.505468
822.58984375 1.816989 1.536989 -0.28
823.15625 2.533168 2.025854 -0.507314
823.58984375 1.659227 1.174323 -0.484904
824.39453125 1.7974599999999998 1.459569 -0.337891
824.98046875 2.324147 1.704977 -0.61917
825.4453125 1.74745 1.295 -0.45245
826.25390625 1.7588849999999998 1.525737 -0.233148
826.859375 2.518517 2.005449 -0.513068
827.30078125 1.8786459999999998 1.297075 -0.581571
828.10546875 1.8397759999999999 1.569783 -0.269993
828.69921875 2.552404 2.072431 -0.479973
829.15625 1.734124 1.255 -0.479124
829.96875 1.835512 1.540512 -0.295
830.5234375 2.033056 1.491674 -0.541382
830.9765625 1.7462389999999999 1.33828 -0.407959
831.84765625 1.807387 1.592387 -0.215
832.46484375 2.407504 1.78243 -0.625074
832.921875 1.8766729999999998 1.344444 -0.532229
833.6953125 1.85401 1.645401 -0.208609
834.28125 2.56939 2.154397 -0.414993
834.7265625 1.947351 1.328303 -0.619048
835.5234375 1.830975 1.45821 -0.372765
836.1015625 2.576714 2.042573 -0.534141
836.53515625 1.85702 1.33358 -0.52344
837.29296875 1.780153 1.510196 -0.269957
837.8828125 2.402956 1.960144 -0.442812
838.36328125 1.9880390000000001 1.48943 -0.498609
839.11328125 1.8817499999999998 1.63675 -0.245
839.7109375 2.3894900000000003 2.069011 -0.320479
840.1640625 1.975445 1.504978 -0.470467
840.98828125 1.848708 1.523708 -0.325
841.578125 2.567231 2.016347 -0.550884
842.01953125 1.836022 1.344993 -0.491029
842.80078125 1.8653220000000001 1.660322 -0.205
843.40625 2.6976430000000002 2.204597 -0.493046
843.87890625 2.0880799999999997 1.548762 -0.539318
844.69140625 1.86675 1.599848 -0.266902
845.2890625 2.603889 2.168889 -0.435
845.7265625 1.8494039999999998 1.341559 -0.507845
846.60546875 1.844816 1.494728 -0.350088
847.19140625 2.56989 1.969648 -0.600242
847.64453125 1.927845 1.410161 -0.517684
848.375 1.89 1.71 -0.18
848.96484375 2.765602 2.342425 -0.423177
849.41796875 2.0960039999999998 1.616004 -0.48
850.30078125 1.890596 1.669249 -0.221347
850.9453125 2.173018 1.640722 -0.532296
851.41015625 1.714017 1.239151 -0.474866
852.28125 1.887371 1.534338 -0.353033
852.82421875 1.971387 1.342913 -0.628474
853.328125 1.8704420000000002 1.33959 -0.530852
854.1484375 1.82128 1.528009 -0.293271
854.71875 2.58688 1.941025 -0.645855
855.16015625 1.8611019999999998 1.255 -0.606102
856.00390625 1.920872 1.568082 -0.35279
856.6328125 2.551737 1.981737 -0.57
857.08203125 1.690948 1.17 -0.520948
857.9453125 1.887598 1.497598 -0.39
858.56640625 2.3598030000000003 1.734803 -0.625
859.0078125 1.9186619999999999 1.419816 -0.498846
859.80078125 1.825694 1.585694 -0.24
860.3671875 2.565296 1.970667 -0.594629
860.8046875 1.9052510000000002 1.359819 -0.545432
861.6875 1.8690419999999999 1.595194 -0.273848
862.31640625 2.4919000000000002 1.954336 -0.537564
862.7734375 1.8071959999999998 1.306674 -0.500522
863.60546875 1.9438090000000001 1.574758 -0.369051
864.21875 2.487218 1.90466 -0.582558
864.66015625 1.7855779999999999 1.337551 -0.448027
865.47265625 1.810916 1.490916 -0.32
866.0703125 2.578465 1.90124 -0.677225
866.46875 1.891979 1.343922 -0.548057
867.2578125 1.852492 1.554006 -0.298486
867.875 2.58 2.165 -0.415
868.359375 1.90127 1.43502 -0.46625
869.1953125 1.886697 1.523319 -0.363378
869.7890625 2.588903 2.174236 -0.414667
870.234375 2.010562 1.625 -0.385562
870.96484375 1.754483 1.489526 -0.264957
871.546875 2.1935789999999997 1.723579 -0.47
871.98828125 2.136908 1.423783 -0.713125
872.6953125 1.8001999999999998 1.410278 -0.389922
873.328125 1.737387 1.382387 -0.355
873.859375 1.72611 1.278307 -0.447803
874.62109375 1.9620760000000002 1.34636 -0.615716
875.2265625 1.820422 1.330598 -0.489824
875.72265625 2.11257 1.614119 -0.498451
876.640625 1.838298 1.478027 -0.360271
877.234375 1.8858160000000002 1.055625 -0.830191
877.671875 1.545881 0.8 -0.745881
878.53125 1.674191 1.154227 -0.519964
879.1171875 2.244758 1.53886 -0.705898
879.59375 1.6738529999999998 1.311875 -0.361978
880.3046875 1.820973 1.500973 -0.32
880.88671875 1.7909220000000001 1.445974 -0.344948
881.4296875 1.747034 1.462988 -0.284046
881.9609375 1.777937 1.518787 -0.25915
882.5 1.844943 1.56 -0.284943
883.06640625 1.733294 1.422669 -0.310625
883.65234375 1.943587 1.473587 -0.47
884.2109375 1.817987 1.313253 -0.504734
884.765625 1.790639 1.321314 -0.469325
885.3828125 2.66308 2.075424 -0.587656
885.81640625 1.5105719999999998 0.994779 -0.515793
886.671875 1.776373 1.311438 -0.464935
887.27734375 2.17356 1.78856 -0.385
887.73046875 1.829318 1.364971 -0.464347
888.39453125 1.748428 1.459972 -0.288456
888.9375 1.954342 1.448333 -0.506009
889.45703125 2.021387 1.586387 -0.435
889.92578125 2.093416 1.413611 -0.679805
890.6328125 1.904496 1.381861 -0.522635
891.24609375 1.776691 1.38517 -0.391521
891.83984375 2.539062 1.966472 -0.57259
892.4140625 1.8353709999999999 1.429746 -0.405625
892.9921875 1.815754 1.390784 -0.42497
893.5703125 2.2640160000000003 1.805295 -0.458721
894.03125 1.9487420000000002 1.235 -0.713742
894.67578125 1.8419320000000001 1.468158 -0.373774
895.21875 1.809727 1.527895 -0.281832
895.75390625 1.720518 1.381102 -0.339416
896.234375 1.873057 1.304217 -0.56884
896.84765625 1.78888 1.461068 -0.327812
897.44921875 1.696558 1.301575 -0.394983
898.11328125 2.676644 2.123144 -0.5535
898.57421875 1.615812 1.126902 -0.48891
899.46875 1.8616139999999999 1.309891 -0.551723
900.03125 1.887522 1.271461 -0.616061
900.5078125 2.165386 1.313724 -0.851662
901.2890625 1.937509 1.509525 -0.427984
901.8671875 2.675744 2.084673 -0.591071
902.32421875 2.082041 1.374852 -0.707189
902.54296875 0.08262500000000006 -0.687163 -0.769788
902.80859375 0.38926499999999997 0.014694 -0.374571
903.015625 1.813493 1.238493 -0.575
903.23828125 1.265422 0.83853 -0.426892
903.61328125 2.281621 1.47214 -0.809481
904.2109375 2.5947929999999997 2.169793 -0.425
904.6953125 2.298778 1.605015 -0.693763
905.03125 1.6378009999999998 0.611211 -1.02659
905.546875 2.317716 1.826152 -0.491564
906.1484375 2.4819519999999997 2.057314 -0.424638
906.61328125 2.133895 1.506822 -0.627073
907.33203125 1.8915579999999999 1.582514 -0.309044
907.90234375 1.847686 1.57786 -0.269826
908.359375 2.045511 1.440639 -0.604872
909.109375 1.8215409999999999 1.525234 -0.296307
909.73046875 1.7994269999999999 1.454921 -0.344506
910.30078125 1.793725 1.195905 -0.59782
911.00390625 1.8041639999999999 1.404475 -0.399689
911.59765625 1.772581 1.302581 -0.47
912.19921875 2.681209 1.943022 -0.738187
912.65625 1.8932860000000002 1.235 -0.658286
913.453125 1.7797450000000001 1.419745 -0.36
914.0390625 2.438155 1.984176 -0.453979
914.4375 2.090935 1.47 -0.620935
915.234375 1.7933430000000001 1.422344 -0.370999
915.85546875 2.108151 1.7547 -0.353451
916.3203125 1.875542 1.445 -0.430542
917.1484375 1.756212 1.467348 -0.288864
917.75390625 1.7967680000000001 1.445 -0.351768
918.26953125 1.855458 1.239994 -0.615464
918.91015625 1.857772 1.503328 -0.354444
919.51953125 1.835664 1.479898 -0.355766
920.09765625 1.749474 1.184591 -0.564883
920.84375 1.7867359999999999 1.353395 -0.433341
921.515625 1.77733 1.38849 -0.38884
922.1171875 1.821883 1.295 -0.526883
922.75390625 1.6941220000000001 1.379482 -0.31464
923.6015625 1.8214100000000002 1.459866 -0.361544
924.1796875 1.880579 1.295152 -0.585427
924.7109375 1.608526 1.119737 -0.488789
925.60546875 1.839804 1.514804 -0.325
926.15625 1.872669 1.290833 -0.581836
926.6328125 1.808676 1.22397 -0.584706
927.48046875 1.819813 1.529876 -0.289937
928.125 2.643576 2.245 -0.398576
928.62109375 1.698513 1.403119 -0.295394
929.41015625 1.77969 1.489937 -0.289753
930.01953125 2.235518 1.889663 -0.345855
930.46875 1.931329 1.428333 -0.502996
931.0546875 1.771325 1.324736 -0.446589
932.01953125 1.804691 1.494837 -0.309854
932.5390625 1.909683 1.334683 -0.575
933.25390625 1.779015 1.5052 -0.273815
933.88671875 1.736637 1.411637 -0.325
934.49609375 1.849701 1.235 -0.614701
935.05859375 1.754741 1.179947 -0.574794
935.94921875 1.8301560000000001 1.501621 -0.328535
936.51171875 1.906086 1.325 -0.581086
937.2265625 1.8111380000000001 1.486723 -0.324415
937.8515625 1.777601 1.382187 -0.395414
938.3984375 1.945219 1.339606 -0.605613
938.95703125 1.798448 1.311657 -0.486791
939.88671875 1.7788030000000001 1.461448 -0.317355
940.47265625 1.9539400000000002 1.369849 -0.584091
940.99609375 1.617023 1.238906 -0.378117
941.9140625 1.875 1.53 -0.345
942.4921875 1.821158 1.212632 -0.608526
943.2109375 1.846001 1.468329 -0.377672
943.8125 1.843587 1.449149 -0.394438
944.37890625 2.651578 2.165 -0.486578
944.84375 2.016952 1.582143 -0.434809
945.69921875 1.876369 1.612684 -0.263685
946.3359375 1.9755989999999999 1.460845 -0.514754
946.8046875 1.5205060000000001 1.1994 -0.321106
947.8046875 1.884617 1.539655 -0.344962
948.359375 1.433634 1.290934 -0.1427
949.125 1.747452 1.4 -0.347452
949.7421875 1.781925 1.331666 -0.450259
950.3515625 2.616205 2.000352 -0.615853
950.8203125 1.680683 1.3838 -0.296883
951.578125 1.886302 1.612771 -0.273531
952.19921875 1.864583 1.49459 -0.369993
952.7109375 1.9077380000000002 1.404805 -0.502933
953.40625 1.8535869999999999 1.568587 -0.285
953.99609375 1.838218 1.524329 -0.313889
954.57421875 2.3778319999999997 2.093975 -0.283857
955.04296875 1.800468 1.370468 -0.43
955.72265625 1.743204 1.503204 -0.24
956.28515625 1.701937 1.449892 -0.252045
956.8828125 1.743802 1.4891 -0.254702
957.58984375 1.723087 1.397908 -0.325179
958.26171875 1.736806 1.322055 -0.414751
958.8515625 1.806562 1.202707 -0.603855
959.390625 1.549931 1.119915 -0.430016
960.32421875 1.780624 1.523689 -0.256935
960.875 1.874049 1.33 -0.544049
961.3671875 1.6033849999999998 1.259545 -0.34384
962.296875 1.812434 1.613212 -0.199222
962.828125 1.946619 1.444905 -0.501714
963.3203125 1.8920050000000002 1.377375 -0.51463
964.13671875 1.759244 1.534244 -0.225
964.78515625 2.4717209999999996 2.09996 -0.371761
965.25 1.996701 1.55 -0.446701
966.109375 1.699427 1.483005 -0.216422
966.671875 1.7217580000000001 1.34 -0.381758
967.1640625 1.351842 1.164975 -0.186867
968.0859375 1.7302469999999999 1.480594 -0.249653
968.6171875 1.850268 1.358133 -0.492135
969.1640625 1.490297 1.234883 -0.255414
970.1015625 1.755147 1.51671 -0.238437
970.66796875 1.8100990000000001 1.323735 -0.486364
971.203125 1.6648180000000001 1.224242 -0.440576
972.140625 1.850877 1.478099 -0.372778
972.69140625 1.768895 1.189749 -0.579146
973.421875 1.813654 1.424196 -0.389458
974.05859375 1.774805 1.367114 -0.407691
974.59765625 1.8495119999999998 1.233614 -0.615898
975.37109375 1.7447050000000002 1.443205 -0.3015
976.07421875 1.715036 1.350036 -0.365
976.6875 1.8358189999999999 1.315 -0.520819
977.48828125 1.694682 1.42475 -0.269932
978.1484375 1.655574 1.390574 -0.265
978.7421875 1.793762 1.252895 -0.540867
979.5234375 1.83861 1.453892 -0.384718
980.11328125 1.766848 1.259734 -0.507114
980.5703125 1.4693749999999999 1.014389 -0.454986
981.5546875 1.759726 1.410062 -0.349664
982.125 1.7883749999999998 1.265 -0.523375
982.7265625 1.741868 1.358264 -0.383604
983.48828125 1.7533910000000001 1.499954 -0.253437
984.11328125 1.696436 1.336829 -0.359607
984.7109375 2.338502 1.681146 -0.657356
985.1875 1.9277060000000001 1.321797 -0.605909
986.02734375 1.7702049999999998 1.506139 -0.264066
986.57421875 1.784528 1.281161 -0.503367
987.1484375 1.583983 1.222726 -0.361257
988.17578125 1.841582 1.611609 -0.229973
988.73828125 1.603774 1.425 -0.178774
989.54296875 1.668636 1.558636 -0.11
990.18359375 1.7310750000000001 1.478263 -0.252812
990.82421875 2.52786 1.96286 -0.565
991.46484375 1.7640349999999998 1.47084 -0.293195
992.1015625 1.734026 1.434476 -0.29955
992.62109375 1.637119 1.278791 -0.358328
993.50390625 1.775534 1.430768 -0.344766
994.16015625 1.867144 1.331861 -0.535283
994.63671875 1.509531 0.98 -0.529531
995.60546875 1.754419 1.484888 -0.269531
996.15625 1.878225 1.311484 -0.566741
996.671875 1.849775 1.284775 -0.565
997.4140625 1.731122 1.459169 -0.271953
998.00390625 2.424025 2.057 -0.367025
998.45703125 1.8793929999999999 1.358487 -0.520906
999.30078125 1.781712 1.461731 -0.319981
999.89453125 1.855613 1.32 -0.535613
1000.453125 1.7465300000000001 1.253937 -0.492593
1001.3359375 1.808725 1.563732 -0.244993
1001.9140625 1.953717 1.444869 -0.508848
1002.58203125 1.841895 1.596924 -0.244971
1003.21484375 1.79945 1.590729 -0.208721
1003.7734375 1.807809 1.377369 -0.43044
1004.51953125 1.849092 1.569717 -0.279375
1005.17578125 1.747812 1.459091 -0.288721
1005.77734375 1.7096850000000001 1.147539 -0.562146
1006.578125 1.749543 1.37455 -0.374993
1007.25 1.8639450000000002 1.435 -0.428945
1007.80078125 1.918387 1.298387 -0.62
1008.55859375 1.917268 1.527413 -0.389855
1009.203125 1.874094 1.595115 -0.278979
1009.76171875 1.848084 1.407361 -0.440723
1010.3984375 1.85163 1.582362 -0.269268
1010.96484375 1.777115 1.508756 -0.268359
1011.5703125 2.463126 2.058904 -0.404222
1012.125 1.872668 1.355 -0.517668
1012.83984375 1.752748 1.538476 -0.214272
1013.50390625 1.760597 1.526597 -0.234
1014.03125 1.857907 1.392094 -0.465813
1014.890625 1.83921 1.505062 -0.334148
1015.52734375 2.3629000000000002 2.081417 -0.281483
1015.99609375 1.8211060000000001 1.415 -0.406106
1016.48046875 1.7471139999999998 1.264911 -0.482203
1016.9375 1.713495 1.348514 -0.364981
1017.56640625 1.831147 1.499892 -0.331255
1018.21484375 1.908836 1.528322 -0.380514
1018.69921875 1.882571 1.369948 -0.512623
1019.265625 1.871418 1.392425 -0.478993
1019.671875 1.636333 1.276369 -0.359964
1020.3203125 1.805795 1.464568 -0.341227
1020.9609375 2.635123 2.109627 -0.525496
1021.4453125 1.7897839999999998 1.374456 -0.415328
1022.3046875 1.800051 1.646007 -0.154044
1022.84375 1.941111 1.47957 -0.461541
1023.3828125 1.738691 1.35262 -0.386071
1024.32421875 1.7913670000000002 1.566947 -0.22442
1024.9140625 1.862064 1.375 -0.487064
1025.5859375 1.828159 1.48377 -0.344389
1026.19921875 1.854592 1.459592 -0.395
1026.8125 2.577347 2.057027 -0.52032
1027.28515625 1.808736 1.31435 -0.494386
1028.1796875 1.781344 1.532122 -0.249222
1028.71875 1.9373420000000001 1.380771 -0.556571
1029.25390625 1.996746 1.359433 -0.637313
1030.09765625 1.8160280000000002 1.546191 -0.269837
1030.74609375 1.9936930000000002 1.596904 -0.396789
1031.35546875 1.933729 1.329889 -0.60384
1032.03515625 1.8319040000000002 1.493216 -0.338688
1032.64453125 1.8291520000000001 1.509724 -0.319428
1033.20703125 1.82459 1.285 -0.53959
1033.9609375 1.782313 1.509617 -0.272696
1034.56640625 1.7617319999999999 1.427738 -0.333994
1035.15625 1.9325739999999998 1.344744 -0.58783
1035.9609375 1.799818 1.549818 -0.25
1036.64453125 1.833625 1.50976 -0.323865
1037.22265625 1.9163640000000002 1.288742 -0.627622
1038.015625 1.748984 1.401593 -0.347391
1038.71484375 1.7344490000000001 1.381982 -0.352467
1039.26953125 1.808868 1.199927 -0.608941
1040.01953125 1.823942 1.400302 -0.42364
1040.6171875 1.7987129999999998 1.43396 -0.364753
1041.18359375 1.7153040000000002 1.275797 -0.439507
1041.9296875 1.710846 1.462588 -0.248258
1042.6015625 1.695678 1.355762 -0.339916
1043.20703125 1.815973 1.229851 -0.586122
1043.921875 1.819819 1.479405 -0.340414
1044.578125 1.671335 1.384842 -0.286493
1045.1328125 1.652291 1.257986 -0.394305
1045.96484375 1.778402 1.342618 -0.435784
1046.57421875 2.072096 1.677096 -0.395
1047.07421875 1.760861 1.334306 -0.426555
1047.53125 1.608765 1.115 -0.493765
1048.01171875 1.633187 1.203187 -0.43
1048.65625 1.725285 1.270789 -0.454496
1049.296875 2.368198 1.90874 -0.459458
1049.7578125 1.61143 1.269258 -0.342172
1050.3984375 1.778036 1.299364 -0.478672
1050.83984375 1.486478 0.942699 -0.543779
1051.42578125 1.835218 1.416463 -0.418755
1052.02734375 2.622446 2.04394 -0.578506
1052.48828125 2.102325 1.481361 -0.620964
1053.3203125 1.900786 1.642223 -0.258563
1053.94140625 1.820618 1.374396 -0.446222
1054.46484375 1.624796 1.249215 -0.375581
1055.30078125 1.753306 1.618333 -0.134973
1055.8828125 2.405465 2.105465 -0.3
1056.40625 1.9007589999999999 1.378738 -0.522021
1057.01171875 1.807068 1.512425 -0.294643
1057.57421875 1.710404 1.460668 -0.249736
1058.15625 2.46613 2.038571 -0.427559
1058.671875 1.8273409999999999 1.27598 -0.551361
1059.41796875 1.790956 1.535956 -0.255
1060.08984375 2.497707 1.987707 -0.51
1060.5625 1.309122 1.038594 -0.270528
1061.59375 1.793189 1.473887 -0.319302
1062.1484375 1.9296389999999999 1.262727 -0.666912
1062.8515625 1.7823229999999999 1.507323 -0.275
1063.46875 1.777155 1.491242 -0.285913
1064.03125 1.961718 1.253594 -0.708124
1064.62890625 2.015909 1.284709 -0.7312
1065.3984375 1.830834 1.532348 -0.298486
1066.0703125 1.691761 1.421761 -0.27
1066.65625 1.849557 1.223906 -0.625651
1067.45703125 1.741973 1.482051 -0.259922
1068.16015625 1.688926 1.450454 -0.238472
1068.73046875 1.88 1.335 -0.545
1069.56640625 1.736836 1.441886 -0.29495
1070.17578125 1.778172 1.533172 -0.245
1070.66015625 1.620273 1.185 -0.435273
1071.1796875 1.7028159999999999 1.147502 -0.555314
1071.61328125 1.733797 1.34251 -0.391287
1072.19140625 1.8319539999999999 1.3977 -0.434254
1072.8984375 2.546727 2.122266 -0.424461
1073.33984375 1.617263 1.102329 -0.514934
1074.421875 1.85433 1.498167 -0.356163
1075.0 1.9050410000000002 1.35 -0.555041
1075.72265625 1.7702930000000001 1.510293 -0.26
1076.33984375 1.787078 1.458152 -0.328926
1076.9296875 2.213142 1.504526 -0.708616
1077.60546875 1.7663929999999999 1.441887 -0.324506
1078.31640625 1.804238 1.558325 -0.245913
1078.90234375 1.739546 1.328696 -0.41085
1079.78515625 1.801281 1.512637 -0.288644
1080.46875 2.093477 1.87361 -0.219867
1080.9375 1.73692 1.380455 -0.356465
1081.41796875 1.653044 1.313951 -0.339093
1081.8671875 1.590934 1.311079 -0.279855
1082.50390625 1.848567 1.540218 -0.308349
1083.1171875 1.962489 1.306587 -0.655902
1083.859375 1.752004 1.439077 -0.312927
1084.54296875 1.688489 1.387584 -0.300905
1085.140625 1.717128 1.181905 -0.535223
1085.98046875 1.764935 1.354976 -0.409959
1086.66015625 1.780038 1.462077 -0.317961
1087.234375 1.546934 1.265328 -0.281606
1088.07421875 1.809428 1.556862 -0.252566
1088.71484375 2.139404 1.85946 -0.279944
1089.20703125 1.868298 1.339679 -0.528619
1089.703125 1.616368 1.181098 -0.43527
1090.1875 1.704708 1.394764 -0.309944
1090.921875 1.7475960000000001 1.542596 -0.205
1091.53515625 1.79935 1.28935 -0.51
1092.27734375 1.765494 1.525625 -0.239869
1092.9296875 1.7381730000000002 1.473173 -0.265
1093.49609375 1.7218630000000001 1.302958 -0.418905
1094.2890625 1.7070539999999998 1.56991 -0.137144
1094.93359375 1.729559 1.477011 -0.252548
1095.51953125 1.8646949999999998 1.339986 -0.524709
1096.2734375 1.7710780000000002 1.526078 -0.245
1096.96484375 1.7477989999999999 1.547799 -0.2
1097.56640625 1.482963 1.30488 -0.178083
1098.41015625 1.74257 1.478608 -0.263962
1099.0546875 1.764535 1.536943 -0.227592
1099.609375 1.798804 1.313804 -0.485
1100.3828125 1.7784520000000001 1.494129 -0.284323
1101.00390625 1.764149 1.409149 -0.355
1101.6015625 1.830867 1.308072 -0.522795
1102.40625 1.783019 1.563019 -0.22
1103.0859375 1.7727490000000001 1.507235 -0.265514
1103.65234375 1.9059849999999998 1.368234 -0.537751
1104.44921875 1.8650579999999999 1.561246 -0.303812
1105.12109375 1.8103850000000001 1.56855 -0.241835
1105.671875 1.844324 1.316362 -0.527962
1106.421875 1.7947069999999998 1.460287 -0.33442
1107.05078125 1.806569 1.46665 -0.339919
1107.640625 1.7714699999999999 1.279229 -0.492241
1108.421875 1.823778 1.519628 -0.30415
1109.08203125 1.778638 1.411563 -0.367075
1109.6796875 1.901005 1.309464 -0.591541
1110.375 1.801928 1.49 -0.311928
1111.015625 1.764302 1.464302 -0.3
1111.57421875 1.8082189999999998 1.265383 -0.542836
1112.38671875 1.840796 1.503441 -0.337355
1113.01953125 1.841312 1.569808 -0.271504
1113.609375 1.7191049999999999 1.260438 -0.458667
1114.44140625 1.7718729999999998 1.492144 -0.279729
1115.125 1.8043179999999999 1.43 -0.374318
1115.6796875 1.904265 1.313859 -0.590406
1116.17578125 1.643211 1.194561 -0.44865
1117.15625 1.803949 1.584125 -0.219824
1117.6953125 1.9528470000000002 1.344416 -0.608431
1118.359375 1.908894 1.542305 -0.366589
1118.953125 1.715642 1.402235 -0.313407
1119.56640625 1.592555 1.305 -0.287555
1120.34375 1.79113 1.476293 -0.314837
1121.0234375 1.877958 1.451923 -0.426035
1121.58203125 1.83236 1.198223 -0.634137
1122.421875 1.9173930000000001 1.597555 -0.319838
1123.0859375 2.629348 2.139754 -0.489594
1123.5078125 1.551599 1.067375 -0.484224
1124.0234375 1.9631850000000002 1.31 -0.653185
1124.46484375 1.788514 1.307313 -0.481201
1125.203125 1.766804 1.505871 -0.260933
1125.7578125 1.752807 1.348033 -0.404774
1126.7109375 1.82871 1.408949 -0.419761
1127.34375 1.921878 1.314672 -0.607206
1128.09375 1.7911979999999998 1.488438 -0.30276
1128.74609375 1.757599 1.424113 -0.333486
1129.30859375 2.010636 1.306017 -0.704619
1130.0078125 1.889689 1.540582 -0.349107
1130.62890625 1.791989 1.482201 -0.309788
1131.203125 1.632255 1.264531 -0.367724
1132.0625 1.762387 1.40347 -0.358917
1132.74609375 1.8638379999999999 1.532119 -0.331719
1133.31640625 1.803372 1.209622 -0.59375
1134.1015625 1.739432 1.409432 -0.33
1134.77734375 1.812427 1.422427 -0.39
1135.33203125 1.9215810000000002 1.241581 -0.68
1136.04296875 1.781588 1.499482 -0.282106
1136.65234375 1.7986630000000001 1.439113 -0.35955
1137.23828125 1.910675 1.23951 -0.671165
1137.9765625 1.85169 1.51669 -0.335
1138.65625 1.7935119999999998 1.509062 -0.28445
1139.26953125 1.834921 1.229921 -0.605
1139.99609375 1.803191 1.402398 -0.400793
1140.61328125 1.7691379999999999 1.367927 -0.401211
1141.171875 1.786997 1.189365 -0.597632
1141.91015625 1.751142 1.425209 -0.325933
1142.5 1.7949899999999999 1.43 -0.36499
1143.11328125 2.1921730000000004 1.519308 -0.672865
1143.73828125 1.797066 1.525164 -0.271902
1144.3984375 1.761743 1.512988 -0.248755
1145.0 1.908668 1.31 -0.598668
1145.74609375 1.821995 1.497001 -0.324994
1146.40234375 1.748713 1.518979 -0.229734
1146.96484375 1.80598 1.292762 -0.513218
1147.69140625 1.812751 1.517751 -0.295
1148.30078125 1.821431 1.496678 -0.324753
1148.8515625 1.8021729999999998 1.264792 -0.537381
1149.61328125 1.696499 1.462329 -0.23417
1150.26953125 1.7848549999999999 1.479855 -0.305
1150.859375 1.9405919999999999 1.217172 -0.72342
1151.5546875 1.814627 1.345153 -0.469474
1152.19921875 1.750705 1.288474 -0.462231
1152.75390625 1.8252510000000002 1.088996 -0.736255
1153.52734375 1.739249 1.334872 -0.404377
1154.171875 1.747932 1.451174 -0.296758
1154.69921875 1.756253 1.264188 -0.492065
1155.46875 1.73625 1.448684 -0.287566
1156.13671875 1.726664 1.388233 -0.338431
1156.7421875 1.605429 1.215 -0.390429
1157.44140625 1.844256 1.489256 -0.355
1158.08203125 1.7313 1.375625 -0.355675
1158.640625 1.832988 1.156484 -0.676504
1159.37890625 1.7628110000000001 1.289373 -0.473438
1160.0 1.81 1.305 -0.505
1160.54296875 1.698432 1.01503 -0.683402
1161.34375 1.749748 1.414811 -0.334937
1162.0 1.774638 1.415 -0.359638
1162.58984375 1.9043299999999999 1.28856 -0.61577
1163.33203125 1.747801 1.48528 -0.262521
1163.97265625 1.739566 1.499344 -0.240222
1164.546875 1.7653050000000001 1.193977 -0.571328
1165.27734375 1.844485 1.449485 -0.395
1165.87890625 1.768545 1.358708 -0.409837
1166.41015625 1.853773 1.161742 -0.692031
1167.1640625 1.7898830000000001 1.469883 -0.32
1167.84375 1.822317 1.448984 -0.373333
1168.44140625 1.965864 1.282051 -0.683813
1169.1640625 1.937078 1.494151 -0.442927
1169.80859375 1.879949 1.517003 -0.362946
1170.3671875 1.8450159999999998 1.312895 -0.532121
1171.15625 1.936744 1.670068 -0.266676
1171.8046875 1.828494 1.65396 -0.174534
1172.35546875 1.61399 1.114954 -0.499036
1173.0078125 1.9040759999999999 1.244839 -0.659237
1173.6328125 1.897205 1.297317 -0.599888
1174.24609375 2.72918 2.174649 -0.554531
1174.84765625 2.03024 1.816516 -0.213724
1175.453125 1.8983180000000002 1.503808 -0.39451
1176.03125 2.4323620000000004 1.615614 -0.816748
1176.578125 1.842269 1.133429 -0.70884
1177.12109375 2.1742350000000004 1.238382 -0.935853
1177.640625 2.294027 1.454056 -0.839971
1178.15625 2.136445 1.448945 -0.6875
1178.66796875 1.8789250000000002 1.478925 -0.4
1179.1953125 1.701124 1.191124 -0.51
1179.72265625 1.738151 0.774026 -0.964125
1180.234375 1.789619 0.661517 -1.128102
1180.75 1.7141819999999999 1.13 -0.584182
1181.25390625 1.9896049999999998 1.684605 -0.305
1181.74609375 1.769099 1.937903 0.168804
1182.21875 1.645085 1.920145 0.27506
1182.7109375 1.639312 2.089764 0.450452
1183.1796875 1.5781239999999999 1.739539 0.161415
1183.64453125 1.529347 1.369951 -0.159396
1184.09765625 1.490122 1.146052 -0.34407
1184.5390625 1.622891 0.809257 -0.813634
1184.98828125 1.493243 0.648778 -0.844465
1185.46875 1.476807 0.643781 -0.833026
1185.96875 1.671454 0.846454 -0.825
1186.47265625 1.6505800000000002 0.788436 -0.862144
1186.94921875 1.732189 0.757658 -0.974531
1187.421875 1.700425 0.660425 -1.04
1187.8671875 1.7198380000000002 0.812509 -0.907329
1188.34375 1.7004380000000001 0.980074 -0.720364
1188.82421875 1.599062 1.004157 -0.594905
1189.28515625 1.568878 1.200002 -0.368876
1189.765625 1.698164 1.703511 0.005347
1190.26171875 2.100679 2.570183 0.469504
1190.765625 2.265121 2.551902 0.286781
1191.30078125 1.710864 1.92615 0.215286
1191.86328125 2.342373 2.108863 -0.23351
1192.42578125 2.1594189999999998 1.744419 -0.415
1193.0078125 1.5640399999999999 0.888933 -0.675107
1193.5703125 2.726374 1.423271 -1.303103
1194.09765625 1.838165 0.924305 -0.91386
1194.375 1.943743 1.11 -0.833743
1194.625 1.734418 0.9 -0.834418
1195.12109375 1.760992 1.289605 -0.471387
1195.6328125 1.6881140000000001 1.175454 -0.51266
1196.16015625 1.648743 1.19343 -0.455313
1196.65234375 1.56521 1.985625 0.420415
1197.203125 1.849865 1.454919 -0.394946
1197.765625 1.880041 1.423016 -0.457025
1198.33984375 2.451778 1.632208 -0.81957
1198.9140625 1.61854 1.22354 -0.395
1199.46484375 2.299248 1.834473 -0.464775
1199.9921875 2.51993 1.725 -0.79493
1200.53515625 1.7873290000000002 1.272764 -0.514565
1201.07421875 1.842046 1.282437 -0.559609
1201.5859375 1.976202 1.429627 -0.546575
1202.1015625 1.7884069999999999 1.253407 -0.535
1202.58984375 1.986124 1.449392 -0.536732
1203.12890625 3.619295 2.441701 -1.177594
1203.69921875 2.100185 1.432735 -0.66745
1204.24609375 1.878203 1.368203 -0.51
1204.796875 1.63776 1.022526 -0.615234
1205.33984375 1.7014340000000001 1.288259 -0.413175
1205.8515625 1.890556 1.911015 0.020459
1206.3671875 1.9583130000000002 2.203787 0.245474
1206.8828125 1.8863230000000002 2.383735 0.497412
1207.40234375 1.935481 2.376611 0.44113
1207.93359375 1.561682 1.798364 0.236682
1208.44921875 1.636954 1.577672 -0.059282
1208.953125 2.002941 1.652519 -0.350422
1209.5 1.609638 0.995 -0.614638
1210.06640625 1.716198 0.983029 -0.733169
1210.625 1.739403 0.985 -0.754403
1211.1875 2.633888 1.533519 -1.100369
1211.73046875 1.7437740000000002 0.765302 -0.978472
1212.29296875 1.661569 0.861777 -0.799792
1212.859375 1.803629 0.984361 -0.819268
1213.421875 1.757144 1.19384 -0.563304
1214.0078125 1.8078699999999999 0.955 -0.85287
1214.5234375 2.80901 1.96901 -0.84
1215.0859375 1.8339420000000002 1.553894 -0.280048
1215.6796875 1.861554 1.558171 -0.303383
1216.2734375 2.641167 2.186943 -0.454224
1216.96875 3.0022080000000004 3.477536 0.475328
1219.1484375 0.895054 0.530054 -0.365
1219.703125 1.226751 0.31207 -0.914681
1220.26953125 1.2639070000000001 0.169799 -1.094108
1220.78515625 1.442755 0.18317 -1.259585
1221.34765625 1.7881650000000002 0.384734 -1.403431
1221.859375 1.672828 0.25 -1.422828
1222.5625 1.579301 0.535343 -1.043958
1223.15234375 1.673724 0.738331 -0.935393
1223.640625 1.890296 0.820328 -1.069968
1224.24609375 2.0379120000000004 1.012083 -1.025829
1224.7734375 1.620953 0.741246 -0.879707
1225.3046875 2.365 1.455 -0.91
1225.83203125 1.746777 1.067085 -0.679692
1226.34765625 1.742162 1.087641 -0.654521
1226.875 2.00207 1.085 -0.91707
1227.4609375 2.436164 1.616683 -0.819481
1227.83984375 0.916849 -0.0948 -1.011649
1228.05859375 1.9244020000000002 1.353919 -0.570483
1228.4140625 0.6248279999999999 0.289859 -0.334969
1228.6796875 2.7789859999999997 1.389017 -1.389969
1229.28515625 1.66449 1.262764 -0.401726
1229.7890625 0.112757 0.073636 -0.039121
1230.484375 1.756249 1.731249 -0.025
1231.04296875 2.3378699999999997 2.240105 -0.097765
1231.61328125 1.738191 1.579004 -0.159187
1232.1640625 1.708763 1.44399 -0.264773
1232.70703125 2.453082 1.803082 -0.65
1233.2109375 0.38179900000000005 -0.270124 -0.651923
1233.88671875 2.169705 1.724631 -0.445074
1234.4765625 2.992337 2.373486 -0.618851
1235.06640625 1.843051 1.336715 -0.506336
1235.61328125 1.8680240000000001 1.423408 -0.444616
1236.17578125 1.978136 1.393136 -0.585
1236.6640625 2.009801 0.934801 -1.075
1237.2734375 1.7443490000000001 1.036151 -0.708198
1237.828125 1.730021 0.89031 -0.839711
1238.3515625 2.276613 1.461796 -0.814817
1238.87109375 1.829529 0.69805 -1.131479
1239.41015625 1.879279 0.759485 -1.119794
1239.96484375 1.9105979999999998 1.030239 -0.880359
1240.52734375 1.918914 1.327768 -0.591146
1241.06640625 1.8196629999999998 1.479404 -0.340259
1241.62109375 1.999824 1.818127 -0.181697
1242.18359375 1.7067039999999998 1.567284 -0.13942
1242.73828125 2.362366 2.228904 -0.133462
1243.26953125 1.859098 1.899853 0.040755
1243.796875 1.8545660000000002 1.909631 0.055065
1244.33984375 1.9046100000000001 1.860721 -0.043889
1244.91015625 2.1912689999999997 2.036316 -0.154953
1245.4375 1.987267 1.660658 -0.326609
1246.26171875 1.843439 1.513439 -0.33
1246.8046875 2.000666 1.125666 -0.875
1247.45703125 2.0166950000000003 1.17192 -0.844775
1248.046875 1.987073 1.332073 -0.655
1248.625 2.5360329999999998 1.805 -0.731033
1249.26953125 1.854737 1.594984 -0.259753
1249.89453125 1.789837 1.714864 -0.074973
1250.453125 2.2559329999999997 1.89 -0.365933
1251.07421875 1.755549 1.682023 -0.073526
1251.6953125 1.5891739999999999 1.620334 0.03116
1252.30078125 1.802759 1.561834 -0.240925
1253.01953125 1.962977 1.914803 -0.048174
1253.625 1.9805760000000001 1.905 -0.075576
1254.17578125 2.0201409999999997 1.96 -0.060141
1254.890625 1.7993639999999997 2.040996 0.241632
1255.5234375 1.830636 1.761126 -0.06951
1256.046875 1.191864 1.463568 0.271704
1256.74609375 1.901643 1.792304 -0.109339
1257.359375 1.8866479999999999 1.796995 -0.089653
1257.82421875 0.17513099999999998 -0.334869 -0.51
1258.61328125 1.841672 1.504672 -0.337
1259.23828125 1.818451 1.26352 -0.554931
1259.83984375 2.238339 0.529014 -1.709325
1260.43359375 2.807556 0.35788 -2.449676
1261.015625 1.96788 0.998105 -0.969775
1261.5546875 1.687039 1.213896 -0.473143
1262.19140625 1.924493 2.30974 0.385247
1262.73046875 1.859768 2.349768 0.49
1263.28515625 2.223835 2.830555 0.60672
1263.88671875 1.7662909999999998 2.226002 0.459711
1264.484375 1.6345779999999999 1.851675 0.217097
1265.09765625 2.269501 1.992583 -0.276918
1265.6640625 1.799845 1.564845 -0.235
1266.30859375 2.112612 1.257927 -0.854685
1266.9140625 2.126784 1.448759 -0.678025
1267.37890625 1.865679 0.951156 -0.914523
1267.89453125 1.8765619999999998 0.984594 -0.891968
1268.61328125 2.226636 1.530257 -0.696379
1269.16015625 1.939765 2.338508 0.398743
1269.71484375 1.695551 1.860551 0.165
1270.27734375 1.322137 1.757137 0.435
1270.8203125 1.0071130000000001 1.421898 0.414785
0.0 1.607634 -1.0 -2.607634
1273.921875 3.369744 -0.088924 -3.458668
1274.44140625 1.508686 -0.255035 -1.763721
1274.96484375 1.576723 0.166268 -1.410455
1275.49609375 2.317933 0.82807 -1.489863
1276.0703125 1.9092600000000002 0.424554 -1.484706
1276.6640625 2.008999 0.479958 -1.529041
1277.22265625 1.8126440000000001 0.173364 -1.63928
1277.97265625 1.790858 0.42753 -1.363328
1278.58203125 2.121544 0.59824 -1.523304
1279.13671875 1.49727 0.138441 -1.358829
1279.79296875 1.673927 0.495177 -1.17875
1280.33984375 1.676712 0.806712 -0.87
1280.87109375 2.7852770000000002 2.205277 -0.58
1281.46484375 1.8930349999999998 1.483504 -0.409531
1282.08984375 2.1719630000000003 2.040198 -0.131765
1282.703125 2.774932 2.43597 -0.338962
1283.3359375 1.893023 1.489666 -0.403357
1283.93359375 2.010784 1.456045 -0.554739
1284.484375 2.130205 1.274744 -0.855461
1285.109375 1.8901510000000001 1.445807 -0.444344
1285.671875 1.8927640000000001 1.454185 -0.438579
1286.23046875 2.6406799999999997 2.313189 -0.327491
1286.80078125 1.9216000000000002 1.622802 -0.298798
1287.41796875 1.8731840000000002 1.295373 -0.577811
1288.00390625 1.07088 1.186544 0.115664
1288.8046875 1.868163 1.818096 -0.050067
1289.484375 2.7146619999999997 2.155261 -0.559401
1290.03125 1.884286 1.630781 -0.253505
1290.78125 1.811086 1.610173 -0.200913
1291.3515625 1.983876 1.743538 -0.240338
1291.6953125 0.09354499999999999 0.237375 0.14383
1291.91015625 2.808223 2.208864 -0.599359
1292.45703125 2.213789 1.390278 -0.823511
1293.01953125 2.180015 0.903738 -1.276277
1293.6015625 2.464563 1.109649 -1.354914
1294.19140625 2.075252 0.759533 -1.315719
1294.7421875 1.788934 0.784011 -1.004923
1295.29296875 2.008403 1.301288 -0.707115
1295.80859375 2.295505 1.768012 -0.527493
1296.359375 2.177637 1.814392 -0.363245
1296.921875 2.101186 1.866908 -0.234278
1297.4765625 2.134694 2.024502 -0.110192
1298.01171875 2.3996310000000003 2.158081 -0.24155
1298.52734375 2.0598840000000003 1.760245 -0.299639
1299.11328125 1.815702 1.385816 -0.429886
1299.75 1.834978 1.225 -0.609978
1300.3671875 2.267671 1.692671 -0.575
1300.98046875 1.883775 1.364954 -0.518821
1301.59765625 2.200627 1.231578 -0.969049
1302.20703125 2.603642 1.656982 -0.94666
1302.8125 1.8085490000000002 1.253549 -0.555
1303.40234375 1.702858 1.348269 -0.354589
1303.98828125 2.536906 2.257496 -0.27941
1304.515625 1.848991 1.849003 1.2E-5
1305.0703125 1.818108 1.954639 0.136531
1305.625 2.1691949999999998 2.17 8.05E-4
1306.19140625 2.761133 2.558742 -0.202391
1306.77734375 1.9313119999999997 2.032672 0.10136
1307.33984375 1.767021 1.902183 0.135162
1307.89453125 1.855414 1.824849 -0.030565
1308.44140625 1.912459 2.042947 0.130488
1308.9921875 2.078019 2.393325 0.315306
1309.5546875 1.961138 2.383457 0.422319
1310.08984375 1.771498 2.130242 0.358744
1310.7890625 1.649862 2.069737 0.419875
1311.46875 1.628752 1.922151 0.293399
1312.015625 1.030288 1.508092 0.477804
1312.53515625 1.453414 1.414215 -0.039199
1313.47265625 1.627507 1.417986 -0.209521
1314.0625 1.705866 1.043333 -0.662533
1314.6171875 1.89602 1.07156 -0.82446
1315.17578125 2.041312 0.955493 -1.085819
1315.73828125 2.081386 0.996889 -1.084497
1316.28125 1.860546 0.967358 -0.893188
1317.0625 1.89372 1.08372 -0.81
1317.640625 1.350823 1.035469 -0.315354
1318.48046875 1.883598 1.224887 -0.658711
1319.15625 2.452484 1.446175 -1.006309
1319.59375 1.583022 0.755922 -0.8271
1320.39453125 1.8346390000000001 1.299566 -0.535073
1320.92578125 1.996715 1.317565 -0.67915
1321.55078125 2.021853 1.601853 -0.42
1322.1015625 1.966035 1.606393 -0.359642
1322.6328125 1.8854899999999999 1.438154 -0.447336
1323.36328125 1.7463790000000001 1.549481 -0.196898
1323.9609375 1.8538810000000001 1.664031 -0.18985
1324.57421875 1.919276 1.64176 -0.277516
1325.171875 1.9779660000000001 1.677278 -0.300688
1325.80078125 2.000512 1.593069 -0.407443
1326.3203125 1.996722 1.434445 -0.562277
1326.7578125 1.8592309999999999 1.305 -0.554231
1327.58203125 1.9004759999999998 1.572218 -0.328258
1328.125 2.13994 1.48 -0.65994
1328.6484375 1.750092 1.332811 -0.417281
1329.19140625 1.7143270000000002 1.364602 -0.349725
1329.73828125 1.806209 1.489472 -0.316737
1330.28515625 2.12526 1.902261 -0.222999
1330.8359375 1.9540119999999999 1.664154 -0.289858
1331.36328125 2.119633 1.865 -0.254633
1331.89453125 2.686311 2.329945 -0.356366
1332.484375 2.076218 1.592722 -0.483496
1333.13671875 2.018326 1.708767 -0.309559
1333.6796875 2.225813 1.757649 -0.468164
1334.453125 1.883583 1.408334 -0.475249
1334.98046875 2.014487 1.209875 -0.804612
1335.62890625 2.039205 1.51737 -0.521835
1336.2109375 2.063821 1.623955 -0.439866
1336.80078125 2.710827 1.987616 -0.723211
1337.4296875 2.078952 1.664665 -0.414287
1338.0703125 2.054486 1.626323 -0.428163
1338.6015625 2.3552150000000003 1.605215 -0.75
1339.3984375 1.832465 1.133612 -0.698853
1339.9375 2.035542 1.087262 -0.94828
1340.5625 1.8082989999999999 1.107308 -0.700991
1341.1484375 1.894224 1.244021 -0.650203
1341.73828125 2.570411 1.640693 -0.929718
1342.3671875 1.815038 1.279685 -0.535353
1343.00390625 1.874857 1.319857 -0.555
1343.546875 1.3228529999999998 1.277853 -0.045
1344.29296875 1.777486 1.471669 -0.305817
1344.890625 1.793784 1.615998 -0.177786
1345.375 2.13 1.795 -0.335
1345.91796875 1.976537 1.564568 -0.411969
1346.66015625 1.696928 1.588595 -0.108333
1347.17578125 1.730227 1.427235 -0.302992
1347.859375 1.759279 1.699279 -0.06
1348.50390625 1.738575 1.694541 -0.044034
1349.046875 1.053606 1.578958 0.525352
1349.7578125 1.773483 1.753256 -0.020227
1350.3125 1.711993 1.642417 -0.069576
1350.84765625 1.825485 1.518856 -0.306629
1351.48828125 1.953672 1.504203 -0.449469
1352.0703125 1.801863 1.460053 -0.34181
1352.5703125 1.974464 1.37707 -0.597394
1353.359375 2.017223 1.256106 -0.761117
1353.94921875 1.94943 1.037985 -0.911445
1354.609375 1.754838 1.259628 -0.49521
1355.203125 1.7610999999999999 1.2561 -0.505
1355.765625 2.291867 1.801867 -0.49
1356.30859375 1.943842 1.553842 -0.39
1356.83984375 1.862106 1.433159 -0.428947
1357.33984375 1.729649 1.310006 -0.419643
1357.84375 1.709559 1.245 -0.464559
1358.33203125 1.667761 1.294294 -0.373467
1358.80859375 1.747036 1.402786 -0.34425
1359.32421875 1.860941 1.519937 -0.341004
1359.84765625 1.925152 1.53 -0.395152
1360.3984375 1.956186 1.537326 -0.41886
1360.9453125 1.842922 1.454735 -0.388187
1361.51953125 1.885967 1.534721 -0.351246
1362.0703125 2.4934279999999998 1.937535 -0.555893
1362.6640625 1.933012 1.474214 -0.458798
1363.2109375 1.7090269999999999 1.204044 -0.504983
1363.75 2.279268 1.62 -0.659268
1364.28125 2.733507 2.041031 -0.692476
1364.77734375 1.925647 1.492857 -0.43279
1365.32421875 2.015874 1.663794 -0.35208
1365.90234375 2.6646360000000002 2.295135 -0.369501
1366.48828125 1.822073 1.398979 -0.423094
1367.07421875 1.865974 1.506302 -0.359672
1367.66015625 1.9468159999999999 1.616871 -0.329945
1368.1484375 2.059332 1.495 -0.564332
1368.875 2.0594740000000002 1.715 -0.344474
1369.45703125 1.729364 1.458921 -0.270443
1369.98828125 1.791842 1.455664 -0.336178
1370.65234375 2.1013070000000003 1.754779 -0.346528
1371.24609375 2.142992 1.616343 -0.526649
1371.796875 2.0644080000000002 1.584408 -0.48
1372.6015625 1.790505 1.450505 -0.34
1373.2109375 1.817473 1.439819 -0.377654
1373.921875 1.755488 1.43126 -0.324228
1374.5234375 1.8464159999999998 1.612553 -0.233863
1375.08203125 2.071729 1.557815 -0.513914
1375.69921875 1.779108 1.322389 -0.456719
1376.2734375 1.653693 1.163693 -0.49
1376.80078125 2.568292 2.088292 -0.48
1377.39453125 2.033976 1.589909 -0.444067
1378.0625 1.895103 1.490778 -0.404325
1378.63671875 1.786845 1.221827 -0.565018
1379.52734375 1.650887 1.187223 -0.463664
1380.08984375 1.865868 1.240906 -0.624962
1380.84765625 1.846399 1.456462 -0.389937
1381.46875 1.847884 1.504926 -0.342958
1382.01953125 2.249981 1.679981 -0.57
1382.53125 1.856546 1.458781 -0.397765
1383.35546875 1.924158 2.009783 0.085625
1388.6484375 0.8238890000000001 -0.286111 -1.11
1389.2265625 1.291169 -0.188955 -1.480124
1390.0 1.400353 -0.04 -1.440353
1390.640625 1.626023 0.144257 -1.481766
1391.2109375 1.776619 0.249928 -1.526691
1391.859375 1.76647 0.622026 -1.144444
1392.4765625 1.571411 0.581411 -0.99
1393.0390625 1.68995 0.52495 -1.165
1393.67578125 1.870902 1.00196 -0.868942
1394.234375 1.734064 0.880417 -0.853647
1394.76171875 1.800237 0.739723 -1.060514
1395.4609375 1.636044 0.989472 -0.646572
1396.1015625 1.741914 1.043982 -0.697932
1396.70703125 2.453861 1.83471 -0.619151
1397.34375 1.897605 1.390352 -0.507253
1397.95703125 1.8810950000000002 1.511095 -0.37
1398.515625 1.181775 1.288839 0.107064
1399.34375 1.6267630000000002 1.296763 -0.33
1399.96875 2.240947 1.751172 -0.489775
1400.515625 1.98469 1.43969 -0.545
1401.1796875 1.733558 1.448587 -0.284971
1401.8125 1.662433 1.324058 -0.338375
1402.37890625 1.6532229999999999 1.079152 -0.574071
1403.1015625 1.8694579999999998 1.390378 -0.47908
1403.7265625 1.738546 1.310313 -0.428233
1404.29296875 1.520657 1.139463 -0.381194
1405.08984375 1.5610410000000001 1.092057 -0.468984
1405.71484375 1.820869 1.465869 -0.355
1406.22265625 1.7407149999999998 1.18 -0.560715
1406.71484375 1.462367 1.028206 -0.434161
1407.55078125 1.54652 1.114885 -0.431635
1408.1328125 1.548423 0.982261 -0.566162
1408.78125 1.686094 1.276094 -0.41
1409.359375 1.6827960000000002 1.322796 -0.36
1409.9375 1.7885119999999999 1.435946 -0.352566
1410.41015625 1.883969 1.37928 -0.504689
1411.078125 1.858978 1.62306 -0.235918
1411.6328125 1.751741 1.426741 -0.325
1412.1796875 2.537898 2.20115 -0.336748
1412.734375 1.592124 1.338548 -0.253576
1413.296875 1.7286260000000002 1.130872 -0.597754
1413.87109375 1.766315 0.856222 -0.910093
1414.41015625 1.874077 0.73 -1.144077
1415.0546875 1.6308699999999998 0.810711 -0.820159
1415.6328125 1.690308 0.962989 -0.727319
1416.18359375 2.586905 1.862176 -0.724729
1416.734375 1.829014 1.336989 -0.492025
1417.296875 1.7518799999999999 1.36015 -0.39173
1417.8515625 1.648285 1.368285 -0.28
1418.34765625 1.859367 1.484704 -0.374663
1419.0234375 1.688391 1.724781 0.03639
1419.640625 1.692342 1.882965 0.190623
1420.21484375 1.869395 1.96 0.090605
1420.99609375 1.642184 1.961483 0.319299
1421.64453125 1.694153 1.869653 0.1755
1422.26953125 2.475593 2.280593 -0.195
1422.77734375 2.0105109999999997 1.859681 -0.15083
1423.4921875 1.644124 1.710484 0.06636
1424.0546875 2.426816 2.351816 -0.075
1424.6328125 1.9798570000000002 1.959912 -0.019945
1425.23046875 1.9149420000000001 1.969969 0.055027
1425.8203125 2.08622 1.748865 -0.337355
1426.53125 1.637599 1.467675 -0.169924
1427.1484375 1.5889520000000001 1.527233 -0.061719
1427.7109375 2.034894 1.659978 -0.374916
1428.31640625 1.770642 1.685683 -0.084959
1428.91015625 1.661006 1.511035 -0.149971
1429.51171875 2.35556 1.90556 -0.45
1430.0703125 1.773442 1.5 -0.273442
1430.609375 1.778389 1.425341 -0.353048
1431.19140625 2.5408 2.258331 -0.282469
1431.70703125 2.018293 1.609027 -0.409266
1432.5390625 2.017668 1.774751 -0.242917
1433.11328125 1.886386 1.530954 -0.355432
1433.8984375 1.7432340000000002 1.541225 -0.202009
1434.51953125 1.796698 1.491841 -0.304857
1435.08203125 1.895365 1.439851 -0.455514
1435.71484375 1.662628 1.299711 -0.362917
1436.30859375 1.74668 1.35881 -0.38787
1436.8984375 1.8939940000000002 1.253994 -0.64
1437.4921875 1.714842 1.317722 -0.39712
1438.07421875 1.8163719999999999 1.432157 -0.384215
1438.6640625 2.398983 2.043983 -0.355
1439.25 1.8893780000000002 1.6 -0.289378
1439.84375 1.808697 1.519674 -0.289023
1440.4453125 2.0934850000000003 1.510728 -0.582757
1440.9765625 2.011653 1.480903 -0.53075
1441.76953125 1.663777 1.319888 -0.343889
1442.30859375 2.027863 1.449406 -0.578457
1442.89453125 1.702952 1.318203 -0.384749
1443.484375 1.834884 1.421551 -0.413333
1444.1015625 2.7487969999999997 2.198861 -0.549936
1444.70703125 1.698323 1.393251 -0.305072
1445.33203125 1.6287500000000001 1.344497 -0.284253
1445.89453125 2.078158 1.549994 -0.528164
1446.515625 1.841979 1.691935 -0.150044
1447.12109375 1.801096 1.636096 -0.165
1447.66796875 2.044292 1.678033 -0.366259
1448.37109375 1.743031 1.527015 -0.216016
1448.953125 1.843293 1.546708 -0.296585
1449.51953125 2.005188 1.494701 -0.510487
1450.2109375 1.949296 1.729296 -0.22
1450.8671875 1.8380899999999998 1.58316 -0.25493
1451.4375 2.002862 1.542115 -0.460747
1452.19140625 1.818714 1.543957 -0.274757
1452.79296875 1.8133180000000002 1.538318 -0.275
1453.35546875 2.309858 1.65497 -0.654888
1453.82421875 1.9210669999999999 1.395765 -0.525302
1454.48828125 1.8187440000000001 1.228391 -0.590353
1455.03515625 2.628009 1.908009 -0.72
1455.6328125 1.773323 1.363352 -0.409971
1456.27734375 1.746171 1.496171 -0.25
1456.87890625 1.850462 1.443094 -0.407368
1457.5703125 1.6790790000000002 1.274253 -0.404826
1458.140625 1.785706 1.456329 -0.329377
1458.7265625 2.734935 2.314935 -0.42
1459.30859375 1.940087 1.52521 -0.414877
1459.8671875 1.8878030000000001 1.557803 -0.33
1460.39453125 2.449727 2.059952 -0.389775
1460.92578125 1.765527 1.306164 -0.459363
1461.5078125 1.718124 1.300052 -0.418072
1462.08203125 1.7510979999999998 1.501631 -0.249467
1462.62890625 2.0112170000000003 1.565239 -0.445978
1463.24609375 1.9548839999999998 1.639209 -0.315675
1463.8515625 1.8216960000000002 1.52682 -0.294876
1464.390625 2.074598 1.410824 -0.663774
1465.17578125 1.720301 1.341796 -0.378505
1465.78515625 2.510132 1.972661 -0.537471
1466.2265625 1.593755 1.09822 -0.495535
1467.0078125 1.691252 1.413303 -0.277949
1467.578125 1.9959920000000002 1.379447 -0.616545
1468.22265625 1.683685 1.363685 -0.32
1468.8046875 1.713428 1.29078 -0.422648
1469.3671875 1.976128 1.283336 -0.692792
1469.89453125 2.144965 1.51498 -0.629985
1470.51953125 1.908523 1.498451 -0.410072
1471.1171875 1.853551 1.598798 -0.254753
1471.62109375 1.927648 1.392914 -0.534734
1472.33203125 1.6526079999999999 1.423997 -0.228611
1472.89453125 2.530298 2.015298 -0.515
1473.41015625 1.706232 1.2626 -0.443632
1474.140625 1.680723 1.341797 -0.338926
1474.75390625 2.002463 1.573138 -0.429325
1475.21484375 1.9569549999999998 1.433984 -0.522971
1475.8828125 1.945932 1.589265 -0.356667
1476.4609375 1.984782 1.469211 -0.515571
1477.0 2.5416369999999997 2.07 -0.471637
1477.578125 2.069751 1.405621 -0.66413
1478.21875 2.056245 1.577441 -0.478804
1478.74609375 1.9502510000000002 1.29872 -0.651531
1479.453125 1.97 1.55 -0.42
1480.12109375 1.961271 1.517517 -0.443754
1480.69921875 1.857719 1.340436 -0.517283
1481.515625 1.8373149999999998 1.426783 -0.410532
1482.1484375 1.786086 1.462638 -0.323448
1482.68359375 1.859764 1.349764 -0.51
1483.23046875 2.03901 1.499961 -0.539049
1483.953125 1.6763249999999998 1.47135 -0.204975
1484.47265625 1.868358 1.223552 -0.644806
1485.0546875 1.717479 1.400897 -0.316582
1485.625 1.653068 1.275 -0.378068
1486.171875 1.846757 1.454526 -0.392231
1486.7109375 2.326254 1.823077 -0.503177
1487.234375 1.690381 1.261332 -0.429049
1487.77734375 1.6503999999999999 1.280843 -0.369557
1488.37109375 2.566498 2.157209 -0.409289
1489.0078125 1.679963 1.409963 -0.27
1489.671875 1.578315 1.324917 -0.253398
1490.19921875 1.856925 1.349057 -0.507868
1490.9921875 1.6300000000000001 1.3 -0.33
1491.5625 1.607524 1.1875 -0.420024
1492.3359375 1.589951 1.184594 -0.405357
1492.99609375 1.5753080000000002 1.195308 -0.38
1493.59375 2.5053799999999997 1.987928 -0.517452
1494.15625 1.75798 1.374678 -0.383302
1494.70703125 1.784812 1.44707 -0.337742
1495.26171875 2.754321 2.175633 -0.578688
1495.82421875 1.9599099999999998 1.41491 -0.545
1496.41015625 1.832843 1.374197 -0.458646
1496.94140625 1.8542049999999999 1.20495 -0.649255
1497.640625 1.7999070000000001 1.084273 -0.715634
1498.24609375 1.836412 1.278376 -0.558036
1498.84375 1.9320789999999999 1.081562 -0.850517
1499.4453125 1.8313039999999998 1.316774 -0.51453
1500.046875 1.935371 1.685371 -0.25
1500.63671875 2.6382709999999996 2.170819 -0.467452
1501.23046875 1.795512 1.519858 -0.275654
1501.79296875 1.678442 1.287178 -0.391264
1502.34765625 2.599003 2.109744 -0.489259
1502.8984375 1.8541500000000002 1.484277 -0.369873
1503.4765625 1.969583 1.660258 -0.309325
1504.07421875 2.445985 2.056073 -0.389912
1504.54296875 1.995 1.495 -0.5
1505.28515625 1.698433 1.293433 -0.405
1505.8671875 2.6023240000000003 2.048528 -0.553796
1506.3359375 2.010894 1.45959 -0.551304
1506.98828125 1.830346 1.419227 -0.411119
1507.5546875 1.659221 1.256374 -0.402847
1508.04296875 1.8419500000000002 1.196649 -0.645301
1508.67578125 1.624369 1.284819 -0.33955
1509.234375 1.7493889999999999 1.310025 -0.439364
1509.75390625 1.955916 1.47963 -0.476286
1510.48046875 1.83274 1.538343 -0.294397
1511.09375 1.8585950000000002 1.482757 -0.375838
1511.58984375 2.129083 1.619906 -0.509177
1512.36328125 1.737632 1.333772 -0.40386
1512.96875 2.407082 1.947551 -0.459531
1513.3984375 1.820751 1.35 -0.470751
1514.19921875 1.6766900000000002 1.345881 -0.330809
1514.7578125 2.397202 1.889275 -0.507927
1515.33203125 1.709624 1.527007 -0.182617
1515.91796875 1.958548 1.583548 -0.375
1516.49609375 2.341774 1.936774 -0.405
1516.98046875 2.0495970000000003 1.479988 -0.569609
1517.72265625 1.778729 1.319479 -0.45925
1518.296875 2.354139 1.749633 -0.604506
1518.765625 2.132675 1.390605 -0.74207
1519.4296875 1.781335 1.1391 -0.642235
1519.95703125 1.628608 1.08206 -0.546548
1520.453125 2.078028 1.27306 -0.804968
1521.00390625 2.6267240000000003 1.501872 -1.124852
1521.56640625 1.908997 1.478088 -0.430909
1522.1484375 2.545974 1.916867 -0.629107
1522.67578125 1.9246119999999998 1.192346 -0.732266
1523.2890625 1.7080609999999998 1.338212 -0.369849
1523.83203125 2.065322 1.515322 -0.55
1524.40234375 1.694901 1.245093 -0.449808
1524.984375 1.564563 1.194731 -0.369832
1525.546875 1.749711 1.559739 -0.189972
1526.09765625 1.810714 1.561402 -0.249312
1526.61328125 1.705988 1.40816 -0.297828
1527.16796875 1.701279 1.396662 -0.304617
1527.76953125 2.6490139999999998 2.099995 -0.549019
1528.36328125 1.9069150000000001 1.46134 -0.445575
1528.953125 1.760596 1.406573 -0.354023
1529.515625 2.051578 1.304775 -0.746803
1530.00390625 1.564274 1.171187 -0.393087
1530.58203125 2.471058 0.396058 -2.075
1531.09765625 2.522579 1.06263 -1.459949
1531.6328125 2.862511 2.396678 -0.465833
1532.19921875 1.9503110000000001 1.857312 -0.092999
1532.75 1.7950000000000002 1.705 -0.09
1533.34375 2.530855 2.283747 -0.247108
1533.796875 2.113479 1.671108 -0.442371
1534.58203125 1.643041 1.533258 -0.109783
1535.16796875 1.7735269999999999 1.432694 -0.340833
1535.671875 1.906958 1.329185 -0.577773
1536.26953125 2.260081 1.829871 -0.43021
1536.83203125 2.086678 1.331841 -0.754837
1537.390625 2.509878 1.886068 -0.62381
1538.00390625 1.769869 1.359869 -0.41
1538.33984375 0.930396 0.427373 -0.503023
1539.140625 2.524623 1.82502 -0.699603
1539.703125 1.7966160000000002 1.37491 -0.421706
1540.5390625 1.814036 1.45438 -0.359656
1540.9296875 0.536467 -0.304894 -0.841361
1541.79296875 2.168994 1.569714 -0.59928
1542.3828125 1.9484309999999998 1.476611 -0.47182
1542.953125 2.6801579999999996 2.159693 -0.520465
1543.5234375 2.073353 1.44502 -0.628333
1544.125 2.18833 1.495 -0.69333
1544.671875 0.8251739999999999 1.215933 0.390759
1545.453125 2.3469379999999997 1.607862 -0.739076
1546.0703125 2.083258 1.397437 -0.685821
1546.671875 2.8807 2.068288 -0.812412
1547.29296875 2.306055 1.425318 -0.880737
1547.9296875 1.782295 1.20899 -0.573305
1548.1640625 1.559423 1.004823 -0.5546
1548.5 1.4749430000000001 1.6 0.125057
1549.12890625 1.8699 1.4299 -0.44
1549.67578125 1.812061 1.337061 -0.475
1550.20703125 1.907309 1.477393 -0.429916
1550.66796875 1.83914 1.424368 -0.414772
1551.328125 1.9181279999999998 1.503898 -0.41423
1551.71484375 0.184021 -0.310979 -0.495
1551.95703125 2.089314 1.524336 -0.564978
1552.5625 2.8158440000000002 2.170844 -0.645
1553.140625 1.870905 1.443067 -0.427838
1553.6953125 1.9741149999999998 1.28985 -0.684265
1554.27734375 2.130898 1.481657 -0.649241
1554.87890625 2.5183869999999997 2.038528 -0.479859
1555.515625 2.111511 1.604274 -0.507237
1556.1171875 2.0397290000000003 1.588804 -0.450925
1556.64453125 2.091653 1.565 -0.526653
1557.29296875 2.072847 1.795 -0.277847
1557.95703125 2.035669 1.692103 -0.343566
1558.5625 1.9778570000000002 1.414643 -0.563214
1559.29296875 2.097857 1.713794 -0.384063
1559.87890625 2.07824 1.872367 -0.205873
1560.453125 1.973063 1.639663 -0.3334
1561.14453125 1.925226 1.778982 -0.146244
1561.78125 2.057124 1.723867 -0.333257
1562.37890625 2.32888 1.634197 -0.694683
1562.9921875 2.102316 1.603996 -0.49832
1563.63671875 2.016615 1.501974 -0.514641
1564.2265625 1.8524090000000002 1.129847 -0.722562
1565.03515625 2.103474 1.51924 -0.584234
1565.6796875 2.060393 1.540903 -0.51949
1566.25 1.839518 1.075 -0.764518
1567.01953125 2.043334 1.408103 -0.635231
1567.625 2.180056 1.495 -0.685056
1568.16796875 1.951767 1.132886 -0.818881
1568.90625 1.97771 1.417909 -0.559801
1569.58984375 2.051745 1.535729 -0.516016
1570.171875 1.99865 1.282285 -0.716365
1570.9375 2.037112 1.564449 -0.472663
1571.60546875 1.963844 1.482163 -0.481681
1572.16796875 1.889977 1.188772 -0.701205
1572.91796875 2.080483 1.596659 -0.483824
1573.5625 1.979304 1.537882 -0.441422
1574.1171875 1.860729 1.212799 -0.64793
1574.83203125 2.1129629999999997 1.688027 -0.424936
1575.45703125 2.082761 1.631428 -0.451333
1576.0390625 1.8122960000000001 1.209869 -0.602427
1576.859375 2.063322 1.613809 -0.449513
1577.49609375 2.153594 1.704428 -0.449166
1578.0625 1.913356 1.263182 -0.650174
1578.8125 1.925203 1.480137 -0.445066
1579.45703125 2.0617970000000003 1.579209 -0.482588
1579.9921875 2.008623 1.359777 -0.648846
1580.72265625 2.034368 1.632862 -0.401506
1581.41015625 2.030884 1.585884 -0.445
1581.9765625 1.965526 1.341437 -0.624089
1582.79296875 2.046668 1.633798 -0.41287
1583.48828125 1.9185530000000002 1.543832 -0.374721
1584.06640625 1.7928229999999998 1.25653 -0.536293
1584.87890625 2.15794 1.713461 -0.444479
1585.5078125 2.037143 1.593627 -0.443516
1586.0546875 1.8126790000000002 1.183508 -0.629171
1586.8046875 2.052543 1.556226 -0.496317
1587.4453125 2.062707 1.504916 -0.557791
1588.03515625 1.8196320000000001 1.181507 -0.638125
1588.8515625 1.95559 1.57059 -0.385
1589.51953125 2.0937729999999997 1.574712 -0.519061
1590.0703125 1.9875060000000002 1.298882 -0.688624
1590.81640625 2.006902 1.587218 -0.419684
1591.5 1.972818 1.525 -0.447818
1592.0390625 1.803062 1.269922 -0.53314
1592.87109375 2.142965 1.757237 -0.385728
1593.48046875 1.884463 1.389645 -0.494818
1594.26953125 1.9734049999999999 1.624653 -0.348752
1594.95703125 2.14653 1.704621 -0.441909
1595.53515625 1.956418 1.351418 -0.605
1596.296875 2.064492 1.693213 -0.371279
1596.95703125 2.004654 1.632312 -0.372342
1597.5 1.908677 1.345 -0.563677
1598.24609375 2.0882810000000003 1.764482 -0.323799
1598.875 2.0099329999999997 1.66 -0.349933
1599.44140625 1.7836600000000002 1.27469 -0.50897
1600.25 2.1445410000000003 1.705 -0.439541
1600.90234375 2.113278 1.66371 -0.449568
1601.484375 1.660355 1.218323 -0.442032
1602.30078125 2.0523569999999998 1.555048 -0.497309
1602.94140625 2.116739 1.571739 -0.545
1603.4921875 1.966613 1.25664 -0.709973
1604.0 1.6399709999999998 1.13 -0.509971
1604.921875 2.027948 1.587879 -0.440069
1605.484375 1.853038 1.208154 -0.644884
1606.2734375 2.088293 1.628299 -0.459994
1606.92578125 2.081778 1.657362 -0.424416
1607.49609375 1.837504 1.200997 -0.636507
1608.25 2.071151 1.535 -0.536151
1608.87890625 2.09564 1.629489 -0.466151
1609.42578125 1.893678 1.258053 -0.635625
1610.234375 1.935249 1.601675 -0.333574
1610.8828125 2.324282 2.007156 -0.317126
1611.4140625 1.933866 1.404676 -0.52919
1611.93359375 1.675856 1.220824 -0.455032
1612.359375 1.8752840000000002 1.448816 -0.426468
1613.05859375 2.00341 1.633222 -0.370188
1613.7421875 2.541371 2.191759 -0.349612
1614.19921875 1.8638690000000002 1.495 -0.368869
1614.72265625 1.826699 1.35002 -0.476679
1615.15625 1.809495 1.349005 -0.46049
1615.8359375 1.9934729999999998 1.614539 -0.378934
1616.39453125 2.016553 1.449971 -0.566582
1617.1640625 2.02076 1.682191 -0.338569
1617.88671875 1.9901989999999998 1.685199 -0.305
1618.46484375 1.379623 1.36428 -0.015343
1619.37890625 2.093768 1.744506 -0.349262
1619.984375 2.008408 1.503365 -0.505043
1620.48046875 1.561108 1.249954 -0.311154
1621.4453125 1.998195 1.654304 -0.343891
1621.9765625 1.780181 1.243157 -0.537024
1622.76171875 2.163009 1.627909 -0.5351
1623.41015625 2.132767 1.65383 -0.478937
1624.015625 1.608671 1.270328 -0.338343
1624.8125 1.9313349999999998 1.532417 -0.398918
1625.515625 2.077393 1.621264 -0.456129
1626.0625 1.886067 1.384348 -0.501719
1626.89453125 2.049042 1.699582 -0.34946
1627.4921875 1.890301 1.313133 -0.577168
1628.03515625 1.7136149999999999 1.16681 -0.546805
1629.05859375 2.104059 1.640377 -0.463682
1629.59375 1.8029009999999999 1.383297 -0.419604
1630.47265625 1.9322719999999998 1.680238 -0.252034
1631.1484375 2.6995940000000003 2.165 -0.534594
1631.56640625 1.343345 1.1 -0.243345
1632.55078125 1.999774 1.800789 -0.198985
1633.08984375 1.7559850000000001 1.282817 -0.473168
1633.828125 1.950205 1.623475 -0.32673
1634.4296875 2.053589 1.631876 -0.421713
1635.02734375 2.2333860000000003 1.573687 -0.659699
1635.69140625 2.080988 1.71755 -0.363438
1636.39453125 1.958603 1.61111 -0.347493
1636.9609375 1.683439 1.329926 -0.353513
1637.88671875 2.105617 1.664755 -0.440862
1638.46484375 1.970898 1.338018 -0.63288
1639.2578125 1.9764119999999998 1.604871 -0.371541
1639.9375 2.499606 2.114638 -0.384968
1640.41796875 2.028602 1.360407 -0.668195
1640.89453125 1.738511 1.155546 -0.582965
1641.33203125 1.904159 1.248822 -0.655337
1642.01953125 2.036044 1.621841 -0.414203
1642.62890625 1.759879 1.222294 -0.537585
1643.484375 2.081618 1.651936 -0.429682
1644.1484375 2.415635 2.072855 -0.34278
1644.60546875 1.8868399999999999 1.459901 -0.426939
1645.1171875 1.7976619999999999 1.253992 -0.54367
1645.5859375 1.829497 1.2848 -0.544697
1646.265625 2.03283 1.545469 -0.487361
1646.79296875 1.897711 1.280749 -0.616962
1647.64453125 2.0544729999999998 1.669918 -0.384555
1648.3515625 2.404521 1.834521 -0.57
1648.76171875 1.375877 0.929002 -0.446875
1649.79296875 2.040024 1.551113 -0.488911
1650.3515625 1.763811 1.283798 -0.480013
1651.11328125 2.0539680000000002 1.695 -0.358968
1651.71875 1.913749 1.504278 -0.409471
1652.26953125 1.934944 1.334967 -0.599977
1652.9140625 2.174808 1.733104 -0.441704
1653.53515625 2.094833 1.646454 -0.448379
1654.14453125 1.793707 1.289962 -0.503745
1654.94921875 2.090836 1.635322 -0.455514
1655.59375 2.205835 1.708057 -0.497778
1656.15234375 1.93634 1.368897 -0.567443
1656.9296875 2.018764 1.625867 -0.392897
1657.60546875 2.00265 1.60265 -0.4
1658.15625 1.957536 1.372536 -0.585
1658.89453125 2.135083 1.7147 -0.420383
1659.54296875 2.035507 1.598799 -0.436708
1660.12890625 1.806109 1.333192 -0.472917
1660.93359375 2.144294 1.759301 -0.384993
1661.5859375 2.163733 1.698844 -0.464889
1662.17578125 2.02731 1.262312 -0.764998
1662.890625 1.981026 1.283549 -0.697477
1663.5625 1.9881929999999999 1.298193 -0.69
1664.1015625 1.704596 1.091584 -0.613012
1664.8515625 2.059348 1.708272 -0.351076
1665.484375 1.960294 1.534271 -0.426023
1666.10546875 2.708058 1.944327 -0.763731
1666.6953125 1.976397 1.384491 -0.591906
1667.3125 1.99798 1.484849 -0.513131
1667.93359375 2.6274960000000003 2.109497 -0.517999
1668.5703125 2.035189 1.630873 -0.404316
1669.17578125 2.080394 1.647378 -0.433016
1669.7890625 2.609008 2.004046 -0.604962
1670.3984375 2.132528 1.647607 -0.484921
1670.9921875 2.118987 1.61264 -0.506347
1671.5703125 1.763502 1.174377 -0.589125
1672.45703125 1.944217 1.56009 -0.384127
1673.1484375 2.755928 2.201091 -0.554837
1673.56640625 1.4921680000000002 1.239254 -0.252914
1674.53125 2.008842 1.686452 -0.32239
1675.08203125 1.647683 1.287963 -0.35972
1675.9140625 2.109444 1.689912 -0.419532
1676.53515625 2.3964369999999997 1.78358 -0.612857
1676.9921875 1.80741 1.297133 -0.510277
1677.90625 2.049481 1.705325 -0.344156
1678.45703125 1.732075 1.222075 -0.51
1679.328125 2.0476389999999998 1.629557 -0.418082
1679.9921875 2.497261 1.884259 -0.613002
1680.421875 1.5549080000000002 1.099908 -0.455
1681.34375 2.046545 1.591794 -0.454751
1681.87109375 1.428739 1.010838 -0.417901
1682.625 2.022771 1.535 -0.487771
1683.25 2.1149329999999997 1.545 -0.569933
1683.8359375 1.75636 1.18483 -0.57153
1684.46484375 1.703712 1.142285 -0.561427
1685.38671875 2.110542 1.503938 -0.606604
1685.9140625 1.884873 1.174873 -0.71
1686.76171875 2.0348100000000002 1.494618 -0.540192
1687.37109375 1.8240880000000002 1.114114 -0.709974
1687.90234375 1.685016 1.067325 -0.617691
1688.9296875 2.107052 1.658263 -0.448789
1689.63671875 2.090939 1.633752 -0.457187
1690.35546875 2.109862 1.694862 -0.415
1691.09765625 2.4655750000000003 1.906727 -0.558848
1691.52734375 1.462288 1.008199 -0.454089
1692.06640625 1.857633 1.369749 -0.487884
1692.50390625 1.870242 1.517344 -0.352898
1693.26953125 2.059753 1.729972 -0.329781
1693.8203125 1.7173599999999998 1.385919 -0.331441
1694.75 2.101637 1.705 -0.396637
1695.3203125 1.9980030000000002 1.408576 -0.589427
1696.19921875 2.035256 1.710583 -0.324673
1696.8203125 1.838261 1.321267 -0.516994
1697.359375 1.652137 1.168175 -0.483962
1698.41796875 2.164663 1.750774 -0.413889
1698.9765625 1.8014139999999998 1.314927 -0.486487
1699.51953125 1.652829 1.204965 -0.447864
1700.4375 2.0835980000000003 1.678625 -0.404973
1700.96484375 1.830882 1.311828 -0.519054
1701.71484375 2.053728 1.670823 -0.382905
1702.37890625 1.979288 1.55303 -0.426258
1702.96484375 1.57165 1.216907 -0.354743
1703.76171875 2.250491 1.68874 -0.561751
1704.40234375 2.152529 1.732168 -0.420361
1704.890625 1.8275190000000001 1.253323 -0.574196
1705.40234375 1.728993 1.208093 -0.5209
1705.85546875 1.8798059999999999 1.364806 -0.515
1706.515625 2.1654809999999998 1.574922 -0.590559
1707.0390625 1.9898570000000002 1.359857 -0.63
1707.890625 2.058652 1.565179 -0.493473
1708.515625 1.76443 1.206929 -0.557501
1709.4609375 2.16982 1.664017 -0.505803
1710.06640625 1.995856 1.37 -0.625856
1710.578125 1.799511 1.263597 -0.535914
1711.62109375 2.016346 1.674686 -0.34166
1712.14453125 1.914652 1.209959 -0.704693
1713.0625 2.134138 1.316063 -0.818075
1713.68359375 1.956874 0.875808 -1.081066
1714.4375 2.1582179999999997 1.480775 -0.677443
1715.18359375 2.030115 1.891913 -0.138202
1715.75 1.8070730000000002 1.975 0.167927
1716.58203125 2.113376 2.374841 0.261465
1717.2265625 2.4237819999999997 2.59 0.166218
1717.6875 1.874331 1.753687 -0.120644
1718.17578125 1.664763 1.415 -0.249763
1718.59765625 1.835452 1.36454 -0.470912
1719.23046875 2.109826 1.659826 -0.45
1719.83203125 1.788186 1.212239 -0.575947
1720.76171875 1.923145 1.413145 -0.51
1721.40234375 1.911881 1.207636 -0.704245
1721.85546875 1.5506280000000001 0.959995 -0.590633
1722.87109375 2.0395060000000003 1.613838 -0.425668
1723.41796875 1.844774 1.209774 -0.635
1724.25390625 1.95812 1.453671 -0.504449
1724.875 2.8273260000000002 2.105 -0.722326
1725.2890625 1.492407 1.024949 -0.467458
1726.2890625 2.104201 1.609536 -0.494665
1726.84765625 1.4188910000000001 1.114022 -0.304869
1727.6796875 1.9789059999999998 1.457673 -0.521233
1728.33203125 2.071056 1.554229 -0.516827
1728.8671875 1.908029 1.165477 -0.742552
1729.46484375 1.9085809999999999 1.208262 -0.700319
1730.27734375 1.9979300000000002 1.534496 -0.463434
1730.80078125 1.7978100000000001 1.258348 -0.539462
1731.6171875 2.10516 1.619332 -0.485828
1732.2734375 2.278229 1.878229 -0.4
1732.7734375 2.01809 1.523574 -0.494516
1733.30859375 1.774391 1.263965 -0.510426
1734.32421875 1.981252 1.705374 -0.275878
1734.890625 1.7749679999999999 1.362425 -0.412543
1735.33203125 1.523199 1.135 -0.388199
1736.26171875 2.056853 1.705242 -0.351611
1736.76953125 1.819086 1.25998 -0.559106
1737.46875 1.956973 1.623143 -0.33383
1738.1484375 2.032422 1.65 -0.382422
1738.7578125 1.9347189999999999 1.415382 -0.519337
1739.49609375 2.16779 1.757165 -0.410625
1740.15625 2.052299 1.726645 -0.325654
1740.70703125 1.521382 1.428515 -0.092867
1741.546875 2.049305 1.664677 -0.384628
1742.1328125 1.978105 1.504043 -0.474062
1742.63671875 1.644355 1.354355 -0.29
1743.6015625 1.939366 1.836434 -0.102932
1744.16015625 1.8119159999999999 1.446629 -0.365287
1745.01953125 2.124566 1.609965 -0.514601
1745.65625 1.8826649999999998 1.2125 -0.670165
1746.14453125 1.498886 0.934954 -0.563932
1747.05859375 2.0578849999999997 1.498969 -0.558916
1747.59375 1.8701089999999998 1.091929 -0.77818
1748.32421875 2.147096 1.520902 -0.626194
1748.8984375 2.1064410000000002 1.483324 -0.623117
1749.54296875 2.526396 1.869746 -0.65665
1750.1640625 1.7999 1.3099 -0.49
1751.03515625 2.029532 1.628907 -0.400625
1751.62890625 2.003879 1.391223 -0.612656
1752.125 1.5965099999999999 1.265 -0.33151
1753.12890625 2.029838 1.738581 -0.291257
1753.66015625 1.862415 1.470202 -0.392213
1754.52734375 2.112596 1.769275 -0.343321
1755.09375 2.0 1.545 -0.455
