462200 
101 
350 
606 
850 
1100 
1353 
1608 
1865 
2127 
2388 
2644 
2909 
3159 
3412 
3674 
3926 
4181 
4439 
4696 
4951 
5206 
5459 
5708 
5956 
6205 
6457 
6706 
6952 
7209 
7459 
7706 
7965 
8218 
8471 
8729 
8984 
9245 
9511 
9774 
10040 
10307 
10573 
10841 
11105 
11368 
11636 
11893 
12153 
12415 
12671 
12920 
13168 
13415 
13670 
13922 
14173 
14435 
14692 
14953 
15217 
15472 
15736 
15998 
16253 
16511 
16769 
17024 
17274 
17520 
17765 
18020 
18271 
18522 
18782 
19037 
19287 
19548 
19806 
20066 
20329 
20586 
20849 
21116 
21382 
21643 
21908 
22171 
22441 
22703 
22964 
23229 
23494 
23750 
24007 
24268 
24532 
24792 
25052 
25317 
25579 
25837 
26099 
26361 
26625 
26893 
27157 
27422 
27686 
27943 
28198 
28450 
28703 
28957 
29205 
29453 
29713 
29966 
30213 
30467 
30714 
30966 
31221 
31474 
31729 
31989 
32246 
32494 
32748 
32998 
33251 
33497 
33743 
33988 
34232 
34469 
34711 
34953 
35198 
35448 
35695 
35944 
36194 
36434 
36678 
36920 
37159 
37392 
37631 
37872 
38116 
38372 
38626 
38882 
39143 
39398 
39650 
39909 
40157 
40405 
40656 
40903 
41148 
41393 
41640 
41888 
42141 
42385 
42633 
42882 
43125 
43368 
43610 
43855 
44102 
44346 
44587 
44828 
45064 
45304 
45536 
45771 
46005 
46241 
46484 
46726 
46970 
47217 
47464 
47709 
47951 
48195 
48442 
48680 
48920 
49170 
49418 
49660 
49907 
50156 
50410 
50671 
50917 
51170 
51434 
51693 
51950 
52217 
52481 
52748 
53010 
53266 
53531 
53793 
54046 
54306 
54563 
54819 
55075 
55324 
55573 
55825 
56073 
56319 
56568 
56814 
57061 
57310 
57557 
57806 
58050 
58295 
58540 
58786 
59034 
59284 
59534 
59778 
60030 
60276 
60528 
60777 
61022 
61261 
61505 
61747 
61988 
62234 
62474 
62718 
62965 
63210 
63464 
63717 
63970 
64227 
64488 
64744 
64993 
65244 
65493 
65738 
65986 
66232 
66480 
66736 
66985 
67234 
67485 
67740 
68000 
68257 
68508 
68770 
69033 
69293 
69557 
69816 
70077 
70341 
70597 
70857 
71117 
71376 
71633 
71893 
72153 
72418 
72680 
72945 
73217 
73484 
73747 
74012 
74276 
74540 
74794 
75053 
75316 
75570 
75824 
76080 
76334 
76589 
76845 
77099 
77349 
77604 
77859 
78110 
78368 
78625 
78888 
79148 
79404 
79669 
79930 
80189 
80450 
80712 
80977 
81239 
81496 
81759 
82018 
82270 
82528 
82777 
83024 
83281 
83526 
83771 
84022 
84266 
84517 
84773 
85035 
85301 
85562 
85824 
86092 
86357 
86619 
86879 
87139 
87397 
87655 
87910 
88168 
88434 
88692 
88940 
89195 
89444 
89698 
89954 
90210 
90475 
90738 
91001 
91267 
91523 
91787 
92059 
92326 
92586 
92855 
93119 
93378 
93633 
93893 
94155 
94409 
94661 
94924 
95179 
95434 
95695 
95950 
96207 
96466 
96724 
96981 
97237 
97492 
97743 
97995 
98242 
98502 
98755 
99007 
99264 
99513 
99759 
100006 
100253 
100500 
100748 
100983 
101215 
101456 
101690 
101915 
102145 
102365 
102584 
102806 
103024 
103246 
103472 
103701 
103935 
104163 
104396 
104623 
104851 
105081 
105304 
105525 
105753 
105975 
106195 
106419 
106643 
106873 
107104 
107339 
107578 
107824 
108065 
108302 
108542 
108779 
109025 
109272 
109518 
109763 
110010 
110257 
110500 
110744 
110983 
111221 
111465 
111704 
111944 
112193 
112438 
112684 
112933 
113185 
113441 
113702 
113954 
114200 
114452 
114701 
114941 
115190 
115438 
115691 
115941 
116186 
116426 
116676 
116919 
117155 
117400 
117638 
117880 
118128 
118374 
118624 
118881 
119137 
119384 
119637 
119889 
120138 
120388 
120636 
120889 
121144 
121398 
121645 
121896 
122150 
122406 
122648 
122892 
123141 
123380 
123616 
123853 
124085 
124326 
124576 
124821 
125069 
125326 
125576 
125818 
126068 
126312 
126550 
126791 
127033 
127279 
127536 
127791 
128050 
128310 
128571 
128825 
129088 
129346 
129605 
129861 
130113 
130362 
130607 
130853 
131103 
131348 
131590 
131839 
132086 
132330 
132579 
132829 
133080 
133338 
133594 
133845 
134109 
134366 
134607 
134857 
135109 
135363 
135617 
135866 
136120 
136375 
136627 
136876 
137131 
137387 
137650 
137901 
138152 
138413 
138666 
138913 
139166 
139417 
139676 
139933 
140192 
140454 
140719 
140978 
141238 
141496 
141756 
142017 
142273 
142531 
142793 
143054 
143309 
143569 
143820 
144072 
144325 
144581 
144843 
145104 
145362 
145626 
145888 
146147 
146406 
146662 
146922 
147185 
147447 
147700 
147957 
148214 
148477 
148735 
148995 
149265 
149531 
149797 
150070 
150337 
150614 
150886 
151154 
151429 
151698 
151964 
152230 
152499 
152773 
153040 
153303 
153569 
153826 
154082 
154341 
154597 
154852 
155119 
155382 
155646 
155919 
156188 
156451 
156720 
156990 
157263 
157525 
157793 
158066 
158335 
158601 
158868 
159140 
159414 
159675 
159934 
160202 
160460 
160716 
160979 
161236 
161498 
161762 
162022 
162290 
162558 
162818 
163085 
163346 
163607 
163875 
164136 
164400 
164667 
164928 
165191 
165452 
165706 
165969 
166221 
166480 
166744 
167005 
167261 
167517 
167772 
168033 
168291 
168548 
168807 
169065 
169321 
169580 
169839 
170104 
170370 
170635 
170904 
171171 
171439 
171702 
171966 
172233 
172492 
172758 
173026 
173287 
173555 
173817 
174077 
174344 
174608 
174866 
175118 
175381 
175638 
175885 
176143 
176400 
176654 
176913 
177163 
177422 
177680 
177932 
178187 
178447 
178706 
178971 
179222 
179480 
179741 
179998 
180249 
180503 
180758 
181015 
181271 
181525 
181781 
182035 
182290 
182548 
182805 
183058 
183316 
183572 
183834 
184104 
184370 
184622 
184884 
185144 
185408 
185671 
185923 
186184 
186445 
186701 
186965 
187227 
187494 
187767 
188035 
188291 
188559 
188825 
189081 
189339 
189600 
189869 
190134 
190396 
190670 
190934 
191196 
191462 
191729 
192000 
192266 
192529 
192790 
193048 
193298 
193552 
193807 
194069 
194331 
194588 
194853 
195112 
195375 
195636 
195891 
196146 
196408 
196662 
196914 
197168 
197409 
197649 
197901 
198149 
198402 
198658 
198910 
199165 
199419 
199673 
199921 
200168 
200419 
200671 
200922 
201162 
201407 
201658 
201911 
202170 
202429 
202689 
202950 
203201 
203458 
203718 
203976 
204226 
204479 
204731 
204988 
205237 
205486 
205743 
205994 
206245 
206500 
206748 
207006 
207271 
207531 
207793 
208055 
208320 
208574 
208835 
209093 
209353 
209611 
209866 
210129 
210389 
210640 
210899 
211154 
211415 
211675 
211932 
212192 
212454 
212716 
212970 
213234 
213492 
213756 
214014 
214270 
214535 
214792 
215043 
215299 
215549 
215798 
216048 
216296 
216542 
216795 
217045 
217294 
217544 
217794 
218049 
218301 
218556 
218812 
219064 
219314 
219576 
219837 
220095 
220359 
220619 
220877 
221145 
221408 
221667 
221927 
222184 
222445 
222706 
222970 
223238 
223501 
223759 
224020 
224273 
224534 
224796 
225055 
225317 
225578 
225835 
226095 
226349 
226611 
226882 
227148 
227413 
227683 
227948 
228208 
228471 
228731 
228992 
229245 
229492 
229756 
230010 
230259 
230518 
230773 
231024 
231278 
231531 
231785 
232043 
232299 
232559 
232812 
233070 
233331 
233585 
233833 
234089 
234339 
234588 
234842 
235089 
235341 
235592 
235847 
236102 
236361 
236617 
236870 
237119 
237376 
237638 
237895 
238149 
238410 
238671 
238921 
239178 
239433 
239683 
239941 
240193 
240444 
240693 
240944 
241191 
241441 
241688 
241932 
242175 
242422 
242676 
242926 
243180 
243432 
243678 
243928 
244184 
244440 
244697 
244964 
245221 
245466 
245718 
245961 
246205 
246451 
246688 
246922 
247159 
247408 
247649 
247893 
248136 
248388 
248646 
248906 
249170 
249441 
249706 
249976 
250244 
250517 
250796 
251070 
251346 
251622 
251896 
252161 
252426 
252693 
252967 
253226 
253487 
253759 
254028 
254294 
254561 
254824 
255092 
255359 
255619 
255893 
256164 
256425 
256692 
256959 
257236 
257501 
257768 
258036 
258305 
258570 
258835 
259014 
259337 
259481 
259859 
260129 
260390 
260644 
260910 
261173 
261439 
261707 
261968 
262235 
262490 
262750 
263010 
263264 
263523 
263783 
264037 
264293 
264558 
264814 
265067 
265323 
265575 
265831 
266084 
266335 
266596 
266853 
267108 
267364 
267612 
267867 
268125 
268378 
268634 
268894 
269150 
269405 
269663 
269918 
270174 
270428 
270679 
270935 
271189 
271442 
271699 
271955 
272210 
272473 
272734 
272992 
273255 
273510 
273754 
273998 
274243 
274495 
274750 
274998 
275256 
275522 
275790 
276055 
276313 
276577 
276845 
277103 
277354 
277617 
277870 
278122 
278376 
278629 
278884 
279138 
279392 
279647 
279903 
280159 
280415 
280672 
280932 
281195 
281455 
281717 
281982 
282247 
282507 
282763 
283024 
283284 
283536 
283792 
284057 
284314 
284573 
284836 
285095 
285355 
285612 
285869 
286133 
286396 
286652 
286904 
287158 
287413 
287676 
287937 
288198 
288461 
288722 
288977 
289232 
289488 
289748 
290008 
290262 
290529 
290793 
291052 
291320 
291582 
291843 
292109 
292373 
292637 
292900 
293166 
293433 
293696 
293961 
294230 
294494 
294763 
295031 
295293 
295558 
295822 
296090 
296364 
296629 
296900 
297172 
297443 
297711 
297970 
298233 
298500 
298760 
299018 
299283 
299547 
299804 
300066 
300331 
300596 
300863 
301128 
301399 
301664 
301928 
302193 
302458 
302728 
302994 
303260 
303529 
303796 
304062 
304327 
304594 
304862 
305130 
305396 
305667 
305933 
306199 
306466 
306728 
306998 
307266 
307529 
307794 
308064 
308331 
308594 
308854 
309119 
309392 
309660 
309931 
310206 
310478 
310748 
311014 
311281 
311556 
311825 
312095 
312369 
312643 
312913 
313183 
313446 
313716 
313979 
314240 
314507 
314769 
315025 
315286 
315546 
315804 
316061 
316315 
316578 
316837 
317090 
317346 
317595 
317850 
318111 
318366 
318623 
318885 
319142 
319393 
319650 
319907 
320163 
320413 
320662 
320919 
321169 
321421 
321683 
321943 
322203 
322469 
322734 
323005 
323270 
323532 
323796 
324062 
324330 
324600 
324867 
325134 
325401 
325663 
325924 
326192 
326456 
326725 
326991 
327259 
327530 
327800 
328065 
328326 
328591 
328859 
329122 
329379 
329643 
329898 
330154 
330410 
330667 
330927 
331193 
331451 
331713 
331976 
332238 
332503 
332761 
333021 
333286 
333545 
333803 
334065 
334324 
334578 
334833 
335092 
335354 
335610 
335862 
336121 
336370 
336611 
336866 
337117 
337378 
337640 
337899 
338168 
338441 
338710 
338981 
339253 
339527 
339805 
340076 
340354 
340635 
340910 
341179 
341450 
341722 
341995 
342255 
342527 
342799 
343072 
343334 
343600 
343869 
344137 
344401 
344668 
344943 
345214 
345479 
345750 
346022 
346298 
346558 
346825 
347094 
347362 
347626 
347887 
348138 
348403 
348662 
348916 
349182 
349446 
349708 
349980 
350249 
350514 
350779 
351042 
351311 
351572 
351837 
352108 
352372 
352636 
352905 
353170 
353434 
353695 
353949 
354207 
354462 
354724 
354989 
355254 
355521 
355787 
356047 
356318 
356589 
356860 
357134 
357400 
357671 
357946 
358218 
358490 
358764 
359039 
359312 
359578 
359849 
360118 
360389 
360662 
360930 
361201 
361470 
361734 
362002 
362275 
362548 
362824 
363095 
363364 
363631 
363895 
364162 
364434 
364704 
364968 
365239 
365512 
365782 
366048 
366311 
366576 
366830 
367089 
367349 
367610 
367873 
368135 
368385 
368646 
368908 
369171 
369439 
369706 
369975 
370241 
370504 
370750 
371001 
371264 
371524 
371785 
372048 
372318 
372586 
372856 
373127 
373399 
373668 
373937 
374206 
374473 
374734 
374996 
375264 
375523 
375774 
376030 
376293 
376555 
376815 
377075 
377336 
377595 
377830 
378071 
378304 
378535 
378769 
379001 
379228 
379464 
379698 
379936 
380176 
380413 
380645 
380885 
381122 
381359 
381603 
381839 
382079 
382318 
382557 
382804 
383055 
383301 
383543 
383794 
384038 
384280 
384529 
384776 
385026 
385276 
385526 
385775 
386032 
386287 
386540 
386794 
387048 
387309 
387565 
387814 
388067 
388314 
388564 
388814 
389062 
389313 
389563 
389809 
390055 
390312 
390557 
390797 
391039 
391277 
391511 
391752 
391984 
392216 
392452 
392683 
392910 
393139 
393368 
393592 
393821 
394046 
394265 
394487 
394714 
394931 
395146 
395368 
395583 
395798 
396015 
396226 
396434 
396639 
396852 
397050 
397249 
397447 
397646 
397839 
398035 
398233 
398426 
398621 
398816 
399015 
399211 
399406 
399600 
399797 
399993 
400191 
400391 
400589 
400788 
400984 
401188 
401353 
401554 
401774 
401970 
402163 
402352 
402546 
402736 
402924 
403110 
403304 
403492 
403683 
403871 
404066 
404258 
404453 
404652 
404852 
405048 
405244 
405444 
405645 
405847 
406045 
406252 
406457 
406659 
406867 
407073 
407274 
407476 
407684 
407880 
408081 
408278 
408474 
408671 
408867 
409063 
409258 
409454 
409645 
409847 
410046 
410243 
410442 
410641 
410839 
411038 
411242 
411440 
411639 
411840 
412040 
412240 
412438 
412635 
412835 
413032 
413227 
413429 
413622 
413817 
414009 
414205 
414396 
414582 
414771 
414960 
415145 
415331 
415519 
415704 
415891 
416073 
416266 
416449 
416638 
416821 
417014 
417204 
417395 
417588 
417787 
417982 
418173 
418374 
418572 
418769 
418964 
419169 
419372 
419577 
419784 
419989 
420193 
420397 
420606 
420805 
421007 
421203 
421407 
421612 
421814 
422024 
422227 
422436 
422645 
422859 
423071 
423275 
423414 
423900 
424112 
424324 
424538 
424751 
424973 
425187 
425400 
425611 
425824 
426039 
426259 
426480 
426692 
426908 
427135 
427353 
427572 
427788 
428006 
428221 
428444 
428665 
428882 
429099 
429328 
429551 
429768 
429987 
430209 
430434 
430661 
430880 
431103 
431325 
431549 
431771 
431990 
432213 
432427 
432648 
432866 
433086 
433307 
433530 
433755 
433971 
434182 
434402 
434614 
434826 
435043 
435258 
435473 
435691 
435907 
436120 
436329 
436542 
436751 
436963 
437177 
437389 
437597 
437808 
438028 
438243 
438453 
438673 
438886 
439104 
439321 
439542 
439758 
439971 
440194 
440414 
440629 
440853 
441069 
441290 
441513 
441737 
441958 
442185 
442411 
442633 
442851 
443072 
443289 
443505 
443721 
443934 
444150 
444369 
444590 
444810 
445028 
445253 
445476 
445702 
445924 
446145 
446359 
446583 
446805 
447025 
447244 
447465 
447687 
447913 
448135 
448356 
448573 
448796 
449015 
449229 
449444 
449658 
449875 
450089 
450310 
450524 
450737 
450959 
451174 
451377 
451577 
451787 
451992 
452199 
452406 
452610 
452815 
453023 
453230 
453441 
453642 
453853 
454060 
454269 
454482 
454691 
454903 
455115 
455332 
455545 
455756 
455972 
456187 
456403 
456624 
456842 
457059 
457277 
457500 
457717 
457925 
458142 
458355 
458561 
458774 
458985 
459188 
459396 
459608 
459812 
460026 
460234 
460441 
460655 
460864 
461073 
461285 
461493 
461699 
461912 
462119 
