4.00390625 1.983345 1.233345 -0.75
4.7421875 1.891231 1.141231 -0.75
5.42578125 1.8971049999999998 0.953243 -0.943862
6.0859375 1.9473120000000002 1.10928 -0.838032
6.66015625 1.9639099999999998 1.347319 -0.616591
7.234375 1.959479 1.247195 -0.712284
7.8515625 2.000113 0.940113 -1.06
8.47265625 1.992293 0.911863 -1.08043
9.11328125 2.053828 1.375408 -0.67842
9.859375 2.082758 1.410332 -0.672426
10.52734375 2.1418109999999997 1.272557 -0.869254
11.1953125 2.000211 1.134383 -0.865828
11.88671875 2.070805 1.476052 -0.594753
12.546875 2.107431 1.389737 -0.717694
13.20703125 2.082047 1.197067 -0.88498
13.82421875 2.003262 1.158548 -0.844714
14.4453125 2.10014 1.435634 -0.664506
15.109375 2.043691 1.313796 -0.729895
15.78125 2.019895 1.049895 -0.97
16.4375 2.049686 1.168099 -0.881587
17.11328125 2.0542860000000003 1.314286 -0.74
17.77734375 1.994752 1.254964 -0.739788
18.41796875 2.0205089999999997 1.092245 -0.928264
19.04296875 2.098571 1.213189 -0.885382
19.69921875 2.032738 1.371979 -0.660759
20.37109375 2.046623 1.331372 -0.715251
21.03125 2.035893 1.171613 -0.86428
21.703125 2.034906 1.404919 -0.629987
22.4140625 2.0629280000000003 1.384751 -0.678177
23.14453125 2.0902640000000003 1.224873 -0.865391
23.8125 2.043392 1.330696 -0.712696
24.46484375 2.0662599999999998 1.441069 -0.625191
25.13671875 1.999805 1.248661 -0.751144
25.77734375 2.089047 1.169735 -0.919312
26.41015625 2.016628 1.392322 -0.624306
27.0625 2.029186 1.364186 -0.665
27.7578125 1.992102 1.167592 -0.82451
28.42578125 1.930108 1.177261 -0.752847
29.109375 2.059819 1.51019 -0.549629
29.76953125 2.079533 1.199797 -0.879736
30.40234375 2.03368 1.305356 -0.728324
31.03125 2.120088 1.355786 -0.764302
31.67578125 1.985549 1.235549 -0.75
32.328125 2.0018469999999997 0.927921 -1.073926
32.96875 1.929335 0.917266 -1.012069
33.60546875 1.922927 1.095 -0.827927
34.265625 1.947891 1.098003 -0.849888
34.9296875 1.995813 0.999423 -0.99639
35.58203125 1.967388 1.207388 -0.76
36.234375 2.020906 1.287171 -0.733735
36.87890625 2.02599 1.212448 -0.813542
37.5 2.03088 1.125 -0.90588
38.14453125 1.99953 1.404623 -0.594907
38.8125 2.020968 1.330968 -0.69
39.50390625 1.964693 1.039693 -0.925
40.1875 1.9752800000000001 1.082232 -0.893048
40.91015625 2.028151 1.293151 -0.735
41.6171875 2.032573 1.243933 -0.78864
42.2890625 1.951937 1.001662 -0.950275
42.94140625 2.043337 1.228337 -0.815
43.609375 2.0347049999999998 1.260144 -0.774561
44.27734375 2.0238300000000002 1.25918 -0.76465
44.9375 1.99375 1.153171 -0.840579
45.6015625 1.9990389999999998 1.384507 -0.614532
46.3046875 1.993471 1.333471 -0.66
47.015625 1.968882 1.098667 -0.870215
47.68359375 2.0066249999999997 1.161625 -0.845
48.375 2.043437 1.22 -0.823437
49.0625 1.9299439999999999 1.190933 -0.739011
49.72265625 1.924687 1.030812 -0.893875
50.328125 1.939694 0.947933 -0.991761
50.9609375 2.133877 1.303906 -0.829971
51.64453125 2.063603 1.374935 -0.688668
52.328125 1.93082 1.334039 -0.596781
53.0 1.894506 1.26 -0.634506
53.62109375 1.911705 1.216705 -0.695
54.2109375 1.889866 1.220913 -0.668953
54.80859375 1.8918819999999998 1.084128 -0.807754
55.37890625 2.028974 1.16319 -0.865784
55.97265625 2.117317 1.298041 -0.819276
56.6328125 2.119855 1.370172 -0.749683
57.3046875 2.023857 1.454771 -0.569086
58.0 1.979382 1.305 -0.674382
58.671875 1.961878 1.074617 -0.887261
59.34375 2.060619 1.425924 -0.634695
60.0078125 1.989237 1.416785 -0.572452
60.640625 1.957151 1.150947 -0.806204
61.24609375 2.0379690000000004 1.034329 -1.00364
61.84375 2.198776 1.434078 -0.764698
62.5 2.176274 1.74 -0.436274
63.2265625 1.705112 1.774981 0.069869
63.95703125 1.7805149999999998 1.630515 -0.15
64.65625 1.8625509999999998 1.535 -0.327551
65.3359375 2.068872 1.904099 -0.164773
66.03125 1.990293 1.802531 -0.187762
66.703125 1.985616 1.707192 -0.278424
67.375 1.874888 1.55 -0.324888
68.0234375 1.819671 1.457903 -0.361768
68.6640625 1.939269 1.75441 -0.184859
69.35546875 1.9361449999999998 1.701145 -0.235
70.0859375 1.90411 1.523485 -0.380625
70.78515625 1.894907 1.486111 -0.408796
71.46484375 1.8986040000000002 1.679067 -0.219537
72.16015625 1.8985750000000001 1.689146 -0.209429
72.84375 1.89062 1.463611 -0.427009
73.484375 1.946838 1.667697 -0.279141
74.14453125 1.9231090000000002 1.688738 -0.234371
74.8359375 1.9287239999999999 1.559454 -0.36927
75.5234375 1.887318 1.221948 -0.66537
76.2109375 2.068536 1.629429 -0.439107
76.921875 2.072214 1.654918 -0.417296
77.609375 1.836354 1.510961 -0.325393
78.2734375 1.830217 1.380217 -0.45
78.93359375 1.9231090000000002 1.553109 -0.37
79.5859375 2.049302 1.754369 -0.294933
80.23828125 1.927275 1.592275 -0.335
80.890625 1.852719 1.41657 -0.436149
81.53125 2.012253 1.477634 -0.534619
82.19921875 1.960337 1.590337 -0.37
82.8671875 1.931635 1.477966 -0.453669
83.5546875 1.922001 1.378055 -0.543946
84.2109375 2.044638 1.694638 -0.35
84.84375 1.9524780000000002 1.799673 -0.152805
85.48046875 1.979691 1.764691 -0.215
86.1015625 1.925014 1.545014 -0.38
86.734375 2.050314 1.752798 -0.297516
87.40625 2.06763 1.801821 -0.265809
88.11328125 1.860089 1.745165 -0.114924
88.8125 1.8125339999999999 1.602534 -0.21
89.453125 1.785984 1.457234 -0.32875
90.078125 1.9255099999999998 1.683458 -0.242052
90.6875 1.9103340000000002 1.655995 -0.254339
91.3046875 1.798011 1.400327 -0.397684
91.91796875 1.872314 1.437314 -0.435
92.53515625 1.9698120000000001 1.507368 -0.462444
93.18359375 1.9387290000000001 1.455618 -0.483111
93.84765625 1.900555 1.385281 -0.515274
94.5 1.97125 1.585 -0.38625
95.171875 1.932082 1.592473 -0.339609
95.8359375 1.864907 1.479932 -0.384975
96.47265625 1.853001 1.394475 -0.458526
97.10546875 1.93974 1.58974 -0.35
97.75 1.889832 1.605 -0.284832
98.40625 1.897127 1.446637 -0.45049
99.05078125 1.9250820000000002 1.354316 -0.570766
99.72265625 1.9284270000000001 1.604058 -0.324369
100.42578125 1.920913 1.570913 -0.35
101.125 1.9300000000000002 1.245 -0.685
101.7421875 2.11322 1.293361 -0.819859
102.36328125 2.286002 1.726002 -0.56
102.97265625 2.238446 1.834508 -0.403938
103.6015625 2.1423710000000002 1.692371 -0.45
104.2578125 2.168875 1.346419 -0.822456
104.90234375 1.986362 1.618418 -0.367944
105.5859375 1.994559 1.868533 -0.126026
106.21875 1.899438 1.56 -0.339438
106.828125 1.9792740000000002 1.625339 -0.353935
107.453125 2.023974 1.471426 -0.552548
108.078125 1.962916 1.305052 -0.657864
108.69140625 2.016755 1.002669 -1.014086
109.3046875 2.072602 1.122602 -0.95
109.91015625 2.235714 1.38386 -0.851854
110.578125 2.2929 1.483659 -0.809241
111.31640625 2.108381 1.783742 -0.324639
112.0703125 2.01216 1.74435 -0.26781
112.8359375 1.978056 1.924761 -0.053295
113.56640625 1.83366 1.838945 0.005285
114.21484375 1.815512 1.386655 -0.428857
114.8359375 1.826883 1.223782 -0.603101
115.4296875 1.899659 1.607138 -0.292521
116.03515625 1.873494 1.538875 -0.334619
116.68359375 1.890415 1.465 -0.425415
117.41796875 1.9822980000000001 1.672314 -0.309984
118.1328125 1.9217469999999999 1.607651 -0.314096
118.87109375 1.8534190000000001 1.157373 -0.696046
119.515625 2.023219 1.423276 -0.599943
120.14453125 1.912209 1.683464 -0.228745
120.78125 1.917622 1.675547 -0.242075
121.4140625 1.907707 1.529276 -0.378431
122.05078125 1.989884 1.616806 -0.373078
122.76953125 2.077845 1.769308 -0.308537
123.40625 1.861719 1.631719 -0.23
124.109375 1.885397 1.363281 -0.522116
124.8046875 2.049837 1.79 -0.259837
125.46875 1.9691429999999999 1.922537 -0.046606
126.125 1.934857 1.7 -0.234857
126.74609375 1.9035600000000001 1.410795 -0.492765
127.34765625 1.845556 1.666124 -0.179432
127.953125 1.727243 1.508439 -0.218804
128.60546875 1.6647759999999998 1.274776 -0.39
129.26953125 1.7932219999999999 1.259904 -0.533318
129.93359375 1.859707 1.489798 -0.369909
130.59765625 1.8459839999999998 1.4323 -0.413684
131.2421875 1.6648269999999998 1.151389 -0.513438
131.81640625 1.270117 0.724665 -0.545452
132.43359375 1.6869329999999998 1.349843 -0.33709
133.09375 1.7349999999999999 1.45 -0.285
133.78125 1.841759 1.512092 -0.329667
134.44921875 1.786443 1.663615 -0.122828
135.12890625 1.755752 1.721027 -0.034725
135.8125 1.798642 1.536049 -0.262593
136.47265625 1.841437 1.474373 -0.367064
137.12890625 1.9062540000000001 1.58311 -0.323144
137.765625 1.917665 1.531436 -0.386229
138.36328125 1.895186 1.461546 -0.43364
138.953125 1.898444 1.553996 -0.344448
139.55078125 1.8157210000000001 1.701332 -0.114389
140.19140625 1.703562 1.533562 -0.17
140.88671875 1.8680999999999999 1.444886 -0.423214
141.5625 1.945988 1.530988 -0.415
142.23828125 1.868538 1.690342 -0.178196
142.91796875 1.821531 1.522707 -0.298824
143.59765625 1.867197 1.323875 -0.543322
144.23046875 1.852197 1.589844 -0.262353
144.875 1.7734429999999999 1.555 -0.218443
145.53515625 1.8430980000000001 1.360575 -0.482523
146.140625 1.877322 1.210122 -0.6672
146.7578125 1.9001130000000002 1.527414 -0.372699
147.390625 1.856599 1.448231 -0.408368
148.0546875 1.841137 1.255994 -0.585143
148.703125 1.9098319999999998 1.319832 -0.59
149.328125 1.858201 1.628201 -0.23
149.95703125 1.852989 1.532259 -0.32073
150.55859375 1.8787340000000001 1.319796 -0.558938
151.14453125 2.117775 1.314995 -0.80278
151.734375 2.1983699999999997 1.36337 -0.835
152.34765625 2.092705 1.598472 -0.494233
152.984375 1.942083 1.373218 -0.568865
153.62109375 1.9186 1.175822 -0.742778
154.234375 1.9538769999999999 1.402502 -0.551375
154.84375 1.985142 1.420572 -0.56457
155.453125 1.977047 1.167087 -0.80996
156.04296875 2.017939 1.119403 -0.898536
156.62109375 1.992236 1.410637 -0.581599
157.18359375 2.07002 1.454192 -0.615828
157.75390625 1.978742 1.403989 -0.574753
158.296875 2.050879 1.425894 -0.624985
158.859375 1.934284 1.366628 -0.567656
159.4375 1.930352 1.204593 -0.725759
160.03125 1.965124 1.312081 -0.653043
160.65234375 1.973454 1.361933 -0.611521
161.28125 1.812496 1.347496 -0.465
161.88671875 1.8093080000000001 0.9522 -0.857108
162.4765625 1.963603 1.069088 -0.894515
163.046875 1.963337 1.153337 -0.81
163.64453125 1.838771 1.054764 -0.784007
164.26171875 1.788913 1.023913 -0.765
164.90234375 1.793099 0.870833 -0.922266
165.53125 1.865667 0.906995 -0.958672
166.13671875 1.8818829999999998 1.094202 -0.787681
166.765625 1.834339 1.034423 -0.799916
167.40234375 1.826157 1.096802 -0.729355
168.00390625 1.809548 1.064608 -0.74494
168.60546875 1.828709 0.979954 -0.848755
169.1953125 1.969078 1.214078 -0.755
169.78515625 2.002129 1.258754 -0.743375
170.39453125 1.94509 1.284965 -0.660125
171.015625 1.83589 1.14953 -0.68636
171.66015625 1.865226 0.940562 -0.924664
172.30859375 1.887892 0.987761 -0.900131
172.9609375 1.892792 1.112798 -0.779994
173.58984375 1.7525339999999998 1.0205 -0.732034
174.19921875 1.790938 0.91648 -0.874458
174.80859375 1.834945 0.979032 -0.855913
175.41796875 1.770974 1.100643 -0.670331
176.02734375 1.844888 1.267744 -0.577144
176.6640625 1.8096160000000001 1.064616 -0.745
177.30078125 1.809244 1.095093 -0.714151
177.94140625 1.911512 1.353652 -0.55786
178.60546875 1.856014 1.29991 -0.556104
179.24609375 1.810281 1.000281 -0.81
179.8671875 1.794181 1.211652 -0.582529
180.48828125 1.79012 1.450905 -0.339215
181.0859375 1.773971 1.238981 -0.53499
181.69140625 1.808333 0.963333 -0.845
182.26953125 1.854398 1.019733 -0.834665
182.88671875 1.82857 1.09363 -0.73494
183.5546875 1.723509 0.989898 -0.733611
184.21875 1.780141 0.846667 -0.933474
184.875 1.791875 0.975 -0.816875
185.5234375 1.804829 1.159829 -0.645
186.1484375 1.769796 1.061225 -0.708571
186.75390625 1.806951 0.822145 -0.984806
187.3515625 1.821536 0.946572 -0.874964
188.00390625 1.876033 1.153352 -0.722681
188.69140625 1.938246 1.167726 -0.77052
189.375 1.873438 0.95 -0.923438
190.046875 1.8532959999999998 0.998347 -0.854949
190.73046875 1.9580640000000002 1.229923 -0.728141
191.41796875 1.876016 1.140573 -0.735443
192.078125 1.8983539999999999 0.960037 -0.938317
192.7421875 1.971428 1.274253 -0.697175
193.4296875 1.962605 1.292605 -0.67
194.08203125 1.886676 1.096692 -0.789984
194.73828125 1.928334 1.269087 -0.659247
195.4296875 1.951966 1.302117 -0.649849
196.12890625 1.922912 1.174118 -0.748794
196.81640625 1.923644 1.08 -0.843644
197.5 1.9506930000000002 1.34 -0.610693
198.17578125 1.939997 1.322766 -0.617231
198.8359375 1.922059 1.098918 -0.823141
199.4765625 1.9397280000000001 1.189734 -0.749994
200.12890625 1.9630230000000002 1.319412 -0.643611
200.78515625 1.852288 1.017288 -0.835
201.4453125 1.526434 0.626434 -0.9
202.1171875 1.121332 0.655 -0.466332
202.80859375 1.078724 0.690845 -0.387879
203.484375 1.2614800000000002 0.633398 -0.628082
204.14453125 1.424561 0.69 -0.734561
204.78515625 1.197171 0.749904 -0.447267
205.40234375 1.019681 0.609681 -0.41
206.01171875 1.09473 0.41473 -0.68
206.62109375 0.9831000000000001 0.248164 -0.734936
207.26171875 1.177954 0.663458 -0.514496
207.92578125 1.234345 0.660571 -0.573774
208.59765625 1.4337749999999998 0.624184 -0.809591
209.28515625 1.555492 0.865492 -0.69
209.96484375 1.806055 1.161084 -0.644971
210.60546875 1.942016 1.209906 -0.73211
211.2421875 1.9854090000000002 1.056453 -0.928956
211.86328125 1.985657 1.318792 -0.666865
212.51171875 1.988909 1.359565 -0.629344
213.18359375 1.908201 1.163201 -0.745
213.83984375 1.97927 1.140524 -0.838746
214.5 1.99 1.43 -0.56
215.17578125 1.934074 1.322259 -0.611815
215.82421875 1.8371119999999999 1.039583 -0.797529
216.44140625 1.902008 1.242008 -0.66
217.0703125 1.9238439999999999 1.405984 -0.51786
217.69921875 1.850223 1.20047 -0.649753
218.32421875 1.927771 1.083795 -0.843976
218.94921875 1.922638 1.302638 -0.62
219.59765625 1.922901 1.358794 -0.564107
220.28515625 1.886333 1.11803 -0.768303
220.95703125 1.9220599999999999 1.06706 -0.855
221.609375 2.024447 1.344886 -0.679561
222.2578125 2.022856 1.448257 -0.574599
222.87890625 1.945328 1.275328 -0.67
223.50390625 1.8444409999999998 1.024441 -0.82
224.140625 1.771311 1.168239 -0.603072
224.76953125 1.7336369999999999 1.204902 -0.528735
225.421875 1.809435 1.034495 -0.77494
226.07421875 1.8879130000000002 1.064472 -0.823441
226.7109375 1.74536 1.17493 -0.57043
227.35546875 1.758245 1.128967 -0.629278
227.98828125 1.762636 1.020945 -0.741691
228.60546875 1.856439 1.134729 -0.72171
229.234375 1.882683 1.367739 -0.514944
229.86328125 1.926615 1.376615 -0.55
230.51171875 1.9718390000000001 1.257174 -0.714665
231.13671875 1.906573 1.236693 -0.66988
231.8125 2.017678 1.409483 -0.608195
232.5234375 1.9062000000000001 1.34259 -0.56361
233.24609375 1.799393 1.282518 -0.516875
233.91796875 1.7096369999999999 1.051483 -0.658154
234.54296875 1.785139 1.13625 -0.648889
235.19140625 1.908046 1.367948 -0.540098
235.7890625 1.774864 1.234864 -0.54
236.39453125 1.7609730000000001 1.028566 -0.732407
237.01953125 1.8372140000000001 1.159995 -0.677219
237.671875 1.877236 1.33725 -0.539986
238.33203125 1.7882129999999998 1.233213 -0.555
238.9765625 1.7949959999999998 1.050023 -0.744973
239.6171875 1.89411 1.179694 -0.714416
240.2578125 1.929356 1.354408 -0.574948
240.88671875 1.80719 1.235486 -0.571704
241.51953125 1.8466809999999998 1.084984 -0.761697
242.15234375 1.858488 1.159275 -0.699213
242.8125 1.8365250000000002 1.371525 -0.465
243.515625 1.841526 1.397639 -0.443887
244.1953125 1.8144019999999998 1.11018 -0.704222
244.8828125 1.9102450000000002 1.255754 -0.654491
245.5703125 1.912464 1.267464 -0.645
246.234375 1.879321 1.179199 -0.700122
246.84765625 1.8682189999999999 0.984298 -0.883921
247.4609375 1.8391800000000003 1.16918 -0.67
248.078125 1.9162919999999999 1.332503 -0.583789
248.71484375 1.8531149999999998 1.230459 -0.622656
249.37109375 1.8931719999999999 1.078376 -0.814796
250.046875 1.836862 1.297226 -0.539636
250.71484375 1.85847 1.3743 -0.48417
251.41015625 1.8297150000000002 1.280809 -0.548906
252.06640625 1.803172 1.004003 -0.799169
252.703125 1.931546 1.199544 -0.732002
253.3515625 1.902353 1.34931 -0.553043
253.98828125 1.8827790000000002 1.254185 -0.628594
254.640625 1.839007 1.059516 -0.779491
255.29296875 1.8547189999999998 1.227658 -0.627061
255.96484375 1.903521 1.381568 -0.521953
256.6484375 1.892934 1.367934 -0.525
257.3359375 1.891568 1.147272 -0.744296
257.9765625 1.908172 1.256303 -0.651869
258.609375 1.9593720000000001 1.383828 -0.575544
259.25390625 1.910644 1.364498 -0.546146
259.88671875 1.884289 1.164754 -0.719535
260.5078125 1.83282 1.04288 -0.78994
261.15234375 1.870406 1.300406 -0.57
261.81640625 1.819727 1.193205 -0.626522
262.48828125 1.91037 1.08864 -0.82173
263.12109375 1.8196750000000002 1.038658 -0.781017
263.765625 1.886203 1.263476 -0.622727
264.40234375 1.842195 1.079113 -0.763082
265.01171875 1.8751769999999999 0.875371 -0.999806
265.6171875 1.996307 1.088275 -0.908032
266.25390625 2.035977 1.320977 -0.715
266.8984375 1.924763 1.32495 -0.599813
267.5546875 1.8843770000000002 1.118969 -0.765408
268.203125 1.889544 1.074544 -0.815
268.87109375 1.925976 1.298196 -0.62778
269.53515625 1.988627 1.325948 -0.662679
270.1796875 1.8871829999999998 1.248106 -0.639077
270.78125 1.913369 1.134181 -0.779188
271.37890625 1.906266 1.408194 -0.498072
271.96875 1.945137 1.497537 -0.4476
272.56640625 1.909408 1.346494 -0.562914
273.1953125 1.8995259999999998 1.170421 -0.729105
273.8359375 1.995492 1.25918 -0.736312
274.48046875 2.049962 1.444962 -0.605
275.15625 1.9451749999999999 1.400614 -0.544561
275.8046875 1.90476 1.294923 -0.609837
276.4375 1.906755 1.209234 -0.697521
277.05859375 1.910625 1.428182 -0.482443
277.67578125 1.88598 1.329652 -0.556328
278.3125 1.9494850000000001 1.181486 -0.767999
278.91796875 1.986984 1.092184 -0.8948
279.54296875 1.9568590000000001 1.169759 -0.7871
280.21484375 1.942494 1.227765 -0.714729
280.8828125 1.9761579999999999 1.198767 -0.777391
281.51953125 2.04182 0.999951 -1.041869
282.1328125 2.035103 1.186396 -0.848707
282.73828125 2.07936 1.515622 -0.563738
283.3359375 1.974511 1.511731 -0.46278
283.9375 1.907275 1.417299 -0.489976
284.54296875 1.807505 1.119351 -0.688154
285.1640625 1.906628 0.908901 -0.997727
285.7734375 1.944416 0.973483 -0.970933
286.39453125 2.004532 1.11989 -0.884642
287.02734375 1.873822 1.180391 -0.693431
287.65625 1.912749 1.134311 -0.778438
288.25390625 1.901135 1.00926 -0.891875
288.84375 1.8416010000000003 1.006687 -0.834914
289.41796875 1.973293 1.423345 -0.549948
290.04296875 1.927454 1.369183 -0.558271
290.66796875 1.865998 1.355998 -0.51
291.30859375 1.643902 1.103902 -0.54
291.953125 1.621473 0.903332 -0.718141
292.59765625 1.779042 0.794744 -0.984298
293.2265625 1.835741 0.892951 -0.94279
293.8203125 1.950286 1.157335 -0.792951
294.42578125 1.936782 1.298308 -0.638474
295.03125 1.840685 1.231175 -0.60951
295.6328125 1.797929 1.248126 -0.549803
296.25 1.709683 1.24 -0.469683
296.8984375 1.6732 1.043597 -0.629603
297.53125 1.8352570000000001 1.045257 -0.79
298.171875 1.920799 1.234316 -0.686483
298.8046875 2.037311 1.313234 -0.724077
299.453125 1.94593 1.24593 -0.7
300.05078125 1.913682 1.260941 -0.652741
300.65234375 2.173498 1.300168 -0.87333
301.26953125 1.964557 0.859927 -1.10463
301.87109375 1.946908 0.727035 -1.219873
302.4765625 1.754641 0.174081 -1.58056
303.09765625 1.7047379999999999 0.476584 -1.228154
303.74609375 1.6784370000000002 0.748723 -0.929714
304.390625 1.634444 0.705 -0.929444
305.03515625 1.728173 1.200948 -0.527225
305.6875 1.767206 1.227108 -0.540098
306.34765625 1.739752 1.325752 -0.414
306.9765625 1.898966 1.562473 -0.336493
307.61328125 1.936416 1.741927 -0.194489
308.24609375 1.9142670000000002 1.735513 -0.178754
308.90234375 1.9216229999999999 1.446623 -0.475
309.5546875 1.930884 1.47797 -0.452914
310.23046875 2.132157 1.749771 -0.382386
310.9296875 1.998504 1.63196 -0.366544
311.65625 1.994884 1.920161 -0.074723
312.35546875 1.941411 1.969901 0.02849
313.0234375 1.8190970000000002 1.784253 -0.034844
313.67578125 1.9534850000000001 1.705391 -0.248094
314.296875 1.876201 1.558362 -0.317839
314.9140625 1.923644 1.63865 -0.284994
315.5546875 1.818438 1.583774 -0.234664
316.21484375 1.834665 1.440745 -0.39392
316.8671875 1.952204 1.473257 -0.478947
317.53515625 1.993882 1.726886 -0.266996
318.1953125 1.937332 1.742871 -0.194461
318.8515625 1.913405 1.419286 -0.494119
319.484375 1.949923 1.244372 -0.705551
320.12109375 1.8088410000000001 1.30457 -0.504271
320.78125 1.865343 1.418571 -0.446772
321.4609375 1.93373 1.23491 -0.69882
322.13671875 1.996267 1.361351 -0.634916
322.81640625 2.077708 1.769561 -0.308147
323.49609375 2.054414 1.528195 -0.526219
324.1328125 1.901158 1.171679 -0.729479
324.75390625 1.9929739999999998 1.263121 -0.729853
325.390625 2.097148 1.552603 -0.544545
326.03515625 2.133021 1.725104 -0.407917
326.70703125 2.137581 1.722798 -0.414783
327.37890625 1.960979 1.874388 -0.086591
328.05859375 1.898139 1.878139 -0.02
328.73046875 1.895369 1.651686 -0.243683
329.38671875 1.802176 1.444378 -0.357798
330.0234375 1.9986449999999998 1.659841 -0.338804
330.640625 1.9806409999999999 1.772573 -0.208068
331.2421875 2.10766 1.834223 -0.273437
331.83203125 1.920504 1.703506 -0.216998
332.43359375 2.007906 1.889686 -0.11822
333.09765625 2.038604 2.077819 0.039215
333.78515625 1.9161580000000002 2.001158 0.085
334.47265625 1.966686 1.784967 -0.181719
335.13671875 2.013537 1.644391 -0.369146
335.7734375 2.049697 1.811694 -0.238003
336.4140625 1.854188 1.585594 -0.268594
337.03515625 1.845824 1.383745 -0.462079
337.6484375 1.92781 1.304108 -0.623702
338.25390625 1.8657970000000001 1.444968 -0.420829
338.875 1.819645 1.385 -0.434645
339.515625 1.8487689999999999 1.230108 -0.618661
340.15625 1.8868680000000002 1.180668 -0.7062
340.79296875 1.908189 1.323189 -0.585
341.45703125 1.980133 1.307669 -0.672464
342.10546875 1.892698 1.109645 -0.783053
342.7109375 2.008559 1.073559 -0.935
343.2890625 1.959 1.214958 -0.744042
343.9296875 2.0772 1.338404 -0.738796
344.58203125 2.0207640000000002 1.255764 -0.765
345.20703125 1.964582 1.213867 -0.750715
345.87109375 1.792717 1.356096 -0.436621
346.5390625 1.8630520000000002 1.104807 -0.758245
347.171875 1.8352089999999999 1.167349 -0.66786
347.8046875 2.026294 1.462401 -0.563893
348.37890625 1.833575 1.468575 -0.365
348.95703125 1.922556 0.988204 -0.934352
349.5390625 2.107549 1.235 -0.872549
350.11328125 2.1034640000000002 1.398551 -0.704913
350.72265625 2.076884 1.448134 -0.62875
351.375 1.924974 1.325 -0.599974
352.0390625 1.86992 1.284134 -0.585786
352.7109375 1.8674180000000002 1.299789 -0.567629
353.34765625 1.977744 1.02775 -0.949994
353.97265625 1.917649 1.178444 -0.739205
354.57421875 1.878577 1.30499 -0.573587
355.1640625 1.837313 1.158813 -0.6785
355.765625 1.8136 0.892093 -0.921507
356.359375 1.874056 0.96443 -0.909626
356.9921875 2.003926 1.025 -0.978926
357.66796875 1.976684 0.901787 -1.074897
358.328125 1.774158 0.857574 -0.916584
358.9921875 1.783845 1.054506 -0.729339
359.625 1.882348 0.805 -1.077348
360.234375 1.868905 0.993905 -0.875
360.83984375 1.725 1.03 -0.695
361.43359375 1.8697720000000002 1.039805 -0.829967
362.04296875 1.866504 0.816504 -1.05
362.671875 1.992524 0.962434 -1.03009
363.3125 1.902365 1.052365 -0.85
363.98046875 1.864337 0.95489 -0.909447
364.6484375 1.836263 0.878922 -0.957341
365.33984375 1.985513 1.130928 -0.854585
366.0234375 1.972919 1.197919 -0.775
366.6875 1.838009 1.174474 -0.663535
367.3125 1.967235 0.945616 -1.021619
367.92578125 1.9443199999999998 1.00935 -0.93497
368.55078125 1.997253 1.199574 -0.797679
369.18359375 1.862239 1.118733 -0.743506
369.83984375 1.9152589999999998 0.975714 -0.939545
370.5078125 1.942409 1.17751 -0.764899
371.15625 1.9413779999999998 1.312117 -0.629261
371.80859375 1.8586580000000001 1.262175 -0.596483
372.43359375 1.8674979999999999 1.297498 -0.57
373.0625 1.9406339999999997 1.370634 -0.57
373.703125 2.06856 1.580276 -0.488284
374.3671875 1.950201 1.563439 -0.386762
375.078125 1.665822 1.640237 -0.025585
375.76171875 1.6598689999999998 1.492333 -0.167536
376.41796875 1.641082 1.33625 -0.304832
377.05859375 1.721429 1.374681 -0.346748
377.6953125 1.794375 1.230012 -0.564363
378.3046875 1.728509 1.183842 -0.544667
378.91796875 1.7594599999999998 1.046682 -0.712778
379.515625 1.801701 0.947812 -0.853889
380.1015625 1.755 1.035 -0.72
380.71484375 1.7662309999999999 1.034557 -0.731674
381.390625 1.74939 0.927755 -0.821635
382.0859375 1.857992 0.789139 -1.068853
382.765625 1.879235 0.969592 -0.909643
383.43359375 1.879781 1.068259 -0.811522
384.09765625 2.0822130000000003 1.061676 -1.020537
384.734375 2.0296719999999997 0.745107 -1.284565
385.34375 2.002222 0.992222 -1.01
385.96484375 2.058443 1.230212 -0.828231
386.62109375 2.072147 1.187169 -0.884978
387.26171875 1.940986 0.926119 -1.014867
387.91015625 1.9556 1.266492 -0.689108
388.57421875 1.910155 1.257375 -0.65278
389.27734375 1.938949 1.203949 -0.735
389.92578125 1.969878 1.034885 -0.934993
390.5546875 2.013074 1.299583 -0.713491
391.16796875 1.95412 1.259098 -0.695022
391.80859375 1.9565009999999998 1.234805 -0.721696
392.453125 1.9216069999999998 1.192599 -0.729008
393.08984375 1.908781 1.30868 -0.600101
393.78515625 2.068671 1.385542 -0.683129
394.484375 1.96186 1.10231 -0.85955
395.15625 2.019282 1.232857 -0.786425
395.8359375 2.210934 1.392795 -0.818139
396.51171875 2.00526 1.311585 -0.693675
397.17578125 1.976605 1.191924 -0.784681
397.8203125 2.0065939999999998 1.128452 -0.878142
398.45703125 1.9392019999999999 1.252812 -0.68639
399.08984375 2.053565 1.291886 -0.761679
399.75390625 1.869213 1.153634 -0.715579
400.4296875 1.923152 1.091965 -0.831187
401.07421875 1.938499 0.913041 -1.025458
401.703125 1.815987 1.055987 -0.76
402.33984375 1.924416 1.154426 -0.76999
402.97265625 2.031062 1.045752 -0.98531
403.6015625 1.95103 0.957323 -0.993707
404.2265625 2.022437 1.214634 -0.807803
404.89453125 2.02976 1.334861 -0.694899
405.609375 1.992714 1.203737 -0.788977
406.29296875 1.9167839999999998 1.096811 -0.819973
406.9609375 2.006857 1.308976 -0.697881
407.6328125 1.962091 1.226173 -0.735918
408.27734375 1.689357 0.906046 -0.783311
408.875 1.9338069999999998 1.075 -0.858807
409.4921875 2.0002459999999997 1.201759 -0.798487
410.12890625 1.993796 1.124364 -0.869432
410.79296875 2.027352 1.177074 -0.850278
411.44921875 1.99194 1.236999 -0.754941
412.1171875 2.098348 1.369844 -0.728504
412.796875 1.9887519999999999 1.337707 -0.651045
413.453125 1.76748 1.115987 -0.651493
414.07421875 1.80991 1.327616 -0.482294
414.68359375 1.8450989999999998 1.344239 -0.50086
415.25390625 1.786904 1.119879 -0.667025
415.828125 1.8042179999999999 1.130067 -0.674151
416.41796875 1.8198750000000001 1.240266 -0.579609
417.015625 1.8210709999999999 1.241889 -0.579182
417.66015625 1.870651 1.046092 -0.824559
418.30078125 1.9530290000000001 0.911405 -1.041624
418.9140625 1.810209 1.155587 -0.654622
419.54296875 1.7823950000000002 1.067401 -0.714994
420.15234375 1.7867709999999999 0.812282 -0.974489
420.7421875 1.821265 0.854359 -0.966906
421.3359375 1.7836340000000002 1.088721 -0.694913
421.9296875 1.7675939999999999 1.127594 -0.64
422.52734375 1.800652 0.895814 -0.904838
423.109375 1.929087 0.999795 -0.929292
423.7109375 1.938895 1.134545 -0.80435
424.33984375 1.794805 1.084805 -0.71
424.96484375 1.915051 0.975135 -0.939916
425.5859375 1.8132700000000002 0.79828 -1.01499
426.17578125 2.006815 1.029623 -0.977192
426.76171875 1.884261 1.039785 -0.844476
427.33984375 1.752016 0.996359 -0.755657
427.9140625 1.809666 0.894666 -0.915
428.484375 1.805374 0.857054 -0.94832
429.09375 1.961309 1.156309 -0.805
429.76171875 1.937358 1.1783 -0.759058
430.4375 1.9121890000000001 1.238112 -0.674077
431.109375 1.917037 1.196538 -0.720499
431.75390625 1.828393 1.299639 -0.528754
432.3515625 1.729497 1.314583 -0.414914
432.93359375 1.9545119999999998 1.219512 -0.735
433.50390625 1.884966 1.112068 -0.772898
434.07421875 1.95191 1.278057 -0.673853
434.66015625 1.805821 1.14614 -0.659681
435.234375 1.9193609999999999 0.944456 -0.974905
435.84375 1.940986 1.010986 -0.93
436.453125 1.89214 1.102212 -0.789928
437.08984375 1.9029379999999998 1.058636 -0.844302
437.73046875 1.742008 0.989954 -0.752054
438.34375 1.8766570000000002 1.133158 -0.743499
438.95703125 1.7472509999999999 0.992251 -0.755
439.5390625 1.8834119999999999 0.849594 -1.033818
440.14453125 2.051179 1.1516 -0.899579
440.7734375 1.965863 1.159277 -0.806586
441.40234375 1.813479 0.989077 -0.824402
442.05078125 1.866701 0.808709 -1.057992
442.6953125 1.92362 1.090949 -0.832671
443.33984375 1.968241 1.2086 -0.759641
443.96875 1.9254090000000001 1.201978 -0.723431
444.55859375 1.946303 0.986722 -0.959581
445.14453125 1.8863 1.142252 -0.744048
445.7421875 1.895727 1.232741 -0.662986
446.34375 1.956861 1.243264 -0.713597
446.96875 2.044167 1.132238 -0.911929
447.58203125 1.9237700000000002 1.269435 -0.654335
448.21484375 1.9257279999999999 1.357729 -0.567999
448.86328125 1.906365 1.351182 -0.555183
449.4921875 1.8413359999999999 1.118032 -0.723304
450.11328125 1.9759129999999998 1.242565 -0.733348
450.71484375 1.9508009999999998 1.390823 -0.559978
451.3125 1.903715 1.303715 -0.6
451.921875 1.8493970000000002 1.084411 -0.764986
452.515625 1.884614 1.141683 -0.742931
453.1328125 1.877303 1.254814 -0.622489
453.7734375 1.939727 1.184727 -0.755
454.421875 1.964736 1.1892 -0.775536
455.05859375 1.9073889999999998 1.045991 -0.861398
455.65625 1.943027 1.2051 -0.737927
456.265625 1.888519 1.139948 -0.748571
456.87109375 1.736995 0.904823 -0.832172
457.46484375 1.9075950000000002 0.942806 -0.964789
458.07421875 1.861848 1.114075 -0.747773
458.69921875 1.924379 1.139379 -0.785
459.3515625 1.859374 1.039549 -0.819825
460.015625 1.959911 0.998125 -0.961786
460.64453125 1.8744100000000001 1.069749 -0.804661
461.28125 1.846485 1.136521 -0.709964
461.92578125 2.015659 0.990673 -1.024986
462.53515625 1.893216 0.842249 -1.050967
463.1328125 1.8861269999999999 1.094183 -0.791944
463.73046875 1.901748 1.149887 -0.751861
464.35546875 1.9661440000000001 1.169661 -0.796483
464.99609375 1.91719 1.100523 -0.816667
465.625 1.8949250000000002 1.245 -0.649925
466.30078125 1.918895 1.286295 -0.6326
466.9765625 1.814574 1.16491 -0.649664
467.6171875 1.9368759999999998 1.217193 -0.719683
468.25390625 1.9247169999999998 1.277432 -0.647285
468.875 1.8599739999999998 1.17 -0.689974
469.48828125 1.896776 1.092732 -0.804044
470.109375 2.034494 1.240019 -0.794475
470.74609375 2.022429 1.301771 -0.720658
471.4296875 1.976591 1.311591 -0.665
472.109375 1.939607 1.269607 -0.67
472.7734375 1.835706 1.323373 -0.512333
473.4375 1.7889650000000001 1.293965 -0.495
474.0859375 1.8446890000000002 1.164689 -0.68
474.6953125 1.949369 1.174369 -0.775
475.2890625 1.9498060000000002 1.37327 -0.576536
475.875 1.9429310000000002 1.28 -0.662931
476.46484375 1.867559 1.143278 -0.724281
477.0703125 1.957578 1.228156 -0.729422
477.7265625 1.9620730000000002 1.313366 -0.648707
478.45703125 2.216772 1.356772 -0.86
479.1875 1.77534 1.118837 -0.656503
479.83203125 1.702656 0.412677 -1.289979
480.43359375 1.660956 0.642794 -1.018162
481.0234375 1.8660800000000002 1.069568 -0.796512
481.6015625 1.923853 0.945837 -0.978016
482.1953125 1.825688 0.996127 -0.829561
482.82421875 2.027681 1.442974 -0.584707
483.48046875 1.9498319999999998 1.309853 -0.639979
484.16796875 1.8243360000000002 1.119336 -0.705
484.828125 1.9792640000000001 1.149329 -0.829935
485.5078125 2.1198099999999998 1.480074 -0.639736
486.19921875 2.049452 1.520494 -0.528958
486.83984375 1.9989599999999998 1.467121 -0.531839
487.45703125 1.9067820000000002 1.248061 -0.658721
488.06640625 2.067737 1.467737 -0.6
488.70703125 2.029036 1.539994 -0.489042
489.3515625 1.960159 1.500415 -0.459744
490.01953125 2.018947 1.344913 -0.674034
490.6953125 1.854895 1.251902 -0.602993
491.359375 2.008733 1.400062 -0.608671
492.04296875 1.967171 1.473483 -0.493688
492.6875 1.856852 1.189286 -0.667566
493.3359375 1.9293339999999999 1.166103 -0.763231
493.98046875 2.013703 1.299852 -0.713851
494.62109375 2.076567 1.356618 -0.719949
495.28515625 2.043317 1.118317 -0.925
495.9375 1.9007329999999998 1.060733 -0.84
496.58203125 2.065731 1.237642 -0.828089
497.23828125 2.0395469999999998 1.215293 -0.824254
497.8828125 1.912626 1.016842 -0.895784
498.4921875 1.993892 1.18347 -0.810422
499.1171875 2.038688 1.291357 -0.747331
499.76953125 2.1288359999999997 1.369735 -0.759101
500.41796875 1.9918040000000001 1.373879 -0.617925
501.08984375 1.984817 1.355841 -0.628976
501.79296875 2.0064349999999997 1.331435 -0.675
502.45703125 1.903183 1.003827 -0.899356
503.11328125 1.97953 1.167202 -0.812328
503.7421875 1.8219509999999999 1.162032 -0.659919
504.35546875 1.737091 1.189713 -0.547378
504.9609375 1.8345829999999999 1.004907 -0.829676
505.546875 1.951554 1.089736 -0.861818
506.14453125 1.772124 1.062688 -0.709436
506.77734375 1.884244 1.00766 -0.876584
507.41796875 1.9166750000000001 1.111841 -0.804834
508.06640625 2.044953 1.289953 -0.755
508.73828125 1.915645 1.288318 -0.627327
509.43359375 1.7251500000000002 1.307919 -0.417231
510.09375 1.879988 1.381462 -0.498526
510.73828125 1.820319 1.260799 -0.55952
511.32421875 1.802398 1.034144 -0.768254
511.90625 1.808572 1.171585 -0.636987
512.4921875 1.85777 1.18777 -0.67
513.07421875 1.8947530000000001 1.139753 -0.755
513.671875 1.84393 1.15893 -0.685
514.28125 1.83312 1.19062 -0.6425
514.9140625 1.808813 1.029746 -0.779067
515.53515625 1.7914400000000001 0.89644 -0.895
516.16015625 1.9500199999999999 1.13502 -0.815
516.8359375 1.910862 1.189373 -0.721489
517.55078125 1.713749 1.393749 -0.32
518.21875 1.77191 1.352706 -0.419204
518.9140625 1.765268 1.384886 -0.380382
519.59765625 1.682773 1.190207 -0.492566
520.2578125 1.8032380000000001 1.328362 -0.474876
520.93359375 1.821908 1.403259 -0.418649
521.62890625 1.80752 1.329151 -0.478369
522.27734375 1.802782 1.243641 -0.559141
522.93359375 2.00486 1.300452 -0.704408
523.55078125 2.130739 1.597585 -0.533154
524.19921875 1.9298579999999999 1.800144 -0.129714
524.93359375 1.733167 1.788196 0.055029
525.68359375 1.608846 1.509794 -0.099052
526.41015625 1.81661 1.387782 -0.428828
527.13671875 1.81559 1.449819 -0.365771
527.828125 1.779405 1.455328 -0.324077
528.546875 1.896843 1.451843 -0.445
529.23046875 1.910895 1.278869 -0.632026
529.87890625 1.8964779999999999 1.158243 -0.738235
530.5234375 1.8399960000000002 1.284996 -0.555
531.16796875 1.8699499999999998 1.424675 -0.445275
531.83984375 1.867315 1.372315 -0.495
532.50390625 1.904824 1.345324 -0.5595
533.18359375 2.0095389999999997 1.531691 -0.477848
533.88671875 2.0516 1.58784 -0.46376
534.5859375 1.9694 1.6444 -0.325
535.265625 1.898887 1.549007 -0.34988
535.91015625 1.9460359999999999 1.516247 -0.429789
536.5625 1.94925 1.63405 -0.3152
537.2265625 1.928152 1.526831 -0.401321
537.921875 1.892127 1.462127 -0.43
538.5859375 1.834542 1.273807 -0.560735
539.23828125 2.0250000000000004 1.475 -0.55
539.890625 2.02675 1.49375 -0.533
540.55078125 1.931373 1.461373 -0.47
541.2421875 1.9705339999999998 1.556269 -0.414265
541.93359375 1.84694 1.492453 -0.354487
542.59375 1.82647 1.408228 -0.418242
543.2421875 1.728402 1.259558 -0.468844
543.87890625 1.7852640000000002 1.357992 -0.427272
544.53515625 1.9125290000000001 1.401145 -0.511384
545.17578125 1.9214310000000001 1.380244 -0.541187
545.80078125 1.824603 1.455489 -0.369114
546.4296875 1.80544 1.402245 -0.403195
547.07421875 1.8993989999999998 1.336906 -0.562493
547.69140625 1.7792370000000002 1.135375 -0.643862
548.3203125 1.9214769999999999 1.392827 -0.52865
548.98046875 1.959778 1.484722 -0.475056
549.6953125 1.9584579999999998 1.419865 -0.538593
550.39453125 1.854318 1.364857 -0.489461
551.078125 1.8533110000000002 1.519092 -0.334219
551.7265625 1.69676 1.41967 -0.27709
552.34765625 1.85077 1.439148 -0.411622
552.9375 1.783954 1.385258 -0.398696
553.515625 1.772184 1.363797 -0.408387
554.12109375 1.817926 1.137064 -0.680862
554.73828125 1.9215900000000001 1.185681 -0.735909
555.3671875 1.979788 1.215932 -0.763856
555.98828125 2.112753 1.204463 -0.90829
556.6484375 1.9148900000000002 1.068993 -0.845897
557.33984375 1.990542 1.167497 -0.823045
558.0234375 1.879319 1.13564 -0.743679
558.66796875 1.7817049999999999 1.114337 -0.667368
559.30078125 1.7884600000000002 1.273465 -0.514995
559.8828125 1.7323579999999998 1.2631 -0.469258
560.4609375 1.936903 1.209877 -0.727026
561.05078125 1.853012 1.213564 -0.639448
561.6484375 2.019395 1.276104 -0.743291
562.2734375 1.999741 1.294764 -0.704977
562.90625 1.9663590000000002 1.187353 -0.779006
563.52734375 1.92614 1.06642 -0.85972
564.140625 1.8892550000000001 1.263235 -0.62602
564.75390625 1.935419 1.420479 -0.51494
565.390625 1.844188 1.27708 -0.567108
566.04296875 1.761679 0.981815 -0.779864
566.69140625 2.006465 1.268078 -0.738387
567.35546875 1.916644 1.163734 -0.75291
568.0234375 1.865674 1.09033 -0.775344
568.69921875 1.850378 1.029584 -0.820794
569.35546875 1.954558 1.229701 -0.724857
569.984375 1.861499 1.096845 -0.764654
570.61328125 1.821249 0.877565 -0.943684
571.2265625 1.847901 0.853695 -0.994206
571.82421875 1.946276 1.063143 -0.883133
572.453125 1.907683 1.194556 -0.713127
573.09375 1.822193 1.143323 -0.67887
573.78125 1.7306979999999998 1.13669 -0.594008
574.46875 1.74468 0.99468 -0.75
575.1171875 1.7734960000000002 0.789158 -0.984338
575.74609375 1.814387 1.029515 -0.784872
576.33203125 1.9985 1.218696 -0.779804
576.90625 1.919046 1.216328 -0.702718
577.48828125 1.8722919999999998 0.924543 -0.947749
578.06640625 1.844732 1.083318 -0.761414
578.66015625 1.812344 1.102489 -0.709855
579.2890625 1.8547500000000001 0.989887 -0.864863
579.921875 1.934358 1.107302 -0.827056
580.59375 1.943947 1.109318 -0.834629
581.2578125 1.8681900000000002 1.088278 -0.779912
581.94921875 1.877705 0.938591 -0.939114
582.59375 1.807396 0.852931 -0.954465
583.20703125 1.9243329999999998 1.181412 -0.742921
583.8046875 1.9217079999999997 1.157177 -0.764531
584.4140625 1.9664380000000001 1.119688 -0.84675
585.04296875 1.8526090000000002 1.013551 -0.839058
585.6796875 1.9730020000000001 1.324311 -0.648691
586.3359375 1.867432 1.191903 -0.675529
586.98828125 1.865289 1.076325 -0.788964
587.625 1.7874439999999998 0.955 -0.832444
588.23046875 1.849662 1.029839 -0.819823
588.8125 1.710646 0.966786 -0.74386
589.4140625 1.77305 0.919724 -0.853326
590.02734375 1.850985 0.88261 -0.968375
590.6328125 1.9047100000000001 0.974815 -0.929895
591.2578125 2.0767889999999998 1.171897 -0.904892
591.90234375 1.922077 1.113504 -0.808573
592.5703125 1.860919 1.111238 -0.749681
593.22265625 1.8362979999999998 1.213434 -0.622864
593.8515625 1.756145 1.09135 -0.664795
594.4765625 1.818847 1.058847 -0.76
595.07421875 2.0484 1.112575 -0.935825
595.6875 2.092414 1.317414 -0.775
596.34375 1.955285 1.107682 -0.847603
597.0078125 1.814301 1.119618 -0.694683
597.65625 1.8818030000000001 1.098057 -0.783746
598.30078125 1.925961 1.184825 -0.741136
598.91796875 1.901781 1.191806 -0.709975
599.546875 1.856011 1.13854 -0.717471
600.14453125 1.8732190000000002 1.029819 -0.8434
600.73828125 1.792372 1.072372 -0.72
601.36328125 1.892036 1.162036 -0.73
602.015625 1.890355 1.200444 -0.689911
602.6640625 1.8050570000000001 1.189543 -0.615514
603.328125 1.70435 0.884865 -0.819485
603.984375 1.8299509999999999 1.035892 -0.794059
604.62890625 1.81893 1.117144 -0.701786
605.2734375 1.790467 1.075306 -0.715161
605.92578125 1.814103 0.889152 -0.924951
606.54296875 1.8774479999999998 1.073454 -0.803994
607.15625 1.847044 1.185786 -0.661258
607.7578125 1.820811 1.105811 -0.715
608.39453125 1.846914 0.999739 -0.847175
609.03125 1.8407879999999999 1.116788 -0.724
609.69140625 1.9732319999999999 1.201967 -0.771265
610.37109375 1.909526 1.123718 -0.785808
611.0625 1.867225 1.097225 -0.77
611.71484375 1.7534 1.139338 -0.614062
612.3515625 1.699497 1.153633 -0.545864
612.96484375 1.765069 0.99724 -0.767829
613.5859375 1.8793129999999998 1.174313 -0.705
614.19140625 2.007473 1.257494 -0.749979
614.82421875 1.957182 1.249379 -0.707803
615.49609375 2.049471 1.319495 -0.729976
616.16796875 1.8443960000000001 1.309419 -0.534977
616.84375 2.013103 1.181056 -0.832047
617.5 1.8985720000000001 1.195 -0.703572
618.16015625 1.9229949999999998 1.333424 -0.589571
618.81640625 1.9101500000000002 1.284604 -0.625546
619.4453125 1.839818 1.031923 -0.807895
620.06640625 1.922029 1.109003 -0.813026
620.6953125 2.0365130000000002 1.293433 -0.74308
621.390625 1.981099 1.216099 -0.765
622.09765625 1.91805 1.11848 -0.79957
622.765625 1.8549989999999998 1.194999 -0.66
623.421875 1.8707559999999999 1.224735 -0.646021
624.04296875 1.9045900000000002 1.057209 -0.847381
624.6484375 1.900247 1.111564 -0.788683
625.26171875 1.990313 1.236578 -0.753735
625.90234375 1.939291 1.153836 -0.785455
626.54296875 1.748658 1.03923 -0.709428
627.1875 1.850976 1.070976 -0.78
627.828125 1.817711 1.038803 -0.778908
628.46875 1.871931 1.147681 -0.72425
629.12109375 1.849253 1.119528 -0.729725
629.76953125 1.812039 0.979852 -0.832187
630.390625 1.8082060000000002 1.039427 -0.768779
630.99609375 2.029031 1.174156 -0.854875
631.6015625 2.1348640000000003 1.211807 -0.923057
632.2421875 1.997741 1.203288 -0.794453
632.88671875 1.879372 1.143847 -0.735525
633.5234375 1.807231 1.220088 -0.587143
634.171875 1.757029 1.229499 -0.52753
634.8203125 1.9169640000000001 1.127168 -0.789796
635.4375 1.978146 1.136803 -0.841343
636.04296875 1.791068 1.15205 -0.639018
636.6171875 1.870694 1.156662 -0.714032
637.19140625 1.954018 0.959079 -0.994939
637.78515625 1.945885 1.157782 -0.788103
638.41796875 1.873399 1.193767 -0.679632
639.08984375 1.834006 1.038073 -0.795933
639.734375 1.987542 1.002542 -0.985
640.37890625 1.918996 1.199464 -0.719532
641.0703125 1.936544 1.322209 -0.614335
641.75390625 2.003291 1.308781 -0.69451
642.40234375 1.790848 1.239339 -0.551509
643.02734375 1.697627 0.974429 -0.723198
643.6171875 1.8359 0.993644 -0.842256
644.19921875 2.003552 1.155735 -0.847817
644.7890625 2.0928069999999996 1.013413 -1.079394
645.39453125 1.9730500000000002 0.94105 -1.032
646.00390625 1.917122 1.162333 -0.754789
646.5859375 1.844325 1.269325 -0.575
647.16015625 1.842284 1.112284 -0.73
647.7109375 1.878416 1.183749 -0.694667
648.26171875 1.9862920000000002 1.196045 -0.790247
648.82421875 1.907762 1.09083 -0.816932
649.40234375 1.868811 1.040947 -0.827864
650.01171875 1.807319 0.929819 -0.8775
650.61328125 1.85274 0.995565 -0.857175
651.25390625 1.96469 1.23031 -0.73438
651.91015625 1.868501 1.230429 -0.638072
652.5546875 1.863455 1.049811 -0.813644
653.203125 1.825878 0.926874 -0.899004
653.84765625 1.931686 1.101794 -0.829892
654.4765625 1.921746 1.032991 -0.888755
655.0703125 1.93117 1.073085 -0.858085
655.69140625 2.048936 1.155878 -0.893058
656.34765625 1.9064649999999999 1.17793 -0.728535
657.01171875 1.820052 1.009199 -0.810853
657.66015625 1.863124 0.914879 -0.948245
658.33203125 1.9690349999999999 1.194836 -0.774199
659.00390625 1.9292920000000002 1.260007 -0.669285
659.65625 1.876757 1.220248 -0.656509
660.28515625 1.84182 1.197406 -0.644414
660.8984375 1.891619 1.241673 -0.649946
661.515625 1.9262419999999998 1.39709 -0.529152
662.15234375 1.9743439999999999 1.314994 -0.65935
662.796875 1.877417 1.062417 -0.815
663.45703125 1.9583780000000002 1.280507 -0.677871
664.1328125 2.035079 1.516502 -0.518577
664.8125 1.8684980000000002 1.473105 -0.395393
665.4921875 1.8480999999999999 1.181655 -0.666445
666.11328125 1.8217210000000001 1.276721 -0.545
666.73046875 1.8553629999999999 1.449871 -0.405492
667.35546875 1.874743 1.439832 -0.434911
667.95703125 1.85636 1.252434 -0.603926
668.5625 1.791842 1.213708 -0.578134
669.17578125 1.8583249999999998 1.329138 -0.529187
669.8203125 1.821654 1.151654 -0.67
670.4765625 1.8344230000000001 1.369423 -0.465
671.1171875 1.874515 1.345618 -0.528897
671.7578125 1.844547 1.252946 -0.591601
672.37109375 1.831004 1.051315 -0.779689
672.9765625 1.812852 1.222852 -0.59
673.59765625 1.927909 0.98719 -0.940719
674.2109375 2.063269 0.985593 -1.077676
674.84375 2.03475 1.101459 -0.933291
675.546875 2.053902 1.293045 -0.760857
676.25 1.9 1.255 -0.645
676.93359375 1.888638 1.21197 -0.676668
677.58203125 1.708879 1.098885 -0.609994
678.203125 1.671149 0.981149 -0.69
678.80078125 1.879233 1.070584 -0.808649
679.37109375 1.8801130000000001 1.23017 -0.649943
679.93359375 1.730343 1.178632 -0.551711
680.50390625 1.7600799999999999 1.12158 -0.6385
681.109375 1.7202169999999999 0.997982 -0.722235
681.74609375 1.704791 1.189932 -0.514859
682.41015625 1.76208 1.267103 -0.494977
683.0859375 1.771467 1.119602 -0.651865
683.7421875 1.8058420000000002 1.156147 -0.649695
684.390625 1.8548010000000001 1.234801 -0.62
685.03515625 1.9347720000000002 1.189589 -0.745183
685.69140625 1.900112 1.103029 -0.797083
686.359375 1.760982 1.152624 -0.608358
687.02734375 1.721245 1.136413 -0.584832
687.6875 1.768672 1.063672 -0.705
688.32421875 1.8886919999999998 1.130234 -0.758458
688.97265625 1.797745 1.194745 -0.603
689.60546875 1.771393 1.234983 -0.53641
690.2109375 1.714251 1.194265 -0.519986
690.8359375 1.8038500000000002 0.958875 -0.844975
691.4609375 1.8447850000000001 1.034785 -0.81
692.05859375 1.906601 1.21248 -0.694121
692.703125 1.830834 1.280834 -0.55
693.37890625 1.645 1.245 -0.4
694.0625 1.712364 1.097905 -0.614459
694.73046875 1.709495 0.80496 -0.904535
695.35546875 1.807313 1.024765 -0.782548
695.96484375 1.79223 1.075778 -0.716452
696.53515625 1.818358 1.003914 -0.814444
697.0859375 1.894492 1.019517 -0.874975
697.6484375 1.790459 0.925898 -0.864561
698.21875 1.9163450000000002 1.037238 -0.879107
698.8359375 1.8950170000000002 1.111169 -0.783848
699.5625 1.917534 1.205556 -0.711978
700.3125 1.696052 1.413192 -0.28286
701.03125 1.70618 0.937324 -0.768856
701.46875 0.558191 -0.145714 -0.703905
701.6875 1.998465 1.384974 -0.613491
702.33984375 1.818105 1.59378 -0.224325
702.96875 1.741356 1.446356 -0.295
703.59375 1.697645 1.275379 -0.422266
704.1796875 1.83808 1.594172 -0.243908
704.796875 1.825116 1.621079 -0.204037
705.4609375 1.8246479999999998 1.544792 -0.279856
706.1484375 1.746691 1.322233 -0.424458
706.8203125 1.8744489999999998 1.350647 -0.523802
707.51953125 1.981138 1.614801 -0.366337
708.2109375 1.933053 1.568954 -0.364099
708.9375 1.94088 1.596612 -0.344268
709.625 1.805 1.5 -0.305
710.32421875 1.8032650000000001 1.591598 -0.211667
711.015625 1.743496 1.488496 -0.255
711.69140625 1.747471 1.327471 -0.42
712.34765625 1.7913510000000001 1.427251 -0.3641
713.015625 1.8086840000000002 1.448484 -0.3602
713.6875 1.8216649999999999 1.402944 -0.418721
714.32421875 1.7753809999999999 1.345994 -0.429387
714.9453125 1.788013 1.513049 -0.274964
715.60546875 1.859869 1.534869 -0.325
716.26953125 1.791144 1.439984 -0.35116
716.93359375 1.829314 1.177048 -0.652266
717.6015625 1.934543 1.319421 -0.615122
718.29296875 2.009522 1.454541 -0.554981
718.98046875 1.9474840000000002 1.469132 -0.478352
719.63671875 1.8987880000000001 1.435006 -0.463782
720.265625 1.854002 1.394102 -0.4599
720.875 1.86494 1.195 -0.66994
721.4765625 1.853977 1.068977 -0.785
722.078125 1.959129 1.379129 -0.58
722.70703125 1.925336 1.495336 -0.43
723.3671875 1.804161 1.305631 -0.49853
724.0078125 1.845396 1.148055 -0.697341
724.6484375 1.99245 1.57745 -0.415
725.29296875 2.030599 1.581583 -0.449016
725.95703125 1.910887 1.606168 -0.304719
726.66015625 1.88925 1.370763 -0.518487
727.30078125 1.837097 1.334727 -0.50237
727.92578125 1.9457520000000001 1.551449 -0.394303
728.55859375 1.974745 1.629745 -0.345
729.234375 1.994611 1.70738 -0.287231
729.9609375 1.976989 1.684466 -0.292523
730.7109375 1.8709550000000001 1.671653 -0.199302
731.41796875 1.799724 1.424724 -0.375
732.0546875 1.890095 1.562144 -0.327951
732.6796875 1.929503 1.660178 -0.269325
733.30078125 1.9551539999999998 1.680154 -0.275
733.921875 1.847219 1.44385 -0.403369
734.53515625 1.828887 1.352237 -0.47665
735.14453125 1.93472 1.649818 -0.284902
735.76171875 1.8834499999999998 1.30845 -0.575
736.39453125 1.879821 1.169881 -0.70994
737.01953125 1.841262 1.109744 -0.731518
737.62890625 1.866218 1.311386 -0.554832
738.23828125 1.8949099999999999 1.235728 -0.659182
738.828125 1.869788 1.165516 -0.704272
739.40625 1.8777119999999998 1.092865 -0.784847
739.99609375 1.8498890000000001 1.034188 -0.815701
740.61328125 1.828262 1.201087 -0.627175
741.28125 1.87149 1.232752 -0.638738
741.97265625 1.8447040000000001 0.994704 -0.85
742.63671875 1.8566939999999998 1.041694 -0.815
743.29296875 1.813729 1.138866 -0.674863
743.90234375 1.9049749999999999 0.90942 -0.995555
744.4921875 2.002568 1.152793 -0.849775
745.07421875 2.015691 1.190691 -0.825
745.6484375 1.9117709999999999 1.151939 -0.759832
746.2578125 1.85016 1.160293 -0.689867
746.86328125 1.771441 1.167955 -0.603486
747.46875 1.818619 1.083998 -0.734621
748.0859375 1.796201 1.165 -0.631201
748.69921875 1.7496450000000001 1.181635 -0.56801
749.3203125 1.753159 1.162119 -0.59104
749.94921875 1.693382 1.032217 -0.661165
750.55078125 1.7891590000000002 1.084316 -0.704843
751.125 1.768707 1.205 -0.563707
751.70703125 1.7535599999999998 1.17356 -0.58
752.3046875 1.739698 1.035 -0.704698
752.9140625 1.674788 1.059794 -0.614994
753.54296875 1.813068 1.3526 -0.460468
754.23046875 1.939786 1.13496 -0.804826
754.8828125 1.868856 0.991263 -0.877593
755.54296875 1.783753 0.889168 -0.894585
756.171875 1.739755 1.004918 -0.734837
756.75390625 1.653049 1.029507 -0.623542
757.3203125 1.6145580000000002 1.002115 -0.612443
757.89453125 1.7702849999999999 1.089748 -0.680537
758.4765625 1.7228759999999999 0.96238 -0.760496
759.05859375 1.759493 0.964493 -0.795
759.65234375 1.862449 0.969585 -0.892864
760.22265625 1.843196 0.913196 -0.93
760.8046875 1.7091509999999999 0.700046 -1.009105
761.40625 1.7902909999999999 0.935585 -0.854706
761.98828125 1.9382640000000002 1.03353 -0.904734
762.6484375 2.063464 1.096797 -0.966667
763.3515625 2.023092 1.152991 -0.870101
764.0546875 1.9114689999999999 1.477201 -0.434268
764.70703125 1.720554 1.325554 -0.395
765.36328125 1.8247499999999999 1.59475 -0.23
766.03515625 1.853167 1.611801 -0.241366
766.70703125 1.864334 1.65556 -0.208774
767.3515625 1.7738680000000002 1.474525 -0.299343
767.953125 1.831686 1.556686 -0.275
768.5625 1.9671969999999999 1.684087 -0.28311
769.16796875 1.872916 1.605608 -0.267308
769.77734375 1.840545 1.45072 -0.389825
770.3984375 1.9399220000000001 1.674922 -0.265
771.07421875 1.966386 1.681386 -0.285
771.8359375 1.963307 1.679303 -0.284004
772.56640625 1.869419 1.62446 -0.244959
773.28125 1.8655620000000002 1.630662 -0.2349
773.9609375 1.629017 1.454017 -0.175
774.58984375 1.668018 1.313872 -0.354146
775.17578125 1.741165 1.467977 -0.273188
775.7734375 1.8863750000000001 1.37088 -0.515495
776.3671875 1.7520449999999999 1.247823 -0.504222
776.9765625 1.6866320000000001 1.081773 -0.604859
777.609375 1.806144 1.344622 -0.461522
778.29296875 1.876076 1.396435 -0.479641
779.04296875 1.882888 1.450651 -0.432237
779.7734375 1.818572 1.332324 -0.486248
780.44921875 1.837589 1.51471 -0.322879
781.125 1.854994 1.5 -0.354994
781.80078125 1.770015 1.370042 -0.399973
782.46484375 1.839705 1.44248 -0.397225
783.14453125 1.870504 1.555582 -0.314922
783.84765625 1.7754429999999999 1.48504 -0.290403
784.5546875 1.746474 1.478595 -0.267879
785.21484375 1.832983 1.574155 -0.258828
785.88671875 1.871707 1.702723 -0.168984
786.55859375 1.8640189999999999 1.604212 -0.259807
787.21875 1.762053 1.417159 -0.344894
787.859375 1.871616 1.631616 -0.24
788.51171875 1.848875 1.64552 -0.203355
789.171875 1.821117 1.590416 -0.230701
789.83984375 1.781801 1.484379 -0.297422
790.53125 1.802683 1.671364 -0.131319
791.21484375 1.790979 1.634873 -0.156106
791.88671875 1.862171 1.620122 -0.242049
792.49609375 1.776326 1.531326 -0.245
793.12890625 1.8521969999999999 1.584398 -0.267799
793.77734375 1.890427 1.585509 -0.304918
794.4140625 1.793491 1.439099 -0.354392
795.0625 1.8338290000000002 1.458887 -0.374942
795.73828125 1.892124 1.494138 -0.397986
796.38671875 1.836627 1.39819 -0.438437
797.04296875 1.749595 1.225341 -0.524254
797.67578125 1.898416 1.505255 -0.393161
798.3203125 1.94613 1.525377 -0.420753
798.98046875 1.906261 1.439989 -0.466272
799.625 1.764988 1.31 -0.454988
800.2421875 1.7374390000000002 1.198039 -0.5394
800.8515625 1.802725 1.469366 -0.333359
801.48828125 1.818581 1.478581 -0.34
802.1328125 1.7260929999999999 1.302593 -0.4235
802.7890625 1.808743 1.393786 -0.414957
803.4375 1.900398 1.555398 -0.345
804.09765625 1.8780389999999998 1.499275 -0.378764
804.77734375 1.758687 1.329373 -0.429314
805.41015625 1.698922 1.215562 -0.48336
806.03515625 1.800903 1.435903 -0.365
806.6953125 1.789708 1.459039 -0.330669
807.359375 1.827212 1.393088 -0.434124
808.01953125 1.7802769999999999 1.285583 -0.494694
808.65625 1.762862 1.351429 -0.411433
809.3046875 1.8698979999999998 1.405115 -0.464783
809.93359375 1.852573 1.347866 -0.504707
810.53125 1.912584 1.148354 -0.76423
811.1171875 1.901883 1.093397 -0.808486
811.69140625 1.898594 1.117681 -0.780913
812.25 1.903333 1.075 -0.828333
812.828125 1.877844 1.043886 -0.833958
813.4140625 1.8996 1.194616 -0.704984
814.04296875 1.886352 1.18208 -0.704272
814.69140625 1.913401 1.118401 -0.795
815.31640625 1.853552 0.968552 -0.885
815.9375 1.8510140000000002 1.096028 -0.754986
816.5390625 1.963895 1.153895 -0.81
817.1328125 1.836136 0.950792 -0.885344
817.73046875 1.9075790000000001 1.099819 -0.80776
818.3359375 1.939012 1.104012 -0.835
818.96875 1.892249 1.064537 -0.827712
819.60546875 1.958774 1.289866 -0.668908
820.23828125 1.965694 1.289003 -0.676691
820.90234375 1.937227 1.209872 -0.727355
821.546875 1.894982 1.167725 -0.727257
822.17578125 1.955111 1.32722 -0.627891
822.81640625 1.993933 1.388933 -0.605
823.4453125 1.9224999999999999 1.323232 -0.599268
824.05078125 1.8494099999999998 1.15441 -0.695
824.65625 1.9026399999999999 1.238684 -0.663956
825.296875 1.924747 1.286369 -0.638378
825.95703125 1.9787590000000002 1.328759 -0.65
826.625 1.905 1.185 -0.72
827.2734375 1.939824 1.294824 -0.645
827.91015625 1.946914 1.326586 -0.620328
828.55078125 1.989385 1.330218 -0.659167
829.16015625 1.9006660000000002 1.198679 -0.701987
829.765625 1.9606270000000001 1.360964 -0.599663
830.41015625 1.973014 1.364712 -0.608302
831.0703125 1.9609230000000002 1.28272 -0.678203
831.74609375 1.934521 1.154521 -0.78
832.3828125 1.905863 1.168411 -0.737452
833.03515625 1.961711 1.307645 -0.654066
833.68359375 1.909335 1.212301 -0.697034
834.3125 1.901489 1.113729 -0.78776
834.9296875 1.9299879999999998 1.173466 -0.756522
835.55078125 1.923171 1.34861 -0.574561
836.16015625 1.891549 1.217008 -0.674541
836.7890625 1.969742 1.22346 -0.746282
837.42578125 1.900527 1.124136 -0.776391
838.0859375 1.91919 1.294932 -0.624258
838.7421875 1.93931 1.309422 -0.629888
839.39453125 1.9096469999999999 1.249715 -0.659932
840.015625 1.8763170000000002 1.070337 -0.80598
840.61328125 1.916385 1.181385 -0.735
841.21875 1.9712830000000001 1.268942 -0.702341
841.8203125 1.902606 1.052148 -0.850458
842.4375 2.015907 1.223341 -0.792566
843.12890625 1.934003 1.194127 -0.739876
843.83984375 1.940303 1.205303 -0.735
844.55078125 1.858416 1.123709 -0.734707
845.2109375 1.7739349999999998 1.039507 -0.734428
845.84375 1.7748750000000002 1.010625 -0.76425
846.453125 1.8605049999999999 1.192087 -0.668418
847.05078125 1.838605 1.120417 -0.718188
847.65234375 1.861156 1.141251 -0.719905
848.26171875 1.837114 1.067114 -0.77
848.91796875 1.8909570000000002 1.125992 -0.764965
849.62109375 1.876706 1.19194 -0.684766
850.3515625 1.954288 1.16931 -0.784978
851.06640625 1.964507 1.024507 -0.94
851.75 1.9986670000000002 1.225 -0.773667
852.43359375 1.957381 1.298521 -0.65886
853.08203125 1.81425 1.085832 -0.728418
853.71875 1.851848 1.033824 -0.818024
854.3671875 1.944255 1.184818 -0.759437
855.01953125 1.913074 1.10965 -0.803424
855.69140625 1.914606 1.109606 -0.805
856.36328125 1.89994 1.022488 -0.877452
857.02734375 1.9312070000000001 1.204072 -0.727135
857.6953125 1.956286 1.294896 -0.66139
858.34375 1.8948200000000002 1.21375 -0.68107
859.0078125 1.897767 1.167923 -0.729844
859.640625 1.863216 1.068144 -0.795072
860.2734375 1.92161 1.251678 -0.669932
860.9140625 1.887952 1.213246 -0.674706
861.5859375 1.917001 1.229275 -0.687726
862.265625 1.876264 1.160727 -0.715537
862.9296875 1.900817 1.219552 -0.681265
863.59375 1.9576639999999998 1.309952 -0.647712
864.2265625 1.867312 1.21422 -0.653092
864.85546875 1.869811 1.129811 -0.74
865.48046875 1.8379539999999999 1.064169 -0.773785
866.10546875 1.96976 1.27976 -0.69
866.734375 1.902597 1.184785 -0.717812
867.39453125 1.850379 1.104957 -0.745422
868.0390625 1.913646 1.143646 -0.77
868.6796875 1.939641 1.259641 -0.68
869.328125 1.896077 1.159584 -0.736493
869.97265625 1.906923 0.984597 -0.922326
870.59375 1.922021 0.893547 -1.028474
871.19921875 1.9471720000000001 1.109147 -0.838025
871.8125 1.9317140000000002 1.140262 -0.791452
872.4453125 1.909341 0.982237 -0.927104
873.08203125 1.914787 0.94347 -0.971317
873.7265625 1.957348 1.137405 -0.819943
874.4140625 1.977134 1.127163 -0.849971
875.109375 1.909017 1.069615 -0.839402
875.76953125 1.903273 0.969849 -0.933424
876.3828125 1.883689 0.879154 -1.004535
876.9765625 1.8415650000000001 0.986995 -0.85457
877.578125 1.881927 1.035537 -0.84639
878.203125 1.933122 1.029805 -0.903317
878.82421875 1.847051 0.887051 -0.96
879.4765625 1.9092639999999999 0.945557 -0.963707
880.12890625 2.049149 1.229639 -0.81951
880.828125 2.088682 1.349224 -0.739458
881.546875 1.992793 1.319199 -0.673594
882.21484375 1.9207480000000001 1.268748 -0.652
882.875 1.824448 1.185 -0.639448
883.51953125 1.8261470000000002 1.124943 -0.701204
884.12890625 1.8293020000000002 0.754357 -1.074945
884.7421875 1.871562 0.931985 -0.939577
885.35546875 2.024324 1.12443 -0.899894
886.00390625 1.938993 1.184126 -0.754867
886.69921875 1.950924 1.167384 -0.78354
887.37890625 1.830594 1.091205 -0.739389
888.015625 1.746959 0.993417 -0.753542
888.6171875 1.891104 1.096231 -0.794873
889.2265625 1.865704 1.162971 -0.702733
889.859375 1.997524 1.342597 -0.654927
890.52734375 1.9192040000000001 1.304429 -0.614775
891.234375 1.906495 1.261901 -0.644594
891.953125 1.8757890000000002 1.228523 -0.647266
892.65625 1.789564 0.9752 -0.814364
893.3125 1.850719 0.97539 -0.875329
893.9609375 2.042661 1.159653 -0.883008
894.609375 2.001237 1.166385 -0.834852
895.2734375 1.969567 1.230899 -0.738668
895.9453125 1.847129 1.182129 -0.665
896.60546875 1.8363099999999999 1.159989 -0.676321
897.28125 1.717375 1.042781 -0.674594
897.9453125 1.692966 0.959421 -0.733545
898.59765625 1.842762 1.042248 -0.800514
899.23828125 1.882403 1.172403 -0.71
899.8828125 1.912958 1.224392 -0.688566
900.5234375 1.8779849999999998 1.24423 -0.633755
901.14453125 1.8136670000000001 1.104344 -0.709323
901.74609375 1.76912 0.99912 -0.77
902.36328125 1.894841 1.235466 -0.659375
903.0390625 2.016524 1.369934 -0.64659
903.75390625 1.9401570000000001 1.327196 -0.612961
904.46875 1.927125 1.290641 -0.636484
905.140625 1.846382 1.186439 -0.659943
905.7890625 1.8605690000000001 1.16474 -0.695829
906.40625 1.7971849999999998 0.983605 -0.81358
907.02734375 1.864232 1.064258 -0.799974
907.6640625 1.968475 1.159778 -0.808697
908.31640625 1.8965869999999998 1.143827 -0.75276
909.0 1.819375 0.85 -0.969375
909.6640625 1.926544 1.071569 -0.854975
910.37109375 1.9689709999999998 1.129041 -0.83993
911.09765625 1.955934 1.076398 -0.879536
911.78515625 1.8797799999999998 1.004892 -0.874888
912.44140625 1.850068 0.950068 -0.9
913.0625 1.6852420000000001 0.717373 -0.967869
913.671875 1.968018 1.073307 -0.894711
914.29296875 1.991733 1.183546 -0.808187
914.96875 1.902044 1.139255 -0.762789
915.69140625 1.878563 1.194953 -0.68361
916.40234375 1.8607879999999999 1.124083 -0.736705
917.08984375 1.790538 0.996169 -0.794369
917.75 1.846347 0.965 -0.881347
918.39453125 1.869958 1.049958 -0.82
919.02734375 1.8593389999999999 1.084339 -0.775
919.640625 1.8502589999999999 1.001123 -0.849136
920.24609375 1.867992 1.090464 -0.777528
920.87890625 1.9644089999999998 1.166076 -0.798333
921.5703125 1.9956679999999998 1.23836 -0.757308
922.2734375 1.932342 1.277342 -0.655
923.00390625 1.870901 1.245623 -0.625278
923.7109375 1.858917 1.154091 -0.704826
924.3515625 1.855436 1.110699 -0.744737
924.98828125 1.907958 1.293544 -0.614414
925.625 1.8607839999999998 1.15 -0.710784
926.26953125 1.923346 1.209752 -0.713594
926.94921875 1.932341 1.130766 -0.801575
927.609375 1.908629 0.996827 -0.911802
928.25 1.94 1.17 -0.77
928.90234375 1.996328 1.259578 -0.73675
929.55078125 1.934087 0.997915 -0.936172
930.17578125 2.015921 1.220935 -0.794986
930.81640625 1.984881 1.295877 -0.689004
931.45703125 1.933468 1.225741 -0.707727
932.08984375 1.906176 1.089719 -0.816457
932.73046875 2.00486 1.27986 -0.725
933.39453125 2.006262 1.31084 -0.695422
934.11328125 2.030049 1.386208 -0.643841
934.86328125 2.012368 1.332296 -0.680072
935.5546875 1.874582 1.235606 -0.638976
936.1953125 1.882296 1.167519 -0.714777
936.82421875 2.016345 1.334852 -0.681493
937.4375 1.925169 1.245175 -0.679994
938.03515625 1.8497659999999998 1.21 -0.639766
938.6484375 1.8739270000000001 1.18533 -0.688597
939.2734375 1.806312 1.077886 -0.728426
939.89453125 1.8697679999999999 1.179768 -0.69
940.53125 1.908511 1.129329 -0.779182
941.19140625 1.993312 1.323312 -0.67
941.90234375 1.981389 1.361578 -0.619811
942.59765625 1.8740430000000001 1.308936 -0.565107
943.2734375 1.8869189999999998 1.327087 -0.559832
943.91796875 1.8314840000000001 1.016527 -0.814957
944.55859375 1.923574 1.158574 -0.765
945.21484375 1.9144889999999999 1.195466 -0.719023
945.88671875 2.019847 1.290987 -0.72886
946.58203125 1.908483 1.273483 -0.635
947.28125 1.933613 1.333714 -0.599899
947.96484375 1.832356 1.21439 -0.617966
948.58984375 1.843089 1.163097 -0.679992
949.1875 1.873999 1.257577 -0.616422
949.8046875 1.994142 1.350101 -0.644041
950.4609375 1.930711 1.271881 -0.65883
951.1484375 1.9537840000000002 1.283892 -0.669892
951.84375 1.884849 1.159814 -0.725035
952.52734375 1.952165 1.304238 -0.647927
953.21875 2.040474 1.393462 -0.647012
953.90625 2.05448 1.406006 -0.648474
954.58984375 1.980577 1.332433 -0.648144
955.25390625 1.9519350000000002 1.291935 -0.66
955.90234375 1.84446 1.186731 -0.657729
956.51953125 1.898109 1.174851 -0.723258
957.12890625 1.916526 1.191843 -0.724683
957.77734375 1.9744 1.269998 -0.704402
958.48046875 2.018065 1.30869 -0.709375
959.171875 1.996635 1.367402 -0.629233
959.859375 1.9035170000000001 1.218517 -0.685
960.515625 1.902649 1.317855 -0.584794
961.171875 2.0374749999999997 1.447523 -0.589952
961.828125 1.992751 1.374741 -0.61801
962.50390625 1.901296 1.247802 -0.653494
963.203125 1.925577 1.210577 -0.715
963.85546875 1.8686599999999998 1.126394 -0.742266
964.51953125 1.996366 1.299944 -0.696422
965.171875 1.9772669999999999 1.257267 -0.72
965.8359375 1.969402 1.188888 -0.780514
966.47265625 1.919286 1.022714 -0.896572
967.08203125 1.927226 1.177226 -0.75
967.71484375 2.073373 1.341615 -0.731758
968.40234375 2.075438 1.344871 -0.730567
969.1328125 1.878313 1.588938 -0.289375
969.87890625 1.8459310000000002 1.570931 -0.275
970.59765625 1.828552 1.490017 -0.338535
971.29296875 1.870873 1.543396 -0.327477
971.953125 1.901134 1.597226 -0.303908
972.609375 1.896106 1.524383 -0.371723
973.234375 1.796006 1.356006 -0.44
973.86328125 1.864614 1.415614 -0.449
974.53125 2.003486 1.723611 -0.279875
975.2578125 1.990253 1.773228 -0.217025
976.01171875 1.8849460000000002 1.619946 -0.265
976.796875 1.809471 1.434519 -0.374952
977.49609375 1.96478 1.61033 -0.35445
978.18359375 2.000838 1.667064 -0.333774
978.86328125 1.912004 1.562004 -0.35
979.5390625 1.906388 1.523552 -0.382836
980.16015625 1.802311 1.364384 -0.437927
980.77734375 1.918563 1.52894 -0.389623
981.4296875 1.964289 1.63385 -0.330439
982.109375 1.917218 1.559741 -0.357477
982.8203125 1.8827280000000002 1.448452 -0.434276
983.5 1.985 1.61 -0.375
984.18359375 2.063856 1.749291 -0.314565
984.9296875 2.031972 1.732609 -0.299363
985.68359375 1.9085990000000002 1.684954 -0.223645
986.41015625 1.8665239999999998 1.546409 -0.320115
987.09375 1.867279 1.503158 -0.364121
987.7734375 1.9358369999999998 1.656267 -0.27957
988.4375 1.949049 1.646402 -0.302647
989.08203125 1.852694 1.498091 -0.354603
989.7421875 1.784746 1.399746 -0.385
990.390625 1.785351 1.315969 -0.469382
991.02734375 1.932267 1.525 -0.407267
991.71484375 1.965371 1.630614 -0.334757
992.4375 1.830108 1.495465 -0.334643
993.1796875 1.8056329999999998 1.300633 -0.505
993.890625 1.9089280000000002 1.474325 -0.434603
994.63671875 2.016498 1.579473 -0.437025
995.39453125 1.975179 1.604841 -0.370338
996.10546875 1.866234 1.569915 -0.296319
996.7890625 1.769781 1.484787 -0.284994
997.40625 1.7624970000000002 1.382497 -0.38
998.03515625 1.805632 1.456257 -0.349375
998.69921875 1.840562 1.421246 -0.419316
999.3671875 1.844895 1.397988 -0.446907
1000.04296875 1.819532 1.412218 -0.407314
1000.7109375 1.899237 1.554257 -0.34498
1001.390625 1.8485930000000002 1.492444 -0.356149
1002.05859375 1.834855 1.424855 -0.41
1002.73828125 1.824834 1.31522 -0.509614
1003.3828125 1.876375 1.43068 -0.445695
1004.05078125 1.919083 1.546268 -0.372815
1004.76171875 1.871772 1.481772 -0.39
1005.4609375 1.878 1.434391 -0.443609
1006.15625 1.85384 1.458867 -0.394973
1006.89453125 1.870858 1.555858 -0.315
1007.60546875 1.817695 1.423406 -0.394289
1008.2578125 1.744583 1.270989 -0.473594
1008.8828125 1.8265580000000001 1.497953 -0.328605
1009.546875 1.875995 1.542264 -0.333731
1010.203125 1.84422 1.441585 -0.402635
1010.8515625 1.782924 1.227102 -0.555822
1011.515625 1.8708580000000001 1.405858 -0.465
1012.1796875 1.851685 1.437627 -0.414058
1012.8671875 1.8248469999999999 1.32045 -0.504397
1013.515625 1.769239 1.231905 -0.537334
1014.16015625 1.9117929999999999 1.351982 -0.559811
1014.796875 1.915477 1.57397 -0.341507
1015.453125 1.913971 1.541622 -0.372349
1016.1328125 1.896737 1.466737 -0.43
1016.79296875 2.01497 1.49497 -0.52
1017.4375 1.993933 1.648949 -0.344984
1018.08984375 1.9627530000000002 1.488034 -0.474719
1018.73828125 2.059199 1.025669 -1.03353
1019.3671875 1.949718 1.04 -0.909718
1019.9765625 1.975349 1.136918 -0.838431
1020.5390625 1.8831350000000002 1.058877 -0.824258
1021.09375 1.825004 1.04156 -0.783444
1021.671875 1.7863410000000002 1.024027 -0.762314
1022.3046875 1.790534 1.041772 -0.748762
1022.96484375 1.894148 1.068264 -0.825884
1023.64453125 1.9201709999999999 1.074887 -0.845284
1024.3203125 1.829788 1.028297 -0.801491
1024.98046875 1.844614 1.004895 -0.839719
1025.625 1.8766669999999999 0.99 -0.886667
1026.24609375 1.918565 1.045634 -0.872931
1026.86328125 1.932695 1.108251 -0.824444
1027.4375 1.886016 1.071016 -0.815
1028.01953125 1.9039899999999998 1.07999 -0.824
1028.65625 1.8892769999999999 0.954585 -0.934692
1029.296875 1.956103 1.138391 -0.817712
1029.97265625 1.88973 1.144845 -0.744885
1030.68359375 1.952783 1.079735 -0.873048
1031.37890625 1.9609969999999999 1.116438 -0.844559
1032.05078125 1.9427379999999999 0.958934 -0.983804
1032.66796875 2.028966 1.158966 -0.87
1033.33203125 2.068696 1.168696 -0.9
1034.0078125 1.9935429999999998 1.123667 -0.869876
1034.703125 1.9799120000000001 1.124918 -0.854994
1035.41015625 1.9170599999999998 1.079589 -0.837471
1036.11328125 1.833415 1.045454 -0.787961
1036.7734375 1.757236 0.849883 -0.907353
1037.390625 1.806225 0.847967 -0.958258
1037.99609375 1.92318 1.043234 -0.879946
1038.5859375 1.999863 1.109877 -0.889986
1039.16015625 1.9802549999999999 1.072442 -0.907813
1039.73828125 2.0830070000000003 1.12948 -0.953527
1040.3515625 1.98912 1.204197 -0.784923
1041.00390625 1.874338 1.18599 -0.688348
1041.69140625 1.948562 1.173562 -0.775
1042.3515625 1.967621 1.236641 -0.73098
1043.01953125 2.089215 1.304757 -0.784458
1043.70703125 1.9972340000000002 1.072103 -0.925131
1044.34765625 1.9731720000000001 1.193453 -0.779719
1044.95703125 1.8694670000000002 1.145496 -0.723971
1045.56640625 1.892177 1.230688 -0.661489
1046.171875 1.912693 1.211079 -0.701614
1046.78515625 1.9769959999999998 1.208222 -0.768774
1047.41015625 1.958081 1.053478 -0.904603
1048.05078125 1.937818 1.069901 -0.867917
1048.68359375 1.873364 1.003364 -0.87
1049.328125 1.922341 1.145329 -0.777012
1049.97265625 1.8756559999999998 1.263105 -0.612551
1050.6171875 1.8681130000000001 1.188113 -0.68
1051.26171875 1.894311 1.19982 -0.694491
1051.88671875 1.8716979999999999 1.156909 -0.714789
1052.5234375 1.9478369999999998 1.201155 -0.746682
1053.16015625 1.9672 1.2822 -0.685
1053.828125 1.9231150000000001 1.208115 -0.715
1054.5234375 1.947044 1.26779 -0.679254
1055.1875 1.888914 1.227339 -0.661575
1055.8515625 1.935603 1.262405 -0.673198
1056.48828125 1.950408 1.260747 -0.689661
1057.1015625 1.9164189999999999 1.087756 -0.828663
1057.7109375 1.914754 1.16476 -0.749994
1058.31640625 2.00359 1.26359 -0.74
1058.94921875 1.947754 1.292584 -0.65517
1059.6171875 1.956625 1.223953 -0.732672
1060.2578125 1.90511 1.091396 -0.813714
1060.890625 1.864834 1.268313 -0.596521
1061.52734375 1.877616 1.254108 -0.623508
1062.16015625 1.9117570000000002 1.217329 -0.694428
1062.76953125 1.8847639999999999 1.149865 -0.734899
1063.35546875 1.9291459999999998 1.314995 -0.614151
1063.9453125 1.9271310000000001 1.327768 -0.599363
1064.56640625 1.998904 1.32811 -0.670794
1065.20703125 1.8826619999999998 1.184705 -0.697957
1065.84765625 1.9723300000000001 1.187353 -0.784977
1066.5078125 2.0503869999999997 1.233866 -0.816521
1067.1875 2.036954 1.265465 -0.771489
1067.84765625 2.088093 1.356033 -0.73206
1068.515625 2.0520579999999997 1.288813 -0.763245
1069.171875 1.946589 1.278934 -0.667655
1069.80078125 1.849668 1.184668 -0.665
1070.40625 1.776541 1.121541 -0.655
1071.00390625 1.848957 1.099055 -0.749902
1071.609375 1.90094 1.077695 -0.823245
1072.1953125 1.8560250000000003 1.08248 -0.773545
1072.7890625 1.949071 1.179081 -0.76999
1073.4140625 1.905695 1.173727 -0.731968
1074.03125 1.869706 1.034167 -0.835539
1074.6484375 1.880895 0.980963 -0.899932
1075.28515625 2.021641 1.186641 -0.835
1075.91796875 2.046256 1.236569 -0.809687
1076.55859375 1.895124 1.021047 -0.874077
1077.19140625 1.8964699999999999 1.04 -0.85647
1077.84375 1.9854370000000001 1.338082 -0.647355
1078.5234375 1.9658090000000001 1.326101 -0.639708
1079.19140625 1.98699 1.283889 -0.703101
1079.828125 1.879055 1.036047 -0.843008
1080.4453125 1.893009 1.158871 -0.734138
1081.05078125 1.929989 1.161775 -0.768214
1081.66015625 1.916297 1.091624 -0.824673
1082.2734375 1.873035 0.952539 -0.920496
1082.89453125 1.855445 1.079041 -0.776404
1083.54296875 1.886265 1.136379 -0.749886
1084.1953125 1.843566 1.080312 -0.763254
1084.8359375 1.847848 0.998298 -0.84955
1085.4765625 1.8565230000000001 1.149423 -0.7071
1086.1171875 1.888544 1.294819 -0.593725
1086.734375 1.8708269999999998 1.259237 -0.61159
1087.35546875 1.8905720000000001 1.140595 -0.749977
1087.95703125 1.9152269999999998 1.215299 -0.699928
1088.578125 1.92779 1.227794 -0.699996
1089.2265625 1.8547699999999998 1.086512 -0.768258
1089.859375 1.871414 0.951977 -0.919437
1090.515625 1.9656280000000002 1.095944 -0.869684
1091.14453125 1.967349 1.136329 -0.83102
1091.7421875 1.9526629999999998 1.212035 -0.740628
1092.33203125 1.857143 1.097143 -0.76
1092.92578125 1.871264 1.066264 -0.805
1093.5234375 1.842425 1.017087 -0.825338
1094.140625 1.8684409999999998 1.238511 -0.62993
1094.7734375 1.8620670000000001 1.221864 -0.640203
1095.42578125 1.822769 1.058088 -0.764681
1096.0625 1.8640150000000002 1.075735 -0.78828
1096.734375 1.898067 1.098547 -0.79952
1097.4296875 1.897988 1.017034 -0.880954
1098.09765625 1.880716 0.871901 -1.008815
1098.74609375 1.864438 1.074438 -0.79
1099.4296875 1.9114360000000001 1.138519 -0.772917
1100.1328125 1.8227509999999998 1.37817 -0.444581
1100.8203125 1.7311590000000001 1.188379 -0.54278
1101.515625 1.815706 1.29594 -0.519766
1102.234375 1.747379 1.340474 -0.406905
1102.92578125 1.896886 1.487365 -0.409521
1103.65625 1.920769 1.550769 -0.37
1104.34375 1.868049 1.509212 -0.358837
1105.0234375 1.752789 1.39375 -0.359039
1105.66796875 1.8550969999999998 1.378842 -0.476255
1106.30859375 1.934296 1.634296 -0.3
1106.99609375 1.8643830000000001 1.580648 -0.283735
1107.7421875 1.87865 1.533726 -0.344924
1108.48046875 1.849956 1.544956 -0.305
1109.17578125 1.7677969999999998 1.372369 -0.395428
1109.84375 1.88892 1.625951 -0.262969
1110.5234375 1.9162009999999998 1.598024 -0.318177
1111.1796875 1.708134 1.488134 -0.22
1111.8359375 2.1057040000000002 1.399075 -0.706629
1112.44921875 2.468753 1.518818 -0.949935
1113.07421875 2.180314 2.216459 0.036145
1113.73828125 1.8885740000000002 2.247151 0.358577
1114.43359375 1.903662 1.929344 0.025682
1115.125 2.1218000000000004 1.87 -0.2518
1115.83984375 1.949543 1.749584 -0.199959
1116.53125 1.895586 1.572973 -0.322613
1117.1875 1.9774829999999999 1.34971 -0.627773
1117.82421875 2.109722 1.494852 -0.61487
1118.484375 2.070548 1.626085 -0.444463
1119.15234375 2.144659 1.614964 -0.529695
1119.83203125 2.0722490000000002 1.592195 -0.480054
1120.484375 2.103523 1.598523 -0.505
1121.15234375 2.104538 1.909538 -0.195
1121.83984375 2.2251 1.948745 -0.276355
1122.5078125 2.111837 1.881897 -0.22994
1123.16015625 2.136054 1.926109 -0.209945
1123.82421875 2.060016 1.870086 -0.18993
1124.47265625 2.157375 1.561013 -0.596362
1125.109375 2.395367 1.479628 -0.915739
1125.77734375 2.519055 0.694167 -1.824888
1126.4609375 2.369155 1.885111 -0.484044
1127.1328125 2.280531 2.041483 -0.239048
1127.78515625 2.358635 2.2605 -0.098135
1128.41796875 2.27326 2.281289 0.008029
1129.04296875 2.199694 2.024722 -0.174972
1129.67578125 2.269384 1.954384 -0.315
1130.3203125 2.330425 2.187852 -0.142573
1131.00390625 2.101845 2.091845 -0.01
1131.7109375 2.106887 1.883913 -0.222974
1132.390625 2.225942 1.88121 -0.344732
1133.078125 2.220454 1.937366 -0.283088
1133.76171875 2.218819 1.939111 -0.279708
1134.45703125 2.248897 1.914406 -0.334491
1135.12109375 2.081918 1.78207 -0.299848
1135.765625 2.102937 1.931062 -0.171875
1136.38671875 2.071876 1.75536 -0.316516
1137.02734375 2.133667 1.616422 -0.517245
1137.69140625 2.150778 1.76702 -0.383758
1138.33984375 2.103528 1.718755 -0.384773
1139.01171875 2.084038 1.554194 -0.529844
1139.671875 2.212345 1.567408 -0.644937
1140.3046875 2.1391660000000003 1.679172 -0.459994
1140.95703125 2.176914 1.635044 -0.54187
1141.609375 2.196408 1.558106 -0.638302
1142.2734375 2.1409000000000002 1.700536 -0.440364
1142.98046875 2.011675 1.381675 -0.63
1143.68359375 2.012887 1.273541 -0.739346
1144.36328125 2.156797 1.424489 -0.732308
1145.04296875 2.11143 1.60151 -0.50992
1145.70703125 2.065856 1.525862 -0.539994
1146.33984375 2.094319 1.41679 -0.677529
1146.96484375 2.065566 1.702179 -0.363387
1147.6015625 2.0349950000000003 1.731178 -0.303817
1148.23828125 2.08827 1.618794 -0.469476
1148.8828125 2.103651 1.579897 -0.523754
1149.55078125 2.132537 1.833697 -0.29884
1150.26171875 2.231963 1.849524 -0.382439
1150.984375 2.096054 1.500266 -0.595788
1151.66796875 2.178407 1.690461 -0.487946
1152.32421875 2.021521 1.766521 -0.255
1152.984375 2.040496 1.715293 -0.325203
1153.62890625 2.111752 1.591986 -0.519766
1154.265625 2.098249 1.848249 -0.25
1154.92578125 2.048536 1.823656 -0.22488
1155.6171875 2.012543 1.737286 -0.275257
1156.30078125 2.155654 1.717435 -0.438219
1156.98828125 2.071978 1.879747 -0.192231
1157.66015625 2.076048 1.836245 -0.239803
1158.34765625 2.204221 1.673666 -0.530555
1159.00390625 2.135279 1.787279 -0.348
1159.65625 2.045712 1.800764 -0.244948
1160.30859375 2.072384 1.550868 -0.521516
1160.98828125 2.109673 1.502803 -0.60687
1161.69921875 2.043587 1.605875 -0.437712
1162.40625 2.012041 0.632155 -1.379886
1163.0703125 2.104933 1.361091 -0.743842
1163.7109375 2.0338760000000002 1.809654 -0.224222
1164.328125 1.9217870000000001 1.871801 -0.049986
1164.91796875 1.8884589999999999 1.301594 -0.586865
1165.5078125 2.029551 1.27434 -0.755211
1166.125 2.007143 1.19 -0.817143
1166.74609375 2.020354 1.115354 -0.905
1167.38671875 2.002386 1.021351 -0.981035
1168.05078125 2.079578 1.275633 -0.803945
1168.7421875 2.01816 1.29316 -0.725
1169.4375 1.9953820000000002 1.240382 -0.755
1170.0859375 1.9997179999999999 1.219874 -0.779844
1170.7421875 2.245793 1.026178 -1.219615
1171.38671875 1.9793379999999998 1.368644 -0.610694
1172.0 1.874867 1.44 -0.434867
1172.609375 1.929165 1.394077 -0.535088
1173.23046875 2.015379 1.531121 -0.484258
1173.8828125 2.066247 1.567679 -0.498568
1174.546875 1.960399 1.385399 -0.575
1175.19140625 1.993024 1.29331 -0.699714
1175.82421875 1.982445 1.466984 -0.515461
1176.44140625 1.999467 1.464467 -0.535
1177.06640625 1.921004 1.188431 -0.732573
1177.69140625 1.986278 1.381935 -0.604343
1178.3515625 1.986883 1.456883 -0.53
1179.0234375 1.9520689999999998 1.322371 -0.629698
1179.68359375 1.959954 1.239954 -0.72
1180.375 2.011052 1.48 -0.531052
1181.05078125 1.929789 1.395 -0.534789
1181.734375 1.98739 1.238506 -0.748884
1182.390625 1.9726380000000001 1.258682 -0.713956
1183.01953125 1.954673 1.33992 -0.614753
1183.640625 1.907171 1.272171 -0.635
1184.25390625 1.890006 1.035217 -0.854789
1184.88671875 1.88301 1.193276 -0.689734
1185.54296875 1.908688 1.318733 -0.589955
1186.25390625 1.9595860000000003 1.305168 -0.654418
1186.94140625 1.929095 1.144366 -0.784729
1187.625 1.9733330000000002 1.34 -0.633333
1188.296875 1.932559 1.321473 -0.611086
1188.9609375 2.010865 1.219589 -0.791276
1189.609375 2.02537 1.176045 -0.849325
1190.26953125 1.97484 1.37134 -0.6035
1190.92578125 1.9994239999999999 1.334717 -0.664707
1191.6015625 1.9723130000000002 1.245891 -0.726422
1192.2734375 1.978916 1.464348 -0.514568
1192.953125 1.944189 1.379219 -0.56497
1193.64453125 2.023136 1.239679 -0.783457
1194.31640625 2.094595 1.209595 -0.885
1194.9921875 2.064083 1.321848 -0.742235
1195.66015625 2.0842910000000003 1.305584 -0.778707
1196.328125 2.043863 1.174742 -0.869121
1196.98828125 2.028281 1.2506 -0.777681
1197.69921875 2.031027 1.266876 -0.764151
1198.4140625 2.093664 1.28815 -0.805514
1199.09765625 2.091742 1.244636 -0.847106
1199.734375 2.057417 1.302417 -0.755
1200.34765625 2.13136 1.451608 -0.679752
1200.9375 2.009839 1.429839 -0.58
1201.53515625 2.017969 1.269053 -0.748916
1202.15625 1.986567 1.078499 -0.908068
1202.80078125 2.055768 1.40158 -0.654188
1203.48046875 2.034121 1.333594 -0.700527
1204.1875 2.049559 1.174559 -0.875
1204.8515625 2.040743 1.260229 -0.780514
1205.5390625 2.017883 1.349109 -0.668774
1206.21484375 2.0585999999999998 1.248811 -0.809789
1206.828125 2.01154 1.108676 -0.902864
1207.4296875 2.040101 1.311798 -0.728303
1208.0390625 1.96127 1.319438 -0.641832
1208.6796875 2.0367290000000002 1.324854 -0.711875
1209.328125 2.002422 1.269741 -0.732681
1209.984375 2.00031 1.368422 -0.631888
1210.6640625 2.004741 1.322666 -0.682075
1211.37890625 2.020409 1.245656 -0.774753
1212.03125 1.9623249999999999 1.128877 -0.833448
1212.67578125 1.998346 1.383346 -0.615
1213.33203125 2.070844 1.455844 -0.615
1214.01171875 2.026187 1.308013 -0.718174
1214.6796875 1.9987 1.360055 -0.638645
1215.3828125 2.084394 1.496968 -0.587426
1216.09375 2.046746 1.269316 -0.77743
1216.79296875 2.0025969999999997 1.20194 -0.800657
1217.50390625 2.066572 1.486572 -0.58
1218.19921875 2.0743110000000002 1.380095 -0.694216
1218.86328125 2.037942 1.284522 -0.75342
1219.515625 2.094284 1.39 -0.704284
1220.1640625 2.0862670000000003 1.398881 -0.687386
1220.8203125 2.0825750000000003 1.272575 -0.81
1221.484375 2.014786 1.131528 -0.883258
1222.19921875 2.097721 1.364711 -0.73301
1222.921875 2.103068 1.359627 -0.743441
1223.625 2.048437 1.17 -0.878437
1224.26953125 2.044895 1.374995 -0.6699
1224.9375 2.071975 1.398045 -0.67393
1225.6015625 2.038809 1.266264 -0.772545
1226.24609375 2.04299 1.218045 -0.824945
1226.91015625 2.0419739999999997 1.383306 -0.658668
1227.625 2.000784 1.345 -0.655784
1228.30859375 1.960866 1.125866 -0.835
1228.984375 2.013183 1.232715 -0.780468
1229.6796875 2.037581 1.36937 -0.668211
1230.35546875 2.0679879999999997 1.25484 -0.813148
1231.00390625 1.978764 1.079389 -0.899375
1231.6484375 2.040705 1.365909 -0.674796
1232.296875 2.0846080000000002 1.406037 -0.678571
1232.984375 2.040586 1.197218 -0.843368
1233.67578125 1.999487 1.145685 -0.853802
1234.375 2.0250000000000004 1.35 -0.675
1235.09375 2.075468 1.348291 -0.727177
1235.80078125 2.028686 1.151784 -0.876902
1236.45703125 2.0212779999999997 1.261642 -0.759636
1237.09375 2.06256 1.394219 -0.668341
1237.71875 2.02668 1.287534 -0.739146
1238.34765625 1.995967 1.212666 -0.783301
1238.9609375 1.997913 1.209693 -0.78822
1239.58984375 1.936463 0.989557 -0.946906
1240.2109375 1.9282469999999998 1.108267 -0.81998
1240.859375 2.041806 1.357624 -0.684182
1241.5390625 2.01921 1.30922 -0.70999
1242.171875 2.020205 1.146596 -0.873609
1242.7890625 1.953219 1.29 -0.663219
1243.43359375 2.024151 1.391932 -0.632219
1244.0625 2.0423999999999998 1.3174 -0.725
1244.69921875 1.947419 1.098617 -0.848802
1245.34765625 2.050507 1.440593 -0.609914
1246.0390625 2.044905 1.509934 -0.534971
1246.75390625 2.010716 1.460716 -0.55
1247.42578125 1.9845300000000001 1.270045 -0.714485
1248.08984375 2.0587400000000002 1.53735 -0.52139
1248.74609375 2.102119 1.582119 -0.52
1249.4140625 2.093686 1.424912 -0.668774
1250.046875 2.0347850000000003 1.272226 -0.762559
1250.69921875 2.053886 1.529664 -0.524222
1251.37890625 2.028382 1.526872 -0.50151
1252.046875 2.079954 1.37709 -0.702864
1252.71875 2.0078690000000003 1.358807 -0.649062
1253.38671875 2.106312 1.556372 -0.54994
1254.0546875 2.056871 1.421551 -0.63532
1254.71875 2.0177 1.301538 -0.716162
1255.36328125 2.108987 1.541225 -0.567762
1256.02734375 2.009342 1.481916 -0.527426
1256.67578125 1.957774 1.237774 -0.72
1257.33984375 1.998304 1.298324 -0.69998
1258.00390625 2.054466 1.500374 -0.554092
1258.69140625 2.014277 1.409524 -0.604753
1259.359375 1.916133 1.193656 -0.722477
1259.9921875 1.985353 1.366302 -0.619051
1260.6328125 1.9934060000000002 1.46846 -0.524946
1261.25390625 2.014227 1.356102 -0.658125
1261.89453125 2.051567 1.269978 -0.781589
1262.55859375 2.069852 1.484852 -0.585
1263.23828125 2.07865 1.473877 -0.604773
1263.9140625 2.072086 1.244718 -0.827368
1264.58984375 2.043077 1.338077 -0.705
1265.28125 2.06589 1.43934 -0.62655
1265.953125 2.030686 1.310686 -0.72
1266.60546875 1.999628 1.149796 -0.849832
1267.25 2.055509 1.38 -0.675509
1267.8828125 2.071147 1.367129 -0.704018
1268.53515625 2.015307 1.208588 -0.806719
1269.17578125 1.9635150000000001 1.214634 -0.748881
1269.8671875 2.046127 1.373654 -0.672473
1270.55859375 1.99088 1.269906 -0.720974
1271.23046875 2.026176 1.199894 -0.826282
1271.890625 1.9958589999999998 1.30157 -0.694289
1272.5546875 2.010801 1.311165 -0.699636
1273.203125 2.049756 1.170037 -0.879719
1273.8203125 2.016666 1.172655 -0.844011
1274.4765625 2.021815 1.29691 -0.724905
1275.1484375 2.022058 1.20837 -0.813688
1275.80859375 2.003909 1.073909 -0.93
1276.4765625 1.992766 1.162795 -0.829971
1277.13671875 2.0118590000000003 1.176859 -0.835
1277.80078125 1.9970879999999998 1.022274 -0.974814
1278.4453125 2.082595 0.987595 -1.095
1279.0625 2.083045 1.128045 -0.955
1279.69140625 1.998022 1.197763 -0.800259
1280.34375 1.983692 1.16656 -0.817132
1281.01171875 1.903504 0.903599 -0.999905
1281.671875 1.8907880000000001 1.013311 -0.877477
1282.34375 1.959215 1.194215 -0.765
1283.01953125 1.935 1.075 -0.86
1283.6640625 1.972305 0.924834 -1.047471
1284.296875 1.9453960000000001 1.135826 -0.80957
1284.921875 2.0030840000000003 1.267322 -0.735762
1285.5546875 1.966403 1.051626 -0.914777
1286.19140625 1.966887 1.004366 -0.962521
1286.83984375 1.957637 1.192651 -0.764986
1287.5234375 2.0100499999999997 1.231682 -0.778368
1288.1953125 1.968383 0.983961 -0.984422
1288.87890625 1.98356 1.14916 -0.8344
1289.5625 2.0 1.255 -0.745
1290.2421875 2.010532 1.168265 -0.842267
1290.8828125 2.04934 1.04554 -1.0038
1291.51171875 2.021467 1.286467 -0.735
1292.15625 2.07625 1.347142 -0.729108
1292.80859375 2.0658640000000004 1.130864 -0.935
1293.50390625 2.020047 1.145131 -0.874916
1294.23046875 2.112547 1.289955 -0.822592
1294.93359375 2.0884359999999997 1.263436 -0.825
1295.60546875 1.986924 1.108213 -0.878711
1296.24609375 2.000383 1.315494 -0.684889
1296.87890625 2.042325 1.402907 -0.639418
1297.50390625 2.035407 1.300407 -0.735
1298.1328125 2.09016 1.245625 -0.844535
1298.7734375 2.025742 1.41643 -0.609312
1299.4375 2.107521 1.502556 -0.604965
1300.14453125 2.079717 1.409743 -0.669974
1300.82421875 2.077565 1.399811 -0.677754
1301.51953125 2.133455 1.584943 -0.548512
1302.21484375 2.082779 1.543377 -0.539402
1302.88671875 2.0312989999999997 1.333847 -0.697452
1303.52734375 2.054674 1.415351 -0.639323
1304.1796875 2.038675 1.46 -0.578675
1304.84765625 2.0261009999999997 1.321451 -0.70465
1305.515625 1.996903 1.200891 -0.796012
1306.19921875 2.007981 1.388923 -0.619058
1306.90625 2.050239 1.428957 -0.621282
1307.60546875 2.036205 1.231635 -0.80457
1308.2734375 2.097457 1.257457 -0.84
1308.91796875 2.103261 1.427209 -0.676052
1309.58203125 2.083746 1.383795 -0.699951
1310.26953125 2.033957 1.197945 -0.836012
1310.9453125 2.0370850000000003 1.402627 -0.634458
1311.640625 2.015874 1.480874 -0.535
1312.36328125 2.071509 1.38209 -0.689419
1313.05859375 2.04702 1.417943 -0.629077
1313.7265625 2.027286 1.571431 -0.455855
1314.40625 2.041854 1.497531 -0.544323
1315.078125 1.943654 1.335894 -0.60776
1315.71484375 2.013263 1.465018 -0.548245
1316.37109375 2.03879 1.605304 -0.433486
1317.05078125 2.012383 1.427669 -0.584714
1317.7421875 1.999669 1.354122 -0.645547
1318.4296875 1.9446530000000002 1.522245 -0.422408
1319.12890625 2.013819 1.531846 -0.481973
1319.80859375 1.978948 1.333948 -0.645
1320.47265625 2.028369 1.413369 -0.615
1321.15625 1.972223 1.457422 -0.514801
1321.83203125 1.89711 1.187135 -0.709975
1322.5 1.96 1.205 -0.755
1323.1875 2.027291 1.435747 -0.591544
1323.89453125 2.019342 1.389957 -0.629385
1324.59765625 2.001733 1.192074 -0.809659
1325.28125 2.010486 1.272807 -0.737679
1325.96875 2.042155 1.472155 -0.57
1326.64453125 2.004708 1.304708 -0.7
1327.28515625 2.006923 1.164387 -0.842536
1327.91015625 1.982856 1.365722 -0.617134
1328.57421875 2.008668 1.512381 -0.496287
1329.27734375 1.972368 1.357418 -0.61495
1329.9609375 2.019489 1.39468 -0.624809
1330.6640625 2.063319 1.568325 -0.494994
1331.37109375 2.0595429999999997 1.419606 -0.639937
1332.0546875 2.039645 1.215139 -0.824506
1332.69140625 2.059129 1.244188 -0.814941
1333.3359375 2.0524370000000003 1.331501 -0.720936
1334.00390625 2.0126399999999998 1.18264 -0.83
1334.6796875 2.000584 1.120584 -0.88
1335.37890625 2.073947 1.178947 -0.895
1336.0859375 2.084162 1.324162 -0.76
1336.796875 1.95329 0.774286 -1.179004
1337.484375 1.931736 1.106983 -0.824753
1338.1484375 2.094921 1.739015 -0.355906
1338.828125 2.056951 1.745664 -0.311287
1339.515625 2.050205 1.675357 -0.374848
1340.19140625 2.066128 1.61828 -0.447848
1340.859375 1.998364 1.379439 -0.618925
1341.5546875 2.129478 1.480115 -0.649363
1342.2890625 2.032647 1.464639 -0.568008
1343.01171875 1.9224800000000002 1.162573 -0.759907
1343.70703125 1.9677740000000001 1.022806 -0.944968
1344.359375 1.9505780000000001 1.29594 -0.654638
1345.02734375 1.957892 1.259418 -0.698474
1345.6953125 1.9900120000000001 1.065012 -0.925
1346.35546875 2.045224 1.039833 -1.005391
1347.05078125 2.026178 1.326806 -0.699372
1347.8046875 1.925351 1.615437 -0.309914
1348.56640625 1.978561 1.538561 -0.44
1349.27734375 2.00428 1.74 -0.26428
1350.01171875 1.931758 1.831758 -0.1
1350.734375 1.9167800000000002 1.69178 -0.225
1351.4140625 1.937526 1.589166 -0.34836
1352.07421875 1.962713 1.752713 -0.21
1352.76953125 1.897615 1.662078 -0.235537
1353.5078125 2.012725 1.518676 -0.494049
1354.22265625 2.057661 1.492671 -0.56499
1354.9375 2.014638 1.671639 -0.342999
1355.65625 1.9955319999999999 1.713784 -0.281748
1356.35546875 1.934989 1.654989 -0.28
1357.01953125 1.929319 1.649625 -0.279694
1357.703125 1.9236360000000001 1.778672 -0.144964
1358.421875 1.8280480000000001 1.64335 -0.184698
1359.13671875 1.863866 1.558866 -0.305
1359.83203125 1.785 1.4 -0.385
1360.5078125 2.1989710000000002 0.794621 -1.40435
1361.19140625 2.1706820000000002 1.246737 -0.923945
1361.87890625 2.122105 1.487476 -0.634629
1362.5703125 2.097629 1.61052 -0.487109
1363.234375 2.028825 1.758634 -0.270191
1363.91015625 2.1363469999999998 2.006347 -0.13
1364.63671875 2.1921809999999997 2.128719 -0.063462
1365.37109375 2.003821 1.928821 -0.075
1366.1015625 2.116709 2.11206 -0.004649
1366.859375 2.106669 2.11595 0.009281
1367.56640625 2.018176 1.853176 -0.165
1368.22265625 2.012981 1.602981 -0.41
1368.87109375 2.095239 1.625627 -0.469612
1369.5234375 2.068028 1.418365 -0.649663
1370.16796875 1.951355 1.32181 -0.629545
1370.828125 1.9960740000000001 0.986074 -1.01
1371.51953125 2.133933 1.559812 -0.574121
1372.2265625 2.033926 1.538953 -0.494973
1372.92578125 1.917309 1.384663 -0.532646
1373.6171875 1.9803140000000001 1.495516 -0.484798
1374.29296875 1.959811 1.711527 -0.248284
1374.93359375 2.117788 1.85926 -0.258528
1375.56640625 2.1191519999999997 1.764152 -0.355
1376.18359375 2.159279 1.884144 -0.275135
1376.8125 1.9790860000000001 1.86 -0.119086
1377.4921875 2.081909 1.818197 -0.263712
1378.171875 1.9262489999999999 1.551402 -0.374847
1378.8359375 2.054577 1.633808 -0.420769
1379.5 1.949437 1.62 -0.329437
1380.14453125 1.8866319999999999 1.564636 -0.321996
1380.76171875 1.895931 1.36806 -0.527871
1381.37890625 1.920388 1.468787 -0.451601
1382.0234375 1.991927 1.607456 -0.384471
1382.69140625 2.042981 1.639735 -0.403246
1383.37890625 1.99192 1.559153 -0.432767
1384.046875 1.990769 1.674885 -0.315884
1384.734375 1.911894 1.635 -0.276894
1385.4375 1.8997899999999999 1.604947 -0.294843
1386.1015625 1.9989339999999998 1.473871 -0.525063
1386.74609375 1.946231 1.518723 -0.427508
1387.40234375 2.158589 1.684577 -0.474012
1388.08203125 1.96101 1.501118 -0.459892
1388.72265625 2.029991 1.534294 -0.495697
1389.40234375 2.0019780000000003 1.712242 -0.289736
1390.13671875 1.990645 1.883502 -0.107143
1390.84765625 1.925824 1.862688 -0.063136
1391.54296875 1.9020609999999998 1.949855 0.047794
1392.2265625 1.781457 1.845286 0.063829
1392.8984375 1.743994 1.559048 -0.184946
1393.546875 1.8860190000000001 1.49953 -0.386489
1394.20703125 1.970473 1.527323 -0.44315
1394.90234375 1.825587 1.559754 -0.265833
1395.6171875 1.863882 1.378887 -0.484995
1396.328125 2.108756 1.128874 -0.979882
1397.0078125 2.402741 1.210434 -1.192307
1397.73828125 2.298258 1.709632 -0.588626
1398.47265625 2.104048 1.411188 -0.69286
1399.17578125 2.490267 2.030071 -0.460196
1399.8671875 1.6608550000000002 1.868521 0.207666
1400.51171875 1.7694239999999999 1.454424 -0.315
1401.15234375 1.8527259999999999 1.622782 -0.229944
1401.8125 1.9061029999999999 1.57872 -0.327383
1402.45703125 1.978254 1.133268 -0.844986
1403.08984375 2.003507 1.089337 -0.91417
1403.70703125 1.970101 1.245101 -0.725
1404.33203125 1.947119 1.219025 -0.728094
1404.94921875 1.974883 1.181654 -0.793229
1405.56640625 1.912652 1.065875 -0.846777
1406.1953125 2.0389 1.248159 -0.790741
1406.84375 2.1214589999999998 1.091344 -1.030115
1407.47265625 2.00706 1.067706 -0.939354
1408.12890625 2.093083 1.256816 -0.836267
1408.82421875 2.052801 1.283134 -0.769667
1409.5 1.9625 1.195 -0.7675
1410.1875 1.947417 1.207417 -0.74
1410.8515625 1.794314 1.0944 -0.699914
1411.48046875 1.8440400000000001 1.114962 -0.729078
1412.10546875 1.813544 1.019806 -0.793738
1412.71875 1.783552 0.734531 -1.049021
1413.34765625 1.914546 1.023436 -0.89111
1413.984375 1.8934990000000003 1.091908 -0.801591
1414.59375 1.9278399999999998 1.098121 -0.829719
1415.19140625 1.994262 1.143308 -0.850954
1415.7734375 1.9323139999999999 1.163012 -0.769302
1416.35546875 1.882933 1.002933 -0.88
1416.9453125 1.966278 1.151278 -0.815
1417.5390625 2.033023 1.3791 -0.653923
1418.19921875 1.9636200000000001 1.27447 -0.68915
1418.88671875 1.9820229999999999 1.0825 -0.899523
1419.55078125 1.9585839999999999 1.194443 -0.764141
1420.2265625 2.033939 1.359015 -0.674924
1420.94140625 1.9904730000000002 1.259953 -0.73052
1421.65625 1.890804 1.027445 -0.863359
1422.3046875 1.9488670000000001 1.192646 -0.756221
1422.94921875 2.032874 1.350036 -0.682838
1423.58203125 1.967535 1.310113 -0.657422
1424.22265625 1.9253330000000002 1.306958 -0.618375
1424.8828125 1.949335 1.16439 -0.784945
1425.53125 1.891909 1.146909 -0.745
1426.19140625 2.034722 1.334722 -0.7
1426.87890625 2.003195 1.323195 -0.68
1427.578125 1.982024 1.238966 -0.743058
1428.2578125 1.9487229999999998 1.10892 -0.839803
1428.890625 1.96604 1.241889 -0.724151
1429.55859375 1.995905 1.297804 -0.698101
1430.2421875 1.970287 1.284565 -0.685722
1430.95703125 1.9896989999999999 1.309705 -0.679994
1431.640625 1.982214 1.310417 -0.671797
1432.36328125 2.002188 1.382188 -0.62
1433.0859375 2.009864 1.259412 -0.750452
1433.78515625 1.939809 1.109809 -0.83
1434.44140625 1.9778380000000002 1.133299 -0.844539
1435.09375 1.986192 1.319201 -0.666991
1435.7578125 2.012721 1.238205 -0.774516
1436.4140625 1.9603760000000001 1.053608 -0.906768
1437.09375 1.9293500000000001 1.049643 -0.879707
1437.82421875 1.9865380000000001 1.228093 -0.758445
1438.56640625 1.946475 1.174067 -0.772408
1439.3046875 1.941363 1.010604 -0.930759
1440.00390625 1.959587 1.125384 -0.834203
1440.6953125 1.984697 1.22497 -0.759727
1441.3828125 1.9377710000000001 1.157855 -0.779916
1442.0546875 1.900472 1.016632 -0.88384
1442.73046875 1.894159 1.255858 -0.638301
1443.4296875 1.809811 1.164554 -0.645257
1444.15625 1.9515250000000002 1.222379 -0.729146
1444.84765625 1.892064 1.12465 -0.767414
1445.5390625 1.9665400000000002 1.318813 -0.647727
1446.24609375 2.036623 1.382404 -0.654219
1446.921875 2.001925 1.289061 -0.712864
1447.546875 1.949032 1.197756 -0.751276
1448.19921875 1.9693489999999998 1.315041 -0.654308
1448.875 1.9685419999999998 1.275 -0.693542
1449.578125 1.9303370000000002 1.134829 -0.795508
1450.3046875 2.015604 1.218396 -0.797208
1451.0703125 2.0721879999999997 1.344385 -0.727803
1451.80078125 2.27036 1.139065 -1.131295
1452.47265625 1.9985410000000001 1.055338 -0.943203
1453.1328125 1.949621 1.190851 -0.75877
1453.78515625 1.911416 1.02644 -0.884976
1454.421875 1.969038 1.201092 -0.767946
1455.06640625 1.989655 1.344902 -0.644753
1455.71875 1.99635 1.27707 -0.71928
1456.38671875 1.95521 1.10021 -0.855
1457.0703125 2.07034 1.31534 -0.755
1457.7421875 1.9991499999999998 1.385425 -0.613725
1458.421875 2.059844 1.19209 -0.867754
1459.0859375 1.938601 1.164333 -0.774268
1459.7109375 2.01678 1.41678 -0.6
1460.37890625 2.0279920000000002 1.357992 -0.67
1461.05859375 1.978462 1.137942 -0.84052
1461.75390625 1.974039 1.176587 -0.797452
1462.484375 2.053919 1.273545 -0.780374
1463.2109375 2.083075 1.224107 -0.858968
1463.9140625 2.024141 1.039297 -0.984844
1464.58203125 2.0700000000000003 1.155 -0.915
1465.2890625 2.175019 1.158773 -1.016246
1466.0390625 2.043793 1.534887 -0.508906
1466.81640625 1.983219 1.603219 -0.38
1467.59765625 1.835284 1.460313 -0.374971
1468.34375 1.831048 1.326768 -0.50428
1469.03125 1.844676 1.519676 -0.325
1469.73828125 1.845 1.5 -0.345
1470.4296875 1.8457379999999999 1.326652 -0.519086
1471.08203125 1.8272849999999998 1.242343 -0.584942
1471.71875 1.925084 1.480984 -0.4441
1472.421875 1.9281359999999999 1.456162 -0.471974
1473.21484375 1.992462 1.451212 -0.54125
1473.984375 1.943934 1.373934 -0.57
1474.73046875 2.015295 1.573646 -0.441649
1475.51171875 1.9926080000000002 1.642608 -0.35
1476.25390625 1.891133 1.414155 -0.476978
1476.92578125 1.915612 1.302448 -0.613164
1477.58984375 2.1560699999999997 1.388504 -0.767566
1478.265625 2.081285 1.593276 -0.488009
1479.08203125 2.104549 1.726448 -0.378101
1480.01953125 2.087027 1.671334 -0.415693
1481.00390625 2.091519 1.722233 -0.369286
1481.92578125 1.928859 1.66914 -0.259719
1482.76953125 1.870642 1.409346 -0.461296
1483.51953125 1.8298489999999998 1.299896 -0.529953
1484.20703125 1.893832 1.537329 -0.356503
1484.890625 1.807959 1.337903 -0.470056
1485.58203125 1.8360409999999998 1.275712 -0.560329
1486.26953125 1.983137 1.529804 -0.453333
1486.96484375 2.011653 1.5729 -0.438753
1487.67578125 1.994655 1.536875 -0.45778
1488.375 1.94 1.43 -0.51
1489.109375 2.044623 1.684974 -0.359649
1489.8671875 2.010233 1.581589 -0.428644
1490.609375 1.868318 1.369316 -0.499002
1491.32421875 1.9416730000000002 1.476344 -0.465329
1492.05859375 1.964795 1.513274 -0.451521
1492.796875 1.960595 1.527609 -0.432986
1493.51953125 1.890219 1.369751 -0.520468
1494.19921875 1.934753 1.580774 -0.353979
1494.875 2.019333 1.73 -0.289333
1495.52734375 1.8757480000000002 1.593015 -0.282733
1496.171875 1.907626 1.40544 -0.502186
1496.8125 1.8829159999999998 1.314134 -0.568782
1497.4296875 1.956544 1.086544 -0.87
1498.08203125 1.9729130000000001 1.292913 -0.68
1498.765625 1.9598940000000002 1.234954 -0.72494
1499.42578125 1.913897 1.149658 -0.764239
1500.05859375 1.892895 1.027136 -0.865759
1500.66015625 1.99189 1.277124 -0.714766
1501.28515625 1.973364 1.228727 -0.744637
1501.91796875 1.903893 1.04895 -0.854943
1502.54296875 1.992228 1.158797 -0.833431
1503.21484375 2.0858119999999998 1.253673 -0.832139
1503.921875 2.008404 1.308482 -0.699922
1504.6328125 1.998288 1.198288 -0.8
1505.30859375 1.9136540000000002 1.013654 -0.9
1505.96484375 1.991804 1.273159 -0.718645
1506.61328125 2.0082839999999997 1.354749 -0.653535
1507.23828125 1.971091 1.276091 -0.695
1507.859375 1.936835 1.112192 -0.824643
1508.484375 1.9794010000000002 1.333517 -0.645884
1509.140625 1.9609480000000001 1.285948 -0.675
1509.86328125 2.043586 1.299746 -0.74384
1510.5625 1.967607 1.179462 -0.788145
1511.234375 1.974465 1.329628 -0.644837
1511.9296875 1.9754779999999998 1.235814 -0.739664
1512.578125 1.9432330000000002 1.212725 -0.730508
1513.203125 1.8844370000000001 1.149437 -0.735
1513.83984375 1.9287070000000002 1.270296 -0.658411
1514.4921875 1.944264 1.239827 -0.704437
1515.14453125 1.9229020000000001 1.109965 -0.812937
1515.8125 1.967348 1.197391 -0.769957
1516.48046875 1.96878 1.229161 -0.739619
1517.1875 1.941576 1.163662 -0.777914
1517.87109375 1.912531 1.055212 -0.857319
1518.5234375 1.964001 1.236931 -0.72707
1519.17578125 1.88965 1.232924 -0.656726
1519.83984375 1.9327990000000002 1.101263 -0.831536
1520.50390625 1.889949 1.120196 -0.769753
1521.1796875 1.9796179999999999 1.393363 -0.586255
1521.87890625 1.903145 1.253273 -0.649872
1522.5859375 1.883259 1.06446 -0.818799
1523.265625 1.9304240000000001 1.230741 -0.699683
1523.93359375 1.994294 1.311002 -0.683292
1524.61328125 1.9689839999999998 1.246953 -0.722031
1525.28125 1.906168 1.161843 -0.744325
1525.98046875 2.015469 1.330589 -0.68488
1526.6953125 1.952347 1.19316 -0.759187
1527.3984375 1.93981 1.154878 -0.784932
1528.12109375 2.004201 1.184201 -0.82
1528.86328125 1.999111 1.125552 -0.873559
1529.58984375 1.9499650000000002 1.0255 -0.924465
1530.26953125 2.060649 1.274852 -0.785797
1530.9375 1.961036 1.326578 -0.634458
1531.5859375 1.939447 1.224511 -0.714936
1532.234375 2.0423530000000003 1.386816 -0.655537
1532.93359375 1.958692 1.342471 -0.616221
1533.6796875 1.971136 1.196383 -0.774753
1534.39453125 2.021848 1.269823 -0.752025
1535.0859375 2.017008 1.429572 -0.587436
1535.765625 1.9700039999999999 1.289574 -0.68043
1536.42578125 1.851497 1.006799 -0.844698
1537.046875 1.9047260000000001 1.312027 -0.592699
1537.68359375 1.9624380000000001 1.36843 -0.594008
1538.35546875 1.994723 1.224886 -0.769837
1539.02734375 1.9423300000000001 1.108899 -0.833431
1539.71875 1.943958 1.270261 -0.673697
1540.42578125 1.9313719999999999 1.25219 -0.679182
1541.1640625 1.9601060000000001 1.164377 -0.795729
1541.859375 1.95444 1.169971 -0.784469
1542.52734375 1.978996 1.3444 -0.634596
1543.18359375 1.913722 1.259852 -0.65387
1543.8671875 1.948717 1.139791 -0.808926
1544.55078125 1.954542 1.244972 -0.70957
1545.24609375 1.965052 1.329515 -0.635537
1545.96875 1.960237 1.295329 -0.664908
1546.66796875 1.852551 1.039748 -0.812803
1547.34765625 1.9168760000000002 1.288971 -0.627905
1548.03515625 1.9190779999999998 1.324625 -0.594453
1548.6953125 1.9207360000000002 1.136497 -0.784239
1549.35546875 1.9115829999999998 1.159886 -0.751697
1550.01171875 1.98074 1.386908 -0.593832
1550.6875 1.889324 1.261803 -0.627521
1551.37890625 1.964544 1.159383 -0.805161
1552.07421875 1.899151 1.193448 -0.705703
1552.78125 1.9690919999999998 1.360088 -0.609004
1553.48046875 2.036847 0.95994 -1.076907
1554.15625 2.331614 1.114046 -1.217568
1554.82421875 2.031274 1.170766 -0.860508
1555.49609375 2.080724 0.996061 -1.084663
1556.14453125 1.9727649999999999 0.89464 -1.078125
1556.8046875 2.018014 1.208934 -0.80908
1557.515625 2.082551 1.445003 -0.637548
1558.22265625 1.98774 1.392171 -0.595569
1558.8984375 2.003306 1.531362 -0.471944
1559.55859375 2.08239 1.727259 -0.355131
1560.19921875 1.999799 1.596073 -0.403726
1560.81640625 1.91487 1.384954 -0.529916
1561.4140625 1.866128 1.278162 -0.587966
1562.0390625 1.946741 1.214336 -0.732405
1562.69140625 2.018401 1.499015 -0.519386
1563.35546875 1.9782640000000002 1.42982 -0.548444
1564.0546875 1.993115 1.357277 -0.635838
1564.74609375 1.9315920000000002 1.204449 -0.727143
1565.453125 1.987663 1.406719 -0.580944
1566.14453125 2.068577 1.474937 -0.59364
1566.828125 1.963178 1.218178 -0.745
1567.46875 1.912135 1.214635 -0.6975
1568.12890625 2.046676 1.307906 -0.73877
1568.81640625 1.9592299999999998 1.324307 -0.634923
1569.5 1.972391 1.085 -0.887391
1570.203125 1.97346 1.263474 -0.709986
1570.91796875 1.959781 1.244808 -0.714973
1571.6171875 1.979336 1.196983 -0.782353
1572.2734375 1.925864 1.050864 -0.875
1572.92578125 1.9834829999999999 1.224114 -0.759369
1573.6171875 1.955048 1.235132 -0.719916
1574.30859375 2.0060000000000002 1.210869 -0.795131
1574.9921875 1.853726 1.240038 -0.613688
1575.6953125 1.965963 1.40336 -0.562603
1576.4296875 1.976157 1.418591 -0.557566
1577.13671875 1.9487519999999998 1.334453 -0.614299
1577.84765625 1.954966 1.474966 -0.48
1578.5546875 1.966337 1.486337 -0.48
1579.24609375 1.982087 1.297286 -0.684801
1579.90234375 1.929114 1.309582 -0.619532
1580.5703125 1.9740320000000002 1.419032 -0.555
1581.28125 1.9648720000000002 1.222212 -0.74266
1582.00390625 1.908647 1.141306 -0.767341
1582.71484375 2.002425 1.402425 -0.6
1583.41796875 1.961866 1.377817 -0.584049
1584.08984375 1.924934 1.192148 -0.732786
1584.74609375 1.9933049999999999 1.323486 -0.669819
1585.39453125 2.008524 1.199914 -0.80861
1586.06640625 2.057623 1.362623 -0.695
1586.79296875 1.98385 1.303874 -0.679976
1587.546875 1.8558489999999999 1.435849 -0.42
1588.26171875 1.86914 1.43914 -0.43
1588.98046875 1.9145079999999999 1.454799 -0.459709
1589.7265625 1.8489659999999999 1.389023 -0.459943
1590.41015625 1.778641 1.003679 -0.774962
1591.05859375 1.997795 1.213779 -0.784016
1591.7109375 1.90431 1.461168 -0.443142
1592.37890625 1.883283 1.463671 -0.419612
1593.0859375 1.859758 1.369766 -0.489992
1593.8046875 1.8218330000000003 1.185191 -0.636642
1594.50390625 1.955218 1.479517 -0.475701
1595.1953125 1.990462 1.580462 -0.41
1595.890625 1.8981599999999998 1.410893 -0.487267
1596.5390625 1.9897900000000002 1.488671 -0.501119
1597.21484375 2.048594 1.664531 -0.384063
1597.94921875 2.108061 1.888061 -0.22
1598.703125 1.95827 1.85327 -0.105
1599.4609375 1.78464 1.50972 -0.27492
1600.16796875 1.873574 1.537949 -0.335625
1600.875 1.907493 1.73 -0.177493
1601.5625 1.851033 1.641575 -0.209458
1602.22265625 1.8228810000000002 1.434873 -0.388008
1602.8515625 1.8864070000000002 1.596483 -0.289924
1603.48046875 1.874722 1.649722 -0.225
1604.12109375 1.8420429999999999 1.499143 -0.3429
1604.8125 1.8741269999999999 1.404764 -0.469363
1605.58984375 1.940682 1.594432 -0.34625
1606.375 1.896017 1.615 -0.281017
1607.13671875 2.018741 0.899034 -1.119707
1607.828125 2.15792 1.329542 -0.828378
1608.51171875 2.175316 1.665537 -0.509779
1609.22265625 2.287414 1.753988 -0.533426
1610.0078125 2.295435 1.649618 -0.645817
1610.7578125 1.951587 1.742207 -0.20938
1611.48046875 2.10474 1.989808 -0.114932
1612.1796875 1.974569 1.685834 -0.288735
1612.8671875 2.097476 1.747476 -0.35
1613.5625 1.911929 1.912778 8.49E-4
1614.20703125 2.078889 1.292602 -0.786287
1614.83984375 2.061406 1.792934 -0.268472
1615.4921875 1.932506 1.968151 0.035645
1616.1875 1.810429 1.915429 0.105
1616.890625 1.784 1.499114 -0.284886
1617.6015625 1.883256 1.668312 -0.214944
1618.37109375 1.914743 1.737557 -0.177186
1619.1171875 1.8496610000000002 1.551276 -0.298385
1619.828125 1.869918 1.664918 -0.205
1620.546875 1.8431899999999999 1.763922 -0.079268
1621.27734375 1.837544 1.617717 -0.219827
1621.9609375 1.849226 1.474226 -0.375
1622.63671875 1.831823 1.584753 -0.24707
1623.34765625 1.837461 1.585722 -0.251739
1624.08984375 1.791954 1.531626 -0.260328
1624.80859375 1.7778969999999998 1.308792 -0.469105
1625.49609375 1.7832080000000001 1.253208 -0.53
1626.171875 1.832732 1.50115 -0.331582
1626.82421875 1.824622 1.430329 -0.394293
1627.484375 1.848016 1.348016 -0.5
1628.1171875 1.8824260000000002 1.247856 -0.63457
1628.78125 1.8871479999999998 1.467148 -0.42
1629.48046875 1.8397839999999999 1.451409 -0.388375
1630.203125 1.92721 1.368382 -0.558828
1630.890625 1.9044539999999999 1.276073 -0.628381
1631.59375 1.8970829999999999 1.500921 -0.396162
1632.28125 1.929067 1.524127 -0.40494
1632.96484375 1.905427 1.385446 -0.519981
1633.62890625 1.970383 1.503716 -0.466667
1634.3046875 1.9103269999999999 1.665117 -0.24521
1634.99609375 1.905474 1.62217 -0.283304
1635.68359375 1.923514 1.528569 -0.394945
1636.36328125 1.912911 1.59934 -0.313571
1637.06640625 1.8612389999999999 1.764849 -0.09639
1637.73828125 1.9832960000000002 1.788912 -0.194384
1638.38671875 1.944215 1.634432 -0.309783
1639.01171875 1.943932 1.784524 -0.159408
1639.65625 1.937886 1.786824 -0.151062
1640.33984375 1.949301 1.597129 -0.352172
1641.02734375 1.871478 1.39222 -0.479258
1641.7265625 1.948005 1.578041 -0.369964
1642.44921875 1.896781 1.536022 -0.360759
1643.16015625 1.8751000000000002 1.3401 -0.535
1643.80078125 1.896454 1.331479 -0.564975
1644.4375 1.918789 1.499859 -0.41893
1645.09765625 1.900172 1.38042 -0.519752
1645.73046875 1.867755 1.174933 -0.692822
1646.36328125 1.942291 1.287291 -0.655
1647.00390625 1.9272580000000001 1.438906 -0.488352
1647.69140625 1.9065699999999999 1.408342 -0.498228
1648.4453125 1.921052 1.322076 -0.598976
1649.20703125 2.0043320000000002 1.578812 -0.42552
1650.0234375 1.9381519999999999 1.61923 -0.318922
1650.76171875 1.887049 1.387049 -0.5
1651.4453125 1.8933499999999999 1.472591 -0.420759
1652.13671875 1.9796529999999999 1.631012 -0.348641
1652.8515625 1.828898 1.461398 -0.3675
1653.54296875 1.851664 1.366702 -0.484962
1654.2265625 1.909801 1.56 -0.349801
1654.89453125 1.8635249999999999 1.574995 -0.28853
1655.546875 1.852135 1.462399 -0.389736
1656.17578125 1.85423 1.46968 -0.38455
1656.80078125 1.850448 1.429183 -0.421265
1657.4375 1.854331 1.386855 -0.467476
1658.10546875 1.928699 1.689949 -0.23875
1658.8125 1.874332 1.637561 -0.236771
1659.55859375 1.838411 1.458687 -0.379724
1660.27734375 1.9498449999999998 1.486414 -0.463431
1661.03515625 1.871007 1.683573 -0.187434
1661.78515625 1.878494 1.572235 -0.306259
1662.5078125 1.860129 1.421203 -0.438926
1663.1640625 1.959529 1.594529 -0.365
1663.84375 1.890638 1.690893 -0.199745
1664.52734375 1.8662210000000001 1.664584 -0.201637
1665.2265625 1.8305690000000001 1.550645 -0.279924
1665.9296875 1.905022 1.635022 -0.27
1666.64453125 1.9460659999999999 1.724943 -0.221123
1667.359375 1.898888 1.589519 -0.309369
1668.0703125 1.86007 1.49007 -0.37
1668.7265625 1.9287919999999998 1.518792 -0.41
1669.41015625 1.899067 1.595942 -0.303125
1670.09765625 1.850094 1.561032 -0.289062
1670.78515625 1.848406 1.428717 -0.419689
1671.47265625 1.962697 1.592705 -0.369992
1672.19140625 1.974481 1.644668 -0.329813
1672.90625 1.922716 1.602716 -0.32
1673.609375 1.879595 1.415034 -0.464561
1674.27734375 2.001988 1.554437 -0.447551
1674.92578125 1.960099 1.614591 -0.345508
1675.5859375 1.9752770000000002 1.664543 -0.310734
1676.24609375 1.938529 1.515078 -0.423451
1676.91796875 1.946256 1.561256 -0.385
1677.62890625 1.9321190000000001 1.80237 -0.129749
1678.3515625 1.90705 1.654007 -0.253043
1679.05078125 1.914956 1.530048 -0.384908
1679.7265625 1.972562 1.624421 -0.348141
1680.40625 1.936645 1.686645 -0.25
1681.06640625 1.9091040000000001 1.569125 -0.339979
1681.71484375 1.8703370000000001 1.379588 -0.490749
1682.3671875 1.906225 1.542774 -0.363451
1683.04296875 1.920622 1.668562 -0.25206
1683.74609375 1.833421 1.518577 -0.314844
1684.43359375 1.8706079999999998 1.33255 -0.538058
1685.13671875 1.893325 1.54891 -0.344415
1685.84375 1.874882 1.601679 -0.273203
1686.52734375 1.892754 1.524294 -0.36846
1687.1640625 1.846028 1.369778 -0.47625
1687.8125 1.891382 1.566382 -0.325
1688.5 1.857126 1.585 -0.272126
1689.18359375 1.84226 1.468412 -0.373848
1689.8828125 1.86231 1.447621 -0.414689
1690.59375 1.8989479999999999 1.623948 -0.275
1691.28515625 1.856268 1.566893 -0.289375
1691.98046875 1.892497 1.534763 -0.357734
1692.6484375 1.882133 1.432133 -0.45
1693.3125 1.971522 1.666522 -0.305
1693.98828125 1.947949 1.672949 -0.275
1694.6953125 1.859189 1.450961 -0.408228
1695.375 1.9567039999999998 1.505 -0.451704
1696.10546875 1.953251 1.654746 -0.298505
1696.859375 1.938901 1.654042 -0.284859
1697.58984375 1.8695030000000001 1.485524 -0.383979
1698.26171875 1.954242 1.669599 -0.284643
1698.91796875 1.905281 1.618733 -0.286548
1699.58203125 1.9122569999999999 1.4908 -0.421457
1700.2265625 1.85673 1.330484 -0.526246
1700.89453125 1.904693 1.569717 -0.334976
1701.625 1.967473 1.675 -0.292473
1702.359375 1.885004 1.460483 -0.424521
1703.046875 1.939591 1.525749 -0.413842
1703.73828125 1.9521579999999998 1.762158 -0.19
1704.43359375 1.865824 1.616743 -0.249081
1705.08984375 1.830978 1.416124 -0.414854
1705.7421875 1.902867 1.493258 -0.409609
1706.4140625 1.9444430000000001 1.574443 -0.37
1707.0859375 1.859132 1.35923 -0.499902
1707.75390625 1.8508939999999998 1.287769 -0.563125
1708.4375 1.917689 1.508421 -0.409268
1709.1640625 1.9212900000000002 1.554623 -0.366667
1709.859375 1.886562 1.382071 -0.504491
1710.51171875 1.91283 1.383455 -0.529375
1711.1484375 1.873155 1.568155 -0.305
1711.79296875 1.870025 1.608879 -0.261146
1712.45703125 1.821021 1.342003 -0.479018
1713.12109375 1.916973 1.371973 -0.545
1713.8203125 1.9327839999999998 1.558323 -0.374461
1714.54296875 1.898648 1.613697 -0.284951
1715.2578125 1.808571 1.433695 -0.374876
1715.91796875 1.80246 1.456374 -0.346086
1716.5625 1.858594 1.547368 -0.311226
1717.21875 1.785668 1.433418 -0.35225
1717.8671875 1.856159 1.257741 -0.598418
1718.51953125 1.8951319999999998 1.191606 -0.703526
1719.1875 1.91224 1.369719 -0.542521
1719.8828125 1.792028 1.243676 -0.548352
1720.578125 1.869882 1.219882 -0.65
1721.265625 1.9446029999999999 1.409603 -0.535
1721.94140625 1.903095 1.502652 -0.400443
1722.6015625 2.067208 1.574741 -0.492467
1723.27734375 1.956866 1.496405 -0.460461
1723.94921875 1.8861379999999999 1.496138 -0.39
1724.6484375 1.804689 1.271269 -0.53342
1725.33984375 1.9224260000000002 1.394354 -0.528072
1726.03515625 2.033545 1.524097 -0.509448
1726.73046875 2.0924519999999998 1.614771 -0.477681
1727.453125 1.973795 1.489056 -0.484739
1728.12109375 1.893084 1.392623 -0.500461
1728.7578125 1.959319 1.577769 -0.38155
1729.39453125 2.027935 1.654737 -0.373198
1730.0625 1.93377 1.631327 -0.302443
1730.69140625 1.7702179999999998 1.333492 -0.436726
1731.3125 1.9679689999999999 1.027969 -0.94
1731.9453125 1.959633 1.230365 -0.729268
1732.60546875 1.954764 1.094989 -0.859775
1733.265625 2.160288 1.33501 -0.825278
1733.95703125 2.082669 1.307669 -0.775
1734.64453125 1.8958810000000001 0.209972 -1.685909
1735.30078125 1.936451 1.044685 -0.891766
1735.921875 1.9663430000000002 1.156813 -0.80953
1736.5390625 1.996923 1.473555 -0.523368
1737.1953125 1.9490539999999998 1.430011 -0.519043
1737.87109375 1.982164 1.391347 -0.590817
1738.515625 1.8824329999999998 1.130933 -0.7515
1739.16015625 1.995163 1.430163 -0.565
1739.80859375 2.073957 1.358976 -0.714981
1740.48046875 2.0147589999999997 1.204759 -0.81
1741.12890625 1.962646 1.048528 -0.914118
1741.75 2.124377 1.335 -0.789377
1742.39453125 2.050661 1.444004 -0.606657
1743.07421875 1.93736 1.32736 -0.61
1743.77734375 1.970247 1.212033 -0.758214
1744.4375 1.9997630000000002 1.155547 -0.844216
1745.11328125 2.066405 1.29184 -0.774565
1745.78515625 2.010435 1.166177 -0.844258
1746.41015625 2.010802 0.906496 -1.104306
1747.0234375 2.036759 1.239381 -0.797378
1747.6328125 2.173967 1.489779 -0.684188
1748.26953125 2.004131 1.369756 -0.634375
1748.92578125 2.068476 1.409132 -0.659344
1749.58984375 2.049534 1.504851 -0.544683
1750.28125 2.1701379999999997 1.535138 -0.635
1750.99609375 2.013752 1.526224 -0.487528
1751.703125 2.018988 1.394645 -0.624343
1752.3359375 1.892086 1.291153 -0.600933
1752.96875 1.998666 1.501909 -0.496757
1753.609375 1.978955 1.565271 -0.413684
1754.2265625 2.03667 1.415837 -0.620833
1754.82421875 2.008458 1.381667 -0.626791
1755.421875 2.057868 1.512868 -0.545
1756.05078125 2.111359 1.62348 -0.487879
1756.73828125 1.939445 1.519824 -0.419621
1757.42578125 1.9397929999999999 1.296076 -0.643717
1758.08984375 2.007677 1.425668 -0.582009
1758.74609375 1.960495 1.455 -0.505495
1759.4453125 1.951541 1.35785 -0.593691
1760.12890625 1.909427 1.164427 -0.745
1760.81640625 1.979335 1.418827 -0.560508
1761.54296875 2.015152 1.525199 -0.489953
1762.2734375 1.973486 1.455 -0.518486
1762.98828125 1.882275 1.202859 -0.679416
1763.6640625 1.939343 1.384343 -0.555
1764.33984375 1.913083 1.513932 -0.399151
1765.0234375 1.886956 1.398655 -0.488301
1765.66796875 1.91167 1.146972 -0.764698
1766.3046875 2.081274 0.699227 -1.382047
1766.98046875 2.123931 0.559827 -1.564104
1767.703125 1.550024 -0.14136 -1.691384
1768.3984375 1.501769 0.511769 -0.99
1769.1171875 1.7883490000000002 1.258544 -0.529805
1769.8203125 1.752363 1.377363 -0.375
1770.46484375 2.044124 2.28246 0.238336
1771.08984375 2.362457 2.081441 -0.281016
1771.703125 2.256744 2.184141 -0.072603
1772.484375 2.042866 2.531963 0.489097
1773.31640625 1.796959 2.209075 0.412116
1774.140625 1.747205 1.880069 0.132864
1774.9375 1.6952690000000001 1.622049 -0.07322
1775.68359375 1.607245 1.472245 -0.135
1776.359375 1.658148 1.295 -0.363148
1777.00390625 1.691305 1.396438 -0.294867
1777.671875 1.662269 1.422665 -0.239604
1778.34765625 1.664572 1.293369 -0.371203
1779.07421875 1.608525 1.194713 -0.413812
1779.81640625 1.605146 1.079507 -0.525639
1780.59375 1.6530269999999998 1.173906 -0.479121
1781.38671875 1.642647 1.122841 -0.519806
1782.18359375 1.728496 1.019668 -0.708828
1782.89453125 1.7249999999999999 1.15 -0.575
1783.60546875 1.7648760000000001 1.249876 -0.515
1784.33203125 1.772057 1.167057 -0.605
1785.04296875 1.73609 1.101481 -0.634609
1785.78125 1.833463 1.342779 -0.490684
1786.53515625 1.789212 1.332742 -0.45647
1787.28515625 1.785157 1.263724 -0.521433
1787.9765625 1.8415400000000002 1.369531 -0.472009
1788.69140625 1.817506 1.467899 -0.349607
1789.3984375 1.7756629999999998 1.496881 -0.278782
1790.09375 1.777757 1.357757 -0.42
1790.73828125 1.908699 1.503277 -0.405422
1791.4375 1.90625 1.45625 -0.45
1792.17578125 1.861693 1.44733 -0.414363
1792.88671875 1.90164 1.598322 -0.303318
1793.63671875 1.977431 1.602706 -0.374725
1794.3828125 1.868688 1.608688 -0.26
1795.06640625 1.754885 1.409885 -0.345
1795.69921875 1.846074 1.584065 -0.262009
1796.375 1.9399359999999999 1.825 -0.114936
1797.07421875 1.826917 1.867913 0.040996
1797.77734375 1.797474 1.849087 0.051613
1798.46875 1.786242 1.521242 -0.265
1799.125 1.839848 1.39 -0.449848
1799.7578125 1.828326 1.478951 -0.349375
1800.38671875 1.817949 1.329004 -0.488945
1801.0234375 1.8379349999999999 1.060335 -0.7776
1801.67578125 1.903871 1.14982 -0.754051
1802.3984375 1.870131 1.125459 -0.744672
1803.171875 1.837135 1.114409 -0.722726
1803.9296875 1.786039 0.93243 -0.853609
