4.1171875 1.6221160000000001 0.689813 -0.932303
4.63671875 1.588432 0.626846 -0.961586
5.15625 1.483773 0.514672 -0.969101
5.67578125 1.473049 0.538495 -0.934554
6.17578125 1.5938780000000001 0.635575 -0.958303
6.6875 1.6072799999999998 0.6223 -0.98498
7.20703125 1.514952 0.569989 -0.944963
7.7421875 1.461246 0.572848 -0.888398
8.30859375 1.4187400000000001 0.587148 -0.831592
8.88671875 1.654652 0.925 -0.729652
9.4453125 1.5883539999999998 0.792017 -0.796337
10.015625 1.557299 0.667344 -0.889955
10.52734375 1.6440700000000001 0.772325 -0.871745
11.03515625 1.530512 0.647754 -0.882758
11.5390625 1.356692 0.544891 -0.811801
12.0546875 1.4672260000000001 0.699303 -0.767923
12.5625 1.520815 0.778192 -0.742623
13.08984375 1.5243540000000002 0.726354 -0.798
13.640625 1.4239519999999999 0.548974 -0.874978
14.19921875 1.459524 0.590488 -0.869036
14.75 1.5105680000000001 0.79 -0.720568
15.29296875 1.586011 0.85025 -0.735761
15.80859375 1.708968 1.038968 -0.67
16.32421875 1.7345829999999998 1.095033 -0.63955
16.86328125 1.7164320000000002 0.843145 -0.873287
17.38671875 1.595608 0.604045 -0.991563
17.859375 2.044756 1.343207 -0.701549
18.421875 1.52576 0.728188 -0.797572
18.9375 1.416526 0.672105 -0.744421
19.48046875 1.508804 0.759931 -0.748873
20.046875 1.523457 0.772142 -0.751315
20.59375 1.589044 0.834265 -0.754779
21.15625 1.511026 0.797087 -0.713939
21.71484375 1.516426 0.791876 -0.72455
22.27734375 1.566009 0.771305 -0.794704
22.79296875 1.515236 0.677035 -0.838201
23.30859375 1.419797 0.604707 -0.81509
23.80859375 1.5915650000000001 0.714654 -0.876911
24.31640625 1.490837 0.64946 -0.841377
24.8515625 1.517727 0.642727 -0.875
25.2890625 2.9606339999999998 2.159805 -0.800829
25.59375 2.19245 1.57745 -0.615
26.52734375 1.428761 0.631385 -0.797376
27.0703125 1.385548 0.548889 -0.836659
27.625 1.526326 0.625 -0.901326
28.15625 1.4903 0.573917 -0.916383
28.67578125 1.442988 0.489122 -0.953866
29.125 1.953302 1.205 -0.748302
29.50390625 2.012198 1.382198 -0.63
30.2109375 1.46895 0.545563 -0.923387
30.73046875 1.43314 0.479975 -0.953165
31.26171875 1.532762 0.613481 -0.919281
31.8046875 1.5296310000000002 0.555919 -0.973712
32.34375 1.437553 0.486894 -0.950659
32.89453125 1.4948890000000001 0.589973 -0.904916
33.4765625 1.6417570000000001 0.746757 -0.895
34.02734375 1.548122 0.69139 -0.856732
34.546875 1.589678 0.674704 -0.914974
35.0546875 1.474987 0.603313 -0.871674
35.55078125 1.44604 0.63732 -0.80872
36.05078125 1.572338 0.803235 -0.769103
36.55859375 1.690982 1.114263 -0.576719
37.05859375 1.688245 0.969361 -0.718884
37.59375 1.526294 0.762321 -0.763973
38.1484375 1.54123 0.838823 -0.702407
38.71875 1.539677 0.759853 -0.779824
39.2734375 1.83237 0.899391 -0.932979
39.81640625 1.777854 0.798666 -0.979188
40.328125 1.8529369999999998 0.808407 -1.04453
40.8359375 1.7521179999999998 0.769511 -0.982607
41.3515625 1.755204 0.775808 -0.979396
41.71875 3.2393660000000004 2.385289 -0.854077
42.39453125 1.7288459999999999 0.789995 -0.938851
42.93359375 1.626892 0.654697 -0.972195
43.47265625 1.618012 0.72671 -0.891302
44.0234375 1.4966110000000001 0.629436 -0.867175
44.56640625 1.60297 0.799297 -0.803673
45.125 1.6600000000000001 0.8 -0.86
45.66015625 1.609115 0.700424 -0.908691
46.2109375 1.564663 0.659868 -0.904795
46.69921875 2.14987 1.533444 -0.616426
47.23828125 1.6891509999999998 0.8981 -0.791051
47.7265625 1.5597750000000001 0.674775 -0.885
48.23046875 1.530291 0.585291 -0.945
48.73046875 1.4636149999999999 0.584947 -0.878668
49.25390625 1.483473 0.722535 -0.760938
49.796875 1.599587 0.818854 -0.780733
50.359375 1.586261 0.86077 -0.725491
50.91015625 1.533304 0.779357 -0.753947
51.30078125 2.364194 1.689905 -0.674289
51.9921875 1.6548829999999999 0.84141 -0.813473
52.50390625 1.461004 0.642629 -0.818375
53.015625 1.489321 0.69798 -0.791341
53.51171875 1.6288209999999999 0.786678 -0.842143
54.0078125 1.625588 0.787106 -0.838482
54.3203125 1.490891 0.801238 -0.689653
55.046875 1.4156019999999998 0.544101 -0.871501
55.5859375 1.44813 0.51459 -0.93354
56.140625 1.62323 0.748301 -0.874929
56.67578125 1.551426 0.733876 -0.81755
57.2109375 1.507168 0.710566 -0.796602
57.765625 1.454785 0.59 -0.864785
58.32421875 1.382331 0.562963 -0.819368
58.8359375 1.632731 0.799785 -0.832946
59.3359375 1.623378 0.774785 -0.848593
59.828125 1.576086 0.717849 -0.858237
60.33203125 1.435051 0.600896 -0.834155
60.83984375 1.479879 0.582691 -0.897188
61.38671875 1.622153 0.769166 -0.852987
61.8984375 1.6406990000000001 0.82651 -0.814189
62.46484375 1.587852 0.798699 -0.789153
63.0234375 1.599932 0.851966 -0.747966
63.59765625 1.589183 0.767945 -0.821238
64.1328125 1.355942 0.518811 -0.837131
64.66796875 1.354916 0.516329 -0.838587
65.16796875 1.5692979999999999 0.714298 -0.855
65.6640625 1.659087 0.934342 -0.724745
66.17578125 1.689448 0.929905 -0.759543
66.7109375 1.714193 0.925 -0.789193
67.23828125 1.665699 0.89829 -0.767409
67.796875 1.590337 0.769915 -0.820422
68.33984375 1.479527 0.564554 -0.914973
68.890625 1.502907 0.544406 -0.958501
69.46875 1.429826 0.48596 -0.943866
70.0078125 1.41284 0.537528 -0.875312
70.5390625 1.519536 0.829928 -0.689608
71.04296875 1.61649 0.931697 -0.684793
71.5546875 1.441114 0.717631 -0.723483
72.0546875 1.500294 0.792563 -0.707731
72.43359375 2.4841860000000002 2.034612 -0.449574
73.08203125 1.61213 0.906842 -0.705288
73.61328125 1.621596 0.80943 -0.812166
74.18359375 1.559843 0.753457 -0.806386
74.78515625 1.5213619999999999 0.697753 -0.823609
75.3515625 1.577881 0.792881 -0.785
75.9140625 1.539129 0.7947 -0.744429
76.421875 1.581792 0.894467 -0.687325
76.81640625 3.041463 2.425 -0.616463
77.125 2.6692530000000003 1.86 -0.809253
77.9375 1.525679 0.7907 -0.734979
78.453125 1.545219 0.814145 -0.731074
78.97265625 1.71916 0.885911 -0.833249
79.5234375 1.649825 0.75677 -0.893055
80.06640625 1.666815 0.778963 -0.887852
80.6171875 1.665214 0.725136 -0.940078
81.1484375 1.77704 0.818356 -0.958684
81.66796875 1.7935089999999998 0.849389 -0.94412
82.1953125 1.781572 0.877771 -0.903801
82.71875 1.740773 0.781167 -0.959606
83.21484375 1.638954 0.657025 -0.981929
83.71875 1.595611 0.637113 -0.958498
84.2109375 1.7510940000000002 0.831138 -0.919956
84.69921875 1.697266 0.760796 -0.93647
85.2109375 1.581513 0.704695 -0.876818
85.625 2.8249999999999997 2.03 -0.795
86.29296875 1.4364340000000002 0.668479 -0.767955
86.8515625 1.587024 0.757504 -0.82952
87.4140625 1.744693 0.859901 -0.884792
87.9765625 1.5839509999999999 0.693951 -0.89
88.4921875 1.544337 0.71 -0.834337
89.00390625 1.5588959999999998 0.711193 -0.847703
89.4921875 1.68065 0.839812 -0.840838
89.9921875 1.679584 0.826127 -0.853457
90.515625 1.7084540000000001 0.778715 -0.929739
91.0625 1.602252 0.726523 -0.875729
91.609375 1.6437979999999999 0.790857 -0.852941
92.16796875 1.663264 0.812887 -0.850377
92.7109375 1.69867 0.799896 -0.898774
93.26171875 1.6307239999999998 0.715877 -0.914847
93.81640625 1.6810589999999999 0.753164 -0.927895
94.3359375 1.633375 0.749116 -0.884259
94.8515625 1.6546889999999999 0.745525 -0.909164
95.359375 1.680315 0.751122 -0.929193
95.87890625 1.615896 0.662813 -0.953083
96.3984375 1.5296370000000001 0.62649 -0.903147
96.796875 2.8798120000000003 2.054812 -0.825
97.45703125 1.568449 0.718519 -0.84993
98.0 1.498092 0.72 -0.778092
98.5703125 1.591446 0.782692 -0.808754
99.17578125 1.533238 0.685 -0.848238
99.73828125 1.545953 0.769072 -0.776881
100.16015625 2.74789 1.972985 -0.774905
100.78515625 1.579958 0.755126 -0.824832
101.2890625 1.604055 0.669844 -0.934211
101.796875 1.5836640000000002 0.708694 -0.87497
102.3046875 1.459447 0.597378 -0.862069
102.828125 1.529187 0.678201 -0.850986
103.36328125 1.7033209999999999 0.838549 -0.864772
103.92578125 1.7012939999999999 0.879815 -0.821479
104.4765625 1.704348 0.859348 -0.845
105.03125 1.5429650000000001 0.65374 -0.889225
105.57421875 1.604578 0.704852 -0.899726
106.10546875 1.585609 0.754931 -0.830678
106.55078125 2.7695790000000002 1.859579 -0.91
107.140625 1.644668 0.704228 -0.94044
107.62890625 1.504257 0.607931 -0.896326
108.140625 1.606695 0.68767 -0.919025
108.640625 1.550703 0.656518 -0.894185
109.15625 1.774402 0.90125 -0.873152
109.6640625 1.758513 0.867925 -0.890588
110.21875 1.715951 0.821141 -0.89481
110.75390625 1.722149 0.782722 -0.939427
111.32421875 1.632393 0.771889 -0.860504
111.87890625 1.556659 0.746479 -0.81018
112.40625 1.643585 0.871337 -0.772248
112.91015625 1.663836 0.890557 -0.773279
113.4140625 1.6968239999999999 0.893258 -0.803566
113.91015625 1.602671 0.787959 -0.814712
114.42578125 1.65072 0.817624 -0.833096
114.953125 1.7160289999999998 0.846104 -0.869925
115.5 1.676355 0.885 -0.791355
116.05078125 1.769636 0.863617 -0.906019
116.609375 1.583675 0.685527 -0.898148
117.15234375 1.6626210000000001 0.703044 -0.959577
117.6953125 1.708965 0.751238 -0.957727
118.2265625 1.647665 0.734086 -0.913579
118.73046875 1.5930330000000001 0.664466 -0.928567
119.25390625 1.590034 0.615308 -0.974726
119.765625 1.59001 0.618327 -0.971683
120.30078125 1.5978919999999999 0.677658 -0.920234
120.8125 1.64079 0.795833 -0.844957
121.3515625 1.7643179999999998 0.819318 -0.945
121.88671875 1.7189329999999998 0.76806 -0.950873
122.43359375 1.574585 0.684901 -0.889684
123.00390625 1.584196 0.682124 -0.902072
123.58984375 1.654997 0.728689 -0.926308
124.12890625 1.612952 0.70657 -0.906382
124.65625 1.6847509999999999 0.687522 -0.997229
125.15234375 1.665321 0.704374 -0.960947
125.65234375 1.551749 0.593624 -0.958125
126.1640625 1.476957 0.615578 -0.861379
126.671875 1.516399 0.62411 -0.892289
127.19921875 1.629149 0.767274 -0.861875
127.73828125 1.58962 0.741475 -0.848145
128.22265625 2.6 1.635 -0.965
128.8671875 1.568657 0.712258 -0.856399
129.42578125 1.460553 0.638004 -0.822549
129.9609375 1.56893 0.774887 -0.794043
130.46875 1.715109 0.897333 -0.817776
130.9765625 1.702778 0.827778 -0.875
131.48828125 1.571157 0.680808 -0.890349
131.99609375 1.5269469999999998 0.662098 -0.864849
132.51953125 1.550301 0.719915 -0.830386
133.03515625 1.714823 0.865119 -0.849704
133.55859375 1.6457229999999998 0.859641 -0.786082
134.08203125 1.6742240000000002 0.695771 -0.978453
134.6484375 1.603514 0.629347 -0.974167
135.18359375 1.539799 0.569712 -0.970087
135.73046875 1.679701 0.729955 -0.949746
136.25 1.7039360000000001 0.745 -0.958936
136.7734375 1.557054 0.63954 -0.917514
137.2734375 1.471785 0.70427 -0.767515
137.7734375 1.52012 0.673992 -0.846128
138.26171875 1.619375 0.744985 -0.87439
138.7578125 1.570422 0.714312 -0.85611
139.29296875 1.627017 0.778837 -0.84818
139.85546875 1.599894 0.739894 -0.86
140.4140625 1.629809 0.781082 -0.848727
140.98046875 1.667866 0.784911 -0.882955
141.5234375 1.565331 0.677833 -0.887498
142.0546875 2.331675 1.576675 -0.755
142.5859375 1.4342030000000001 0.599584 -0.834619
143.09375 1.584876 0.709141 -0.875735
143.5859375 1.632454 0.734893 -0.897561
144.1015625 1.539839 0.664839 -0.875
144.6328125 1.531579 0.668183 -0.863396
145.17578125 1.570573 0.727025 -0.843548
145.71484375 1.6406399999999999 0.758424 -0.882216
146.2734375 1.543508 0.658317 -0.885191
146.8203125 1.50628 0.648247 -0.858033
147.3828125 1.524021 0.708431 -0.81559
147.9453125 1.628217 0.801892 -0.826325
148.48046875 1.625043 0.749881 -0.875162
148.99609375 1.5820509999999999 0.742157 -0.839894
149.50390625 1.7322609999999998 0.92277 -0.809491
149.98828125 1.7792 0.940354 -0.838846
150.4921875 1.75743 0.893158 -0.864272
151.015625 1.630843 0.74969 -0.881153
151.5546875 1.668317 0.818856 -0.849461
152.1015625 1.743794 1.012812 -0.730982
152.64453125 1.814381 0.944976 -0.869405
153.22265625 1.664773 0.764773 -0.9
153.77734375 1.585896 0.651193 -0.934703
154.31640625 1.650426 0.774952 -0.875474
154.8125 1.789514 0.999719 -0.789795
155.30078125 1.7969119999999998 1.005903 -0.791009
155.8046875 1.624088 0.780201 -0.843887
156.33203125 1.588584 0.763828 -0.824756
156.85546875 1.809568 1.12492 -0.684648
157.3828125 1.781318 1.026748 -0.75457
157.91796875 1.694505 0.75529 -0.939215
158.46875 1.5260379999999998 0.732852 -0.793186
158.99609375 1.642436 0.848692 -0.793744
159.42578125 1.257554 0.80732 -0.450234
160.06640625 1.459551 0.674374 -0.785177
160.58984375 1.443975 0.616773 -0.827202
161.08984375 1.696643 0.949779 -0.746864
161.58203125 1.692235 0.877393 -0.814842
162.06640625 1.72039 0.83457 -0.88582
162.51171875 2.443193 1.788318 -0.654875
163.0859375 1.4760300000000002 0.634553 -0.841477
163.61328125 1.557248 0.7381 -0.819148
163.99609375 2.0252600000000003 1.349099 -0.676161
164.734375 1.5794039999999998 0.817514 -0.76189
165.27734375 1.4930379999999999 0.722826 -0.770212
165.8359375 1.734769 0.959978 -0.774791
166.328125 1.716268 0.928225 -0.788043
166.83203125 1.735821 0.878925 -0.856896
167.21875 2.819236 1.995818 -0.823418
167.8359375 1.49904 0.634652 -0.864388
168.3203125 1.656193 0.917834 -0.738359
168.8359375 1.744428 0.934953 -0.809475
169.359375 1.753566 0.835625 -0.917941
169.9140625 1.604328 0.74964 -0.854688
170.4609375 1.5485280000000001 0.674642 -0.873886
171.01953125 1.600311 0.724835 -0.875476
171.5390625 1.639467 0.76 -0.879467
172.0703125 1.681743 0.810385 -0.871358
172.59765625 1.673064 0.828064 -0.845
173.1015625 2.321581 1.623847 -0.697734
173.62109375 1.6232799999999998 0.853285 -0.769995
174.125 1.6385450000000001 0.86 -0.778545
174.62890625 1.71449 0.894618 -0.819872
175.16015625 1.5567099999999998 0.74291 -0.8138
175.71484375 1.532916 0.828677 -0.704239
176.24609375 1.654728 0.889809 -0.764919
176.80078125 1.6311360000000001 0.832624 -0.798512
177.359375 1.544445 0.748457 -0.795988
177.9453125 1.806705 1.020885 -0.78582
178.44921875 1.7914889999999999 0.97964 -0.811849
178.94921875 1.8043749999999998 0.957924 -0.846451
179.32421875 2.9997860000000003 2.051117 -0.948669
179.64453125 2.591837 1.599939 -0.991898
179.96484375 1.679136 0.445 -1.234136
180.484375 1.586891 0.690925 -0.895966
181.015625 1.4880339999999999 0.605623 -0.882411
181.36328125 2.682244 1.972817 -0.709427
182.1328125 1.506428 0.663701 -0.842727
182.67578125 1.435902 0.562857 -0.873045
183.2265625 1.507881 0.697881 -0.81
183.765625 1.357736 0.576084 -0.781652
184.30078125 1.560449 0.818512 -0.741937
184.79296875 1.761763 1.107095 -0.654668
185.28515625 1.853812 1.124043 -0.729769
185.77734375 1.782585 1.013496 -0.769089
186.28515625 1.8341560000000001 0.989747 -0.844409
186.78515625 1.672241 0.737937 -0.934304
187.32421875 1.687995 0.892924 -0.795071
187.84765625 1.8877160000000002 1.092716 -0.795
188.390625 1.697867 0.885384 -0.812483
188.96875 1.2383089999999999 0.418309 -0.82
189.55859375 1.6154229999999998 0.433836 -1.181587
190.10546875 1.397257 0.344962 -1.052295
190.6171875 1.6098469999999998 0.699938 -0.909909
191.109375 1.825183 1.118047 -0.707136
191.58203125 1.9653909999999999 1.428266 -0.537125
192.078125 1.824106 1.204139 -0.619967
192.58203125 1.794095 1.130322 -0.663773
193.1171875 1.8036090000000002 1.204514 -0.599095
193.6484375 1.788187 1.22149 -0.566697
194.2109375 1.79813 1.075 -0.72313
194.7578125 1.7515930000000002 0.984442 -0.767151
195.3203125 2.050456 0.897886 -1.15257
195.8515625 2.158418 0.999137 -1.159281
196.34765625 1.717425 0.756333 -0.961092
196.86328125 1.748365 0.993698 -0.754667
197.3671875 1.8708420000000001 0.889479 -0.981363
197.86328125 1.7320380000000002 0.905182 -0.826856
198.39453125 1.595339 0.824983 -0.770356
198.73828125 2.3169 1.6719 -0.645
199.1171875 1.9792480000000001 1.319302 -0.659946
199.97265625 1.754869 1.064869 -0.69
200.55078125 1.743709 0.975575 -0.768134
201.0859375 1.880105 1.184891 -0.695214
201.63671875 1.883928 1.167587 -0.716341
202.1796875 1.8539889999999999 1.060743 -0.793246
202.58984375 2.798735 2.113735 -0.685
203.1796875 1.899591 1.026207 -0.873384
203.6640625 1.7833990000000002 0.859851 -0.923548
204.15625 1.436355 0.564276 -0.872079
204.6640625 1.344503 0.63 -0.714503
205.19921875 1.201158 0.632913 -0.568245
205.74609375 0.976497 0.483949 -0.492548
206.27734375 0.898879 0.424237 -0.474642
206.83984375 0.896069 0.371649 -0.52442
207.36328125 0.983015 0.449714 -0.533301
207.8984375 0.8779060000000001 0.353991 -0.523915
208.4140625 0.7949280000000001 0.244978 -0.54995
208.9140625 0.72075 0.176011 -0.544739
209.42578125 0.9539340000000001 0.409291 -0.544643
209.91796875 0.802478 0.353442 -0.449036
210.44921875 0.8497 0.370765 -0.478935
210.953125 0.9990589999999999 0.534909 -0.46415
211.49609375 0.983648 0.465954 -0.517694
212.01953125 1.004552 0.484986 -0.519566
212.5625 1.364022 0.73733 -0.626692
212.87890625 0.135998 -0.008966 -0.144964
213.11328125 1.7110409999999998 1.02527 -0.685771
213.671875 1.911934 1.078019 -0.833915
214.19140625 1.8265639999999999 0.974084 -0.85248
214.71484375 1.639581 0.668522 -0.971059
215.203125 1.645306 0.634722 -1.010584
215.6953125 1.767223 0.772563 -0.99466
216.1796875 1.7878880000000001 0.818396 -0.969492
216.6953125 1.803793 0.861131 -0.942662
217.20703125 1.6592889999999998 0.774314 -0.884975
217.75390625 1.705134 0.838154 -0.86698
218.3046875 1.801783 0.929141 -0.872642
218.859375 1.8124600000000002 0.919394 -0.893066
219.41796875 1.759258 0.860522 -0.898736
219.95703125 1.8902480000000002 1.15528 -0.734968
220.453125 1.952406 1.188773 -0.763633
220.95703125 1.888389 1.103426 -0.784963
221.47265625 1.892644 0.958149 -0.934495
221.98828125 1.6460750000000002 0.628759 -1.017316
222.515625 1.5889890000000002 0.585605 -1.003384
223.046875 1.752155 0.734915 -1.01724
223.56640625 1.710896 0.795 -0.915896
224.1015625 1.753365 0.788365 -0.965
224.6484375 1.761252 0.962914 -0.798338
225.17578125 1.758228 0.913393 -0.844835
225.734375 1.6499920000000001 0.921447 -0.728545
226.2578125 1.7915039999999998 1.03961 -0.751894
226.77734375 1.8148840000000002 0.992306 -0.822578
227.2734375 1.615537 0.812205 -0.803332
227.77734375 1.547498 0.662497 -0.885001
228.27734375 1.694778 0.881734 -0.813044
228.75 1.433064 0.915 -0.518064
229.3203125 1.59835 0.898859 -0.699491
229.890625 1.668251 0.935371 -0.73288
230.453125 1.6525370000000001 0.984454 -0.668083
231.0234375 1.624724 1.017947 -0.606777
231.55859375 1.64749 0.979269 -0.668221
232.08984375 1.872518 1.117769 -0.754749
232.58984375 1.814848 1.123002 -0.691846
233.0859375 1.7899819999999997 1.039524 -0.750458
233.57421875 1.8743210000000001 1.060122 -0.814199
234.04296875 2.1534709999999997 1.518471 -0.635
234.609375 1.751793 0.981977 -0.769816
235.140625 1.712232 0.892435 -0.819797
235.6875 1.7019950000000001 0.89227 -0.809725
236.2421875 1.090869 0.385869 -0.705
236.79296875 1.447523 0.633348 -0.814175
237.33203125 1.703001 0.903031 -0.79997
237.8828125 1.6792289999999999 0.951005 -0.728224
238.40625 1.71845 0.958931 -0.759519
238.90625 1.7654459999999998 0.910341 -0.855105
239.40234375 1.4982799999999998 0.574712 -0.923568
239.890625 1.279698 0.530134 -0.749564
240.39453125 1.639584 0.813997 -0.825587
240.89453125 1.6870440000000002 1.024974 -0.66207
241.3984375 1.651484 0.988822 -0.662662
241.92578125 1.8286059999999997 1.121703 -0.706903
242.47265625 1.886804 1.188724 -0.69808
243.02734375 1.733864 0.949869 -0.783995
243.58203125 1.6129799999999999 0.783207 -0.829773
244.12109375 1.655244 0.805317 -0.849927
244.62890625 1.612237 0.781369 -0.830868
245.11328125 1.775914 1.029177 -0.746737
245.6015625 1.737104 1.056667 -0.680437
246.10546875 1.819011 1.08486 -0.734151
246.62890625 1.927244 0.997782 -0.929462
247.15625 2.082492 1.148926 -0.933566
247.703125 1.767607 0.834362 -0.933245
248.234375 1.75939 0.786798 -0.972592
248.78515625 1.509374 0.6 -0.909374
249.33984375 1.674611 0.782439 -0.892172
249.86328125 1.8017089999999998 0.992979 -0.80873
250.37109375 2.108733 1.21888 -0.889853
250.86328125 1.989792 1.075058 -0.914734
251.37109375 1.882911 0.972377 -0.910534
251.859375 1.87596 0.952955 -0.923005
252.37109375 1.926704 0.998143 -0.928561
252.875 1.7574450000000001 0.795 -0.962445
253.40234375 1.674809 0.79049 -0.884319
253.96484375 1.6596440000000001 0.853183 -0.806461
254.55859375 1.666835 0.898974 -0.767861
255.1171875 1.9060519999999999 1.076137 -0.829915
255.66015625 1.895818 1.037782 -0.858036
256.1796875 1.9343530000000002 1.061576 -0.872777
256.68359375 1.989631 1.04453 -0.945101
257.1875 1.869949 0.851 -1.018949
257.69921875 1.8384960000000001 1.039619 -0.798877
258.18359375 1.821523 1.084657 -0.736866
258.6953125 1.8372899999999999 1.050776 -0.786514
259.2265625 1.805691 0.951665 -0.854026
259.796875 1.781895 0.884572 -0.897323
260.30078125 2.432333 1.648111 -0.784222
260.90625 1.806232 0.899643 -0.906589
261.44140625 1.730324 0.86834 -0.861984
261.97265625 1.7210429999999999 0.871043 -0.85
262.50390625 1.836569 0.903186 -0.933383
263.0390625 1.705444 0.849744 -0.8557
263.5390625 1.7033589999999998 0.869655 -0.833704
264.05859375 1.707201 0.982694 -0.724507
264.5546875 1.8717169999999999 1.192256 -0.679461
265.0859375 1.8614129999999998 1.114766 -0.746647
265.609375 1.860846 1.042914 -0.817932
266.17578125 1.795519 0.963207 -0.832312
266.73046875 1.6340849999999998 0.83998 -0.794105
267.3046875 1.733247 0.973247 -0.76
267.8671875 1.925897 1.010966 -0.914931
268.40625 1.869068 1.022779 -0.846289
268.91796875 1.844896 0.901877 -0.943019
269.4375 1.633617 0.738191 -0.895426
269.9375 1.7655349999999999 0.871053 -0.894482
270.453125 1.712944 0.887119 -0.825825
270.99609375 1.807142 1.055164 -0.751978
271.5546875 1.901745 1.016865 -0.88488
272.11328125 1.7836530000000002 0.854909 -0.928744
272.6796875 1.697198 0.78326 -0.913938
273.23046875 1.8030370000000002 1.004949 -0.798088
273.75390625 1.995355 1.092159 -0.903196
274.28515625 1.90698 0.992835 -0.914145
274.796875 1.854468 0.906145 -0.948323
275.31640625 1.835524 0.839312 -0.996212
275.8359375 1.6394440000000001 0.664652 -0.974792
276.38671875 1.6613419999999999 0.715877 -0.945465
276.890625 1.8033929999999998 0.879153 -0.92424
277.4453125 1.720909 0.81 -0.910909
277.98046875 1.636493 0.734995 -0.901498
278.53515625 1.823198 0.874344 -0.948854
279.1015625 1.739783 0.805023 -0.93476
279.6875 1.563694 0.554593 -1.009101
280.21875 1.5066549999999999 0.488328 -1.018327
280.75 1.392932 0.41 -0.982932
281.25390625 1.251544 0.138579 -1.112965
281.7578125 1.400254 0.389121 -1.011133
282.28125 1.449026 0.536992 -0.912034
282.80078125 1.504603 0.609581 -0.895022
283.33984375 1.504591 0.60435 -0.900241
283.89453125 1.554092 0.735288 -0.818804
284.46875 1.636149 0.821389 -0.81476
285.015625 1.824224 1.079245 -0.744979
285.41015625 1.628836 0.769339 -0.859497
286.0703125 1.6358009999999998 0.72368 -0.912121
286.60546875 1.47127 0.53 -0.94127
287.12890625 1.63227 0.720132 -0.912138
287.66796875 1.547964 0.614938 -0.933026
288.1875 1.506685 0.5775 -0.929185
288.72265625 1.535544 0.554722 -0.980822
289.2578125 1.5961319999999999 0.598922 -0.99721
289.80078125 1.774102 0.694376 -1.079726
290.3515625 1.58348 0.68348 -0.9
290.92578125 1.6055730000000001 0.75416 -0.851413
291.46484375 1.606295 0.7314 -0.874895
292.01953125 1.522952 0.645791 -0.877161
292.55078125 1.595679 0.632352 -0.963327
293.0625 1.577845 0.627889 -0.949956
293.546875 1.7641499999999999 0.962033 -0.802117
294.03125 1.916757 1.088711 -0.828046
294.51953125 1.848465 0.895 -0.953465
295.03515625 1.9516689999999999 1.013205 -0.938464
295.59375 1.874285 1.034474 -0.839811
296.18359375 1.8338459999999999 0.943975 -0.889871
296.765625 1.821085 0.912435 -0.90865
297.359375 1.730377 0.803811 -0.926566
297.88671875 1.656474 0.731853 -0.924621
298.41015625 1.760443 0.765542 -0.994901
298.92578125 1.694976 0.771818 -0.923158
299.41796875 1.555266 0.692887 -0.862379
299.92578125 1.602581 0.77457 -0.828011
300.453125 1.6343860000000001 0.729716 -0.90467
301.015625 1.561693 0.689277 -0.872416
301.5625 1.6833909999999999 0.749208 -0.934183
302.12890625 1.625413 0.712317 -0.913096
302.671875 1.543364 0.56459 -0.978774
303.2265625 1.54 0.665 -0.875
303.79296875 1.707654 0.714997 -0.992657
304.34765625 1.566535 0.564243 -1.002292
304.84375 1.530106 0.563924 -0.966182
305.34765625 1.472429 0.532429 -0.94
305.73046875 2.956016 2.039988 -0.916028
306.09375 2.9160839999999997 2.061664 -0.85442
306.84375 1.5248059999999999 0.70207 -0.822736
307.39453125 1.650304 0.87 -0.780304
307.92578125 1.802768 0.949625 -0.853143
308.48046875 1.688069 0.650553 -1.037516
309.03515625 1.582694 0.648501 -0.934193
309.59765625 1.629583 0.667578 -0.962005
310.12109375 1.6046239999999998 0.749809 -0.854815
310.625 1.596882 0.71 -0.886882
311.1171875 1.625405 0.816252 -0.809153
311.61328125 1.783168 0.954906 -0.828262
312.11328125 1.876765 1.133505 -0.74326
312.64453125 1.9404500000000002 1.194989 -0.745461
313.171875 1.898692 1.039149 -0.859543
313.7265625 1.930669 1.035854 -0.894815
314.2734375 1.71835 0.793264 -0.925086
314.83203125 1.798622 0.863673 -0.934949
315.3984375 1.686903 0.798341 -0.888562
315.92578125 1.796031 0.895941 -0.90009
316.4453125 2.005357 1.093951 -0.911406
316.94140625 1.998892 1.004179 -0.994713
317.453125 1.7786149999999998 0.89272 -0.885895
317.94921875 1.846091 0.726129 -1.119962
318.484375 1.708548 0.750728 -0.95782
318.99609375 1.718467 0.768607 -0.94986
319.52734375 1.846139 0.947394 -0.898745
320.0859375 1.640577 0.753703 -0.886874
320.671875 1.750769 0.793094 -0.957675
321.234375 1.558544 0.685458 -0.873086
321.80859375 1.645108 0.699256 -0.945852
322.32421875 1.732991 0.7362 -0.996791
322.83203125 1.8551980000000001 0.913455 -0.941743
323.32421875 1.759302 0.94994 -0.809362
323.8203125 1.852513 1.052584 -0.799929
324.32421875 1.8271579999999998 0.975618 -0.85154
324.84375 1.827485 0.963537 -0.863948
325.40234375 1.8357139999999998 0.88 -0.955714
325.953125 1.69463 0.734772 -0.959858
326.3984375 2.331006 1.676048 -0.654958
327.06640625 1.71353 0.749894 -0.963636
327.5859375 1.7799740000000002 0.852611 -0.927363
328.109375 1.8237100000000002 0.910625 -0.913085
328.62890625 1.834538 0.905 -0.929538
329.12890625 1.8209719999999998 0.925511 -0.895461
329.6328125 1.750118 0.86205 -0.888068
330.140625 1.8155100000000002 0.772417 -1.043093
330.62890625 1.7618420000000001 0.769559 -0.992283
331.046875 2.793858 1.819489 -0.974369
331.671875 1.790233 0.869317 -0.920916
332.19140625 1.733186 0.749834 -0.983352
332.7578125 1.738581 0.74935 -0.989231
333.3046875 1.799281 0.773199 -1.026082
333.87109375 1.7024309999999998 0.662592 -1.039839
334.3828125 1.6751269999999998 0.715 -0.960127
334.8828125 1.631335 0.76821 -0.863125
335.37109375 1.727659 0.737723 -0.989936
335.8671875 1.655859 0.671035 -0.984824
336.39453125 1.646075 0.704951 -0.941124
336.93359375 1.809393 0.839899 -0.969494
337.4609375 1.727352 0.785 -0.942352
338.02734375 1.704953 0.677308 -1.027645
338.55859375 1.492719 0.537395 -0.955324
339.12109375 1.57544 0.565597 -1.009843
339.671875 1.689225 0.695062 -0.994163
340.1953125 1.702925 0.790738 -0.912187
340.703125 1.84607 0.822707 -1.023363
341.2109375 1.735808 0.711581 -1.024227
341.73046875 1.627075 0.619915 -1.00716
342.24609375 1.591132 0.624649 -0.966483
342.78125 1.623899 0.699297 -0.924602
343.30859375 1.7058529999999998 0.79443 -0.911423
343.83984375 1.800795 0.884123 -0.916672
344.40625 1.647477 0.740145 -0.907332
345.0078125 1.5278019999999999 0.653123 -0.874679
345.58203125 1.583846 0.743851 -0.839995
346.13671875 1.622252 0.778144 -0.844108
346.640625 1.772795 0.878447 -0.894348
347.140625 1.671399 0.747721 -0.923678
347.63671875 1.7083549999999998 0.654148 -1.054207
348.16015625 1.5765639999999999 0.644902 -0.931662
348.6640625 1.629979 0.714479 -0.9155
349.203125 1.834544 0.821108 -1.013436
349.75390625 1.7209370000000002 0.814169 -0.906768
350.3203125 1.701434 0.731943 -0.969491
350.875 1.687122 0.71 -0.977122
351.4453125 1.6050119999999999 0.681596 -0.923416
351.96875 1.724048 0.803871 -0.920177
352.48046875 1.593089 0.719891 -0.873198
353.0 1.5732659999999998 0.73 -0.843266
353.51171875 1.782877 0.989166 -0.793711
354.0078125 1.778724 0.928724 -0.85
354.54296875 1.748252 0.843515 -0.904737
355.05078125 1.6752289999999999 0.661361 -1.013868
355.59765625 1.6361720000000002 0.67 -0.966172
356.16796875 1.591498 0.706284 -0.885214
356.71484375 1.7622849999999999 0.870411 -0.891874
357.2734375 1.7545549999999999 0.929736 -0.824819
357.8203125 1.735013 0.85 -0.885013
358.3671875 1.708039 0.783039 -0.925
358.875 1.611289 0.63 -0.981289
359.390625 1.51825 0.558592 -0.959658
359.89453125 1.452159 0.544975 -0.907184
360.40625 1.578243 0.722426 -0.855817
360.9375 1.705342 0.892391 -0.812951
361.515625 1.7862580000000001 0.948689 -0.837569
362.0859375 1.689479 0.833957 -0.855522
362.671875 1.664123 0.768854 -0.895269
363.234375 1.625795 0.681977 -0.943818
363.796875 1.582991 0.672972 -0.910019
364.32421875 1.739376 0.801071 -0.938305
364.8359375 1.8003239999999998 0.840583 -0.959741
365.20703125 2.839676 1.91 -0.929676
365.84765625 1.528063 0.598886 -0.929177
366.3828125 1.4299970000000002 0.513796 -0.916201
366.921875 1.548733 0.623624 -0.925109
367.46484375 1.654004 0.722051 -0.931953
368.01171875 1.742634 0.783224 -0.95941
368.546875 1.671739 0.748447 -0.923292
369.109375 1.5756890000000001 0.684835 -0.890854
369.67578125 1.64209 0.753004 -0.889086
370.21875 1.67706 0.789241 -0.887819
370.7265625 1.6691340000000001 0.741738 -0.927396
371.23046875 1.729995 0.854995 -0.875
371.7109375 1.824679 0.929789 -0.89489
372.203125 1.749757 0.858311 -0.891446
372.73046875 1.6126040000000001 0.744981 -0.867623
373.2578125 1.74066 0.958163 -0.782497
373.7890625 1.812938 1.004605 -0.808333
374.328125 1.799843 0.92 -0.879843
374.91015625 1.733098 0.768145 -0.964953
375.47265625 1.5392299999999999 0.724869 -0.814361
376.03515625 1.604472 0.736109 -0.868363
376.5546875 1.6832129999999998 0.797331 -0.885882
377.05078125 1.740288 0.900796 -0.839492
377.55859375 1.7383440000000001 0.823016 -0.915328
378.09375 1.7378939999999998 0.736236 -1.001658
378.625 1.656872 0.735 -0.921872
379.1640625 1.649423 0.770569 -0.878854
379.703125 1.791373 0.817365 -0.974008
380.25 1.575 0.7 -0.875
380.78515625 1.500939 0.607267 -0.893672
381.234375 1.491346 0.636733 -0.854613
381.87890625 1.56321 0.648587 -0.914623
382.4140625 1.664393 0.727694 -0.936699
382.90234375 1.830921 1.075 -0.755921
383.4375 1.694056 0.759858 -0.934198
383.9296875 1.835296 0.877973 -0.957323
384.4453125 1.829118 0.896865 -0.932253
384.94921875 1.77209 0.763049 -1.009041
385.484375 1.63202 0.670639 -0.961381
386.0546875 1.585065 0.633844 -0.951221
386.64453125 1.686205 0.799878 -0.886327
387.19921875 1.821358 0.898624 -0.922734
387.7578125 1.839924 0.842132 -0.997792
388.26953125 1.8190689999999998 0.759961 -1.059108
388.78125 1.7647140000000001 0.773938 -0.990776
389.29296875 1.693843 0.728843 -0.965
389.8046875 1.6247500000000001 0.711921 -0.912829
390.3203125 1.6566800000000002 0.834129 -0.822551
390.84375 1.797601 0.82285 -0.974751
391.3984375 1.81392 0.924287 -0.889633
391.9453125 1.891487 0.872555 -1.018932
392.51171875 1.674601 0.77974 -0.894861
393.078125 1.7434470000000002 0.748407 -0.99504
393.625 1.6776200000000001 0.78 -0.89762
394.16015625 1.750116 0.798562 -0.951554
394.6953125 1.818582 0.838293 -0.980289
395.203125 1.860598 0.830728 -1.02987
395.71484375 1.666663 0.711095 -0.955568
396.22265625 1.604223 0.765995 -0.838228
396.7421875 1.653356 0.794106 -0.85925
397.26953125 1.774392 0.945294 -0.829098
397.8359375 1.769646 0.858639 -0.911007
398.37890625 1.709297 0.81 -0.899297
398.96875 1.671789 0.776768 -0.895021
399.546875 1.642037 0.729939 -0.912098
400.10546875 1.793723 0.87485 -0.918873
400.61328125 1.625763 0.788893 -0.83687
401.12109375 1.764624 0.810354 -0.95427
401.6171875 1.590951 0.708688 -0.882263
402.1328125 1.5656690000000002 0.685 -0.880669
402.67578125 1.6429230000000001 0.735 -0.907923
403.234375 1.7685680000000001 0.820358 -0.94821
403.7890625 1.8440349999999999 0.874035 -0.97
404.3671875 1.87648 0.84751 -1.02897
404.91796875 1.7678950000000002 0.755 -1.012895
405.34765625 3.190181 2.159715 -1.030466
406.0390625 1.676534 0.67987 -0.996664
406.546875 1.623519 0.729678 -0.893841
407.0625 1.728213 0.783698 -0.944515
407.5625 1.648384 0.788684 -0.8597
408.09375 1.743074 0.780924 -0.96215
408.48046875 3.096304 2.094875 -1.001429
409.16015625 1.653498 0.74281 -0.910688
409.69140625 1.8543720000000001 1.06 -0.794372
410.23828125 1.927508 1.064105 -0.863403
410.8046875 1.722249 0.871045 -0.851204
411.421875 1.832324 0.948219 -0.884105
411.97265625 1.91819 1.001632 -0.916558
412.5078125 1.917008 1.05 -0.867008
412.98046875 1.964936 1.059936 -0.905
413.46875 1.980201 1.042179 -0.938022
413.96875 1.92599 0.986211 -0.939779
414.4921875 1.884621 0.933158 -0.951463
415.0234375 1.726422 0.724347 -1.002075
415.60546875 1.722028 0.769954 -0.952074
416.19921875 1.831902 0.964438 -0.867464
416.8046875 1.866368 1.004502 -0.861866
417.375 1.7491789999999998 0.835 -0.914179
417.92578125 1.807141 1.02255 -0.784591
418.43359375 1.8623219999999998 1.12655 -0.735772
418.9453125 1.897037 1.133106 -0.763931
419.46875 1.7661959999999999 0.947801 -0.818395
420.00390625 1.689711 0.856858 -0.832853
420.5546875 1.6837909999999998 0.850521 -0.83327
421.08203125 1.893658 1.169172 -0.724486
421.62890625 1.8589989999999998 1.104272 -0.754727
422.1796875 1.889899 1.042951 -0.846948
422.75390625 1.76945 0.781182 -0.988268
423.3203125 1.6429960000000001 0.697598 -0.945398
423.89453125 1.603135 0.734906 -0.868229
424.43359375 1.837644 0.923098 -0.914546
424.94140625 1.799052 0.929953 -0.869099
425.4375 1.775802 0.939687 -0.836115
425.93359375 1.7395800000000001 0.820741 -0.918839
426.453125 1.871313 0.894918 -0.976395
427.0 1.8440509999999999 0.92 -0.924051
427.3828125 2.386049 1.608456 -0.777593
427.75 2.908667 1.855 -1.053667
428.28515625 1.751647 0.842517 -0.90913
428.75 1.624726 0.63 -0.994726
429.3125 1.8109060000000001 0.92 -0.890906
429.87109375 1.7183160000000002 0.793393 -0.924923
430.38671875 1.771004 0.960214 -0.81079
430.8984375 1.7849629999999999 0.956544 -0.828419
431.3515625 1.5859139999999998 0.857694 -0.72822
431.9140625 1.785112 0.908894 -0.876218
432.453125 1.5877020000000002 0.798297 -0.789405
432.90625 2.49568 1.792311 -0.703369
433.546875 1.687202 0.857202 -0.83
434.1015625 1.626179 0.801179 -0.825
434.65625 1.700406 0.82418 -0.876226
435.23046875 1.574402 0.789861 -0.784541
435.80859375 1.738194 0.878551 -0.859643
436.34765625 1.9122379999999999 0.976603 -0.935635
436.859375 1.5632540000000001 0.792942 -0.770312
437.36328125 1.782484 0.816777 -0.965707
437.8671875 1.5277509999999999 0.73 -0.797751
438.37890625 1.694235 0.868706 -0.825529
438.91015625 1.8888660000000002 1.058351 -0.830515
439.4296875 1.832074 1.017719 -0.814355
440.0 1.7239559999999998 0.985 -0.738956
440.4296875 3.00973 2.338158 -0.671572
441.17578125 1.649753 0.968099 -0.681654
441.71484375 1.680387 0.949809 -0.730578
442.24609375 1.729107 0.95919 -0.769917
442.75 1.583121 0.765 -0.818121
443.265625 1.524147 0.71 -0.814147
443.78515625 1.56138 0.787934 -0.773446
444.31640625 1.700191 0.984396 -0.715795
444.8359375 1.634607 0.899863 -0.734744
445.3828125 1.6861510000000002 0.831477 -0.854674
445.92578125 1.626999 0.742867 -0.884132
446.48046875 1.608873 0.769862 -0.839011
447.05859375 1.5530789999999999 0.689215 -0.863864
447.58984375 1.613921 0.827051 -0.78687
448.12890625 1.7256179999999999 0.924415 -0.801203
448.640625 1.7327080000000001 0.883 -0.849708
449.16015625 1.568327 0.720344 -0.847983
449.65625 1.7235770000000001 0.831418 -0.892159
450.17578125 1.706148 0.872627 -0.833521
450.6328125 2.287591 1.574289 -0.713302
451.203125 1.644117 0.859125 -0.784992
451.7578125 1.660819 0.789581 -0.871238
452.35546875 1.679329 0.754901 -0.924428
452.921875 1.487824 0.713871 -0.773953
453.49609375 1.6765940000000001 0.952623 -0.723971
454.01171875 1.818849 1.020155 -0.798694
454.515625 1.814911 0.960605 -0.854306
455.01953125 1.839875 0.904956 -0.934919
455.52734375 1.713642 0.677391 -1.036251
456.04296875 1.624916 0.689916 -0.935
456.56640625 1.719668 0.814644 -0.905024
457.1171875 1.7351290000000001 0.790382 -0.944747
457.66015625 1.733143 0.825107 -0.908036
458.23046875 1.6129820000000001 0.724964 -0.888018
458.7890625 1.620298 0.744739 -0.875559
459.3359375 1.64401 0.75454 -0.88947
459.89453125 1.769328 0.938925 -0.830403
460.42578125 1.792234 1.01414 -0.778094
460.9296875 1.72353 0.926959 -0.796571
461.4375 1.796812 0.857572 -0.93924
461.9375 1.556954 0.807708 -0.749246
462.4609375 1.664887 0.844621 -0.820266
462.96484375 1.7476539999999998 0.94 -0.807654
463.515625 1.56154 0.696562 -0.864978
464.046875 1.574764 0.642177 -0.932587
464.62109375 1.6259869999999998 0.710874 -0.915113
465.203125 1.5286870000000001 0.678705 -0.849982
465.7734375 1.839389 0.891793 -0.947596
466.27734375 1.779934 0.93701 -0.842924
466.7890625 1.718642 0.838642 -0.88
467.28515625 1.721552 0.873583 -0.847969
467.79296875 1.6029330000000002 0.770066 -0.832867
468.33203125 1.60379 0.853843 -0.749947
468.87109375 1.788058 0.973154 -0.814904
469.41796875 1.773851 0.978851 -0.795
469.99609375 1.714618 0.899216 -0.815402
470.55078125 1.716202 0.853663 -0.862539
471.109375 1.838769 0.926846 -0.911923
471.66015625 1.835122 0.895415 -0.939707
472.17578125 1.835563 0.777814 -1.057749
472.69140625 1.7521769999999999 0.734108 -1.018069
473.19921875 1.73502 0.683039 -1.051981
473.7109375 1.6792799999999999 0.564429 -1.114851
474.23046875 1.55003 0.399906 -1.150124
474.76953125 1.394203 0.284316 -1.109887
475.296875 1.480062 0.484051 -0.996011
475.828125 1.61423 0.76923 -0.845
476.3828125 1.704914 0.782132 -0.922782
476.97265625 1.615 0.675 -0.94
477.54296875 1.4091879999999999 0.498824 -0.910364
478.10546875 1.45078 0.595559 -0.855221
478.6015625 1.773515 0.908515 -0.865
479.09765625 1.75888 0.966519 -0.792361
479.58984375 1.768304 0.852742 -0.915562
480.1015625 1.603125 0.703125 -0.9
480.609375 1.533934 0.670988 -0.862946
481.16015625 1.680702 0.871203 -0.809499
481.53515625 3.069424 2.342934 -0.72649
482.26953125 1.7176930000000001 0.905 -0.812693
482.8125 1.6432190000000002 0.738693 -0.904526
483.375 1.605509 0.705 -0.900509
483.8984375 1.589791 0.662921 -0.92687
484.4140625 1.660867 0.75993 -0.900937
484.921875 1.701859 0.844701 -0.857158
485.4296875 1.73629 0.874301 -0.861989
485.91015625 1.6917939999999998 0.76272 -0.929074
486.44140625 1.583857 0.709406 -0.874451
486.9375 1.6184690000000002 0.755 -0.863469
487.46875 1.785736 0.928499 -0.857237
487.98828125 1.767119 0.927997 -0.839122
488.53125 1.7498369999999999 0.955305 -0.794532
489.05859375 1.647967 0.822988 -0.824979
489.61328125 1.667224 0.83687 -0.830354
490.15234375 1.729702 0.856405 -0.873297
490.6640625 1.739029 0.898594 -0.840435
491.15625 1.731101 0.79206 -0.939041
491.66015625 1.644116 0.805186 -0.83893
492.15234375 1.624414 0.828155 -0.796259
492.66015625 1.6961689999999998 0.875906 -0.820263
493.203125 1.722764 0.867425 -0.855339
493.7734375 1.642217 0.778591 -0.863626
494.3359375 1.625478 0.740569 -0.884909
494.74609375 3.2309769999999998 2.363647 -0.86733
495.4296875 1.716753 0.820688 -0.896065
495.9609375 1.698251 0.853813 -0.844438
496.44140625 2.611573 1.792872 -0.818701
496.98046875 1.588509 0.764964 -0.823545
497.484375 1.542377 0.783418 -0.758959
497.9921875 1.603772 0.892 -0.711772
498.51953125 1.743106 0.939863 -0.803243
498.91796875 2.771014 1.866566 -0.904448
499.2109375 2.342511 1.642584 -0.699927
500.14453125 1.4002 0.695285 -0.704915
500.6015625 2.214932 1.73532 -0.479612
501.26953125 1.591822 0.919994 -0.671828
501.84375 1.6792980000000002 0.866071 -0.813227
502.375 1.7499889999999998 0.955 -0.794989
502.8828125 1.621699 0.830361 -0.791338
503.3828125 1.475903 0.755903 -0.72
503.88671875 1.6610390000000002 0.903946 -0.757093
504.38671875 1.790141 1.091902 -0.698239
504.9140625 1.8131869999999999 1.059489 -0.753698
505.43359375 1.7097069999999999 0.943642 -0.766065
506.0 1.666704 0.855 -0.811704
506.5625 1.725201 0.786094 -0.939107
507.14453125 1.595203 0.710776 -0.884427
507.69140625 1.5308350000000002 0.71467 -0.816165
508.18359375 2.085812 1.46483 -0.620982
508.72265625 1.735419 0.834172 -0.901247
509.21875 1.656134 0.743344 -0.91279
509.73046875 1.703849 0.839975 -0.863874
510.265625 1.607787 0.723422 -0.884365
510.78515625 1.614658 0.829658 -0.785
511.328125 1.754485 0.869519 -0.884966
511.8515625 1.7161330000000001 0.785311 -0.930822
512.40625 1.61537 0.640878 -0.974492
512.96484375 1.567454 0.718814 -0.84864
513.51953125 1.516389 0.664966 -0.851423
514.05078125 1.699493 0.815943 -0.88355
514.56640625 1.793755 0.884731 -0.909024
515.07421875 1.773653 0.857113 -0.91654
515.57421875 1.663286 0.703951 -0.959335
516.08984375 1.611052 0.71 -0.901052
516.61328125 1.5991710000000001 0.696448 -0.902723
517.1328125 1.669179 0.893724 -0.775455
517.67578125 1.686969 0.892326 -0.794643
518.265625 1.7625899999999999 0.851841 -0.910749
518.85546875 1.6699000000000002 0.77029 -0.89961
519.4375 1.563698 0.739333 -0.824365
519.98046875 1.468947 0.659592 -0.809355
520.5 1.6867489999999998 0.815 -0.871749
520.99609375 1.7138399999999998 0.844818 -0.869022
521.50390625 1.612554 0.758789 -0.853765
521.99609375 1.673032 0.755672 -0.91736
522.54296875 1.6099890000000001 0.651621 -0.958368
523.09765625 1.553289 0.645136 -0.908153
523.6875 1.608417 0.66872 -0.939697
524.2421875 1.7298740000000001 0.76 -0.969874
524.81640625 1.677562 0.769389 -0.908173
525.359375 1.682681 0.716418 -0.966263
525.9140625 1.604495 0.659902 -0.944593
526.4609375 1.481171 0.609 -0.872171
526.8125 2.427815 1.628646 -0.799169
527.4921875 1.537925 0.633789 -0.904136
528.0078125 1.621779 0.741779 -0.88
528.5234375 1.8250739999999999 0.790986 -1.034088
529.046875 1.5611609999999998 0.654326 -0.906835
529.6171875 1.499145 0.604585 -0.89456
530.16796875 1.527079 0.622176 -0.904903
530.73828125 1.70904 0.799138 -0.909902
531.3046875 1.745681 0.804732 -0.940949
531.875 1.722987 0.78 -0.942987
532.39453125 1.721579 0.734861 -0.986718
532.90625 1.581 0.658016 -0.922984
533.3359375 2.8191100000000002 2.014536 -0.804574
533.6875 2.8974460000000004 2.207422 -0.690024
534.4453125 1.602599 0.820585 -0.782014
535.0078125 1.6306379999999998 0.843004 -0.787634
535.5625 1.738756 0.875132 -0.863624
536.14453125 1.602084 0.71 -0.892084
536.6953125 1.497004 0.647538 -0.849466
537.265625 1.534014 0.695 -0.839014
537.8203125 1.73517 0.87774 -0.85743
538.33203125 1.661281 0.906292 -0.754989
538.8359375 1.652165 0.864623 -0.787542
539.33203125 1.635015 0.790786 -0.844229
539.84765625 1.593264 0.773264 -0.82
540.35546875 1.653809 0.774947 -0.878862
540.875 1.7295820000000002 0.89 -0.839582
541.3828125 1.636952 0.849638 -0.787314
541.90625 1.728669 0.834661 -0.894008
542.46875 1.594335 0.750833 -0.843502
543.05859375 1.539651 0.754896 -0.784755
543.61328125 1.61097 0.813862 -0.797108
544.15234375 1.674966 0.911408 -0.763558
544.63671875 1.778392 0.944747 -0.833645
545.1328125 1.7509890000000001 0.917775 -0.833214
545.62109375 1.74279 0.862951 -0.879839
546.13671875 1.563318 0.771457 -0.791861
546.63671875 1.6904050000000002 0.891673 -0.798732
547.17578125 1.7859690000000001 0.924625 -0.861344
547.7265625 1.762944 0.888847 -0.874097
548.30078125 1.739244 0.829327 -0.909917
548.8671875 1.7254200000000002 0.836419 -0.889001
549.4296875 1.6832120000000002 0.809701 -0.873511
549.96875 1.662781 0.774167 -0.888614
550.48828125 1.7784879999999998 0.864308 -0.91418
551.0078125 1.772881 0.87821 -0.894671
551.515625 1.699896 0.873882 -0.826014
552.03125 1.64334 0.778323 -0.865017
552.55859375 1.671004 0.783897 -0.887107
553.0859375 1.668507 0.779843 -0.888664
553.62109375 1.6895609999999999 0.744695 -0.944866
554.18359375 1.7995039999999998 0.76957 -1.029934
554.71875 1.676262 0.765302 -0.91096
555.2578125 2.402622 1.663916 -0.738706
555.86328125 1.6524809999999999 0.703718 -0.948763
556.3984375 1.560827 0.676665 -0.884162
556.89453125 1.844946 0.894946 -0.95
557.390625 1.735798 0.877484 -0.858314
557.87890625 1.5896400000000002 0.806953 -0.782687
558.3984375 1.598323 0.787195 -0.811128
558.9296875 1.807855 0.978158 -0.829697
559.49609375 1.76371 0.890913 -0.872797
560.046875 1.699782 0.772207 -0.927575
560.64453125 1.573169 0.709966 -0.863203
561.17578125 1.6405910000000001 0.770536 -0.870055
561.71484375 1.800401 0.867729 -0.932672
562.23046875 1.7899889999999998 0.814878 -0.975111
562.62890625 2.923057 1.945683 -0.977374
563.2421875 1.5301870000000002 0.616596 -0.913591
563.74609375 1.5736620000000001 0.703692 -0.86997
564.2734375 1.733085 0.933243 -0.799842
564.7734375 1.767772 0.966587 -0.801185
565.30859375 1.852805 0.979511 -0.873294
565.83984375 1.7304 0.769377 -0.961023
566.37890625 1.655945 0.742738 -0.913207
566.9453125 1.692256 0.811763 -0.880493
567.52734375 1.840458 1.036402 -0.804056
567.9765625 2.475571 1.615903 -0.859668
568.55859375 1.8353679999999999 0.954041 -0.881327
569.046875 1.6879439999999999 0.708625 -0.979319
569.5546875 1.7062599999999999 0.787399 -0.918861
570.046875 1.86292 0.948989 -0.913931
570.5703125 1.847991 0.940584 -0.907407
571.078125 1.7749100000000002 0.759939 -1.014971
571.64453125 1.8380640000000001 0.844893 -0.993171
572.21484375 1.8182710000000002 0.882959 -0.935312
572.66796875 2.936112 1.996961 -0.939151
572.9921875 1.973816 1.119356 -0.85446
573.875 1.561191 0.685 -0.876191
574.39453125 1.689128 0.755832 -0.933296
574.8984375 1.792851 0.849575 -0.943276
575.41015625 1.804562 0.815729 -0.988833
575.92578125 1.7826629999999999 0.768362 -1.014301
576.45703125 1.6741389999999998 0.689989 -0.98415
577.00390625 1.6702569999999999 0.734197 -0.93606
577.5234375 1.70966 0.821895 -0.887765
578.06640625 1.8070330000000001 0.874292 -0.932741
578.62890625 1.690968 0.75463 -0.936338
579.1796875 1.6714820000000001 0.682399 -0.989083
579.7421875 1.6527479999999999 0.718866 -0.933882
580.26171875 1.872399 0.89313 -0.979269
580.78125 1.807185 0.779038 -1.028147
581.28515625 1.814713 0.794713 -1.02
581.7890625 1.731579 0.664902 -1.066677
582.30859375 1.665803 0.636625 -1.029178
582.82421875 1.6763940000000002 0.657496 -1.018898
583.375 1.78 0.85 -0.93
583.95703125 1.6889120000000002 0.782414 -0.906498
584.5234375 1.78171 0.789521 -0.992189
585.10546875 1.70163 0.665 -1.03663
585.65234375 1.625254 0.646396 -0.978858
586.18359375 1.610264 0.712351 -0.897913
586.68359375 1.745633 0.83906 -0.906573
587.1875 1.795236 0.837262 -0.957974
587.67578125 1.8215249999999998 0.742638 -1.078887
588.1953125 1.656977 0.624211 -1.032766
588.72265625 1.7721589999999998 0.687159 -1.085
589.28125 1.770246 0.725341 -1.044905
589.8046875 1.8540290000000001 0.864703 -0.989326
590.23828125 2.969842 1.98218 -0.987662
590.8828125 1.8107350000000002 0.827528 -0.983207
591.42578125 1.695649 0.6868 -1.008849
591.859375 1.667316 0.725 -0.942316
592.51171875 1.721321 0.742778 -0.978543
593.0078125 1.850808 0.900808 -0.95
593.51171875 1.8715060000000001 0.914882 -0.956624
593.99609375 1.868145 0.853186 -1.014959
594.515625 1.705125 0.755569 -0.949556
595.04296875 1.6067559999999999 0.716441 -0.890315
595.578125 1.86116 0.948187 -0.912973
596.125 1.891385 0.945 -0.946385
596.67578125 1.9388580000000002 0.906861 -1.031997
597.24609375 1.741163 0.778579 -0.962584
597.80078125 1.697216 0.717449 -0.979767
598.3203125 1.7175120000000001 0.742538 -0.974974
598.81640625 1.81955 0.839574 -0.979976
599.30078125 1.80703 0.830571 -0.976459
599.80859375 1.881441 0.867999 -1.013442
600.3359375 1.731284 0.709757 -1.021527
600.86328125 1.7165300000000001 0.735454 -0.981076
601.40625 1.712696 0.752852 -0.959844
601.94921875 1.794721 0.796286 -0.998435
602.4921875 1.8080990000000001 0.768205 -1.039894
603.03515625 1.8308719999999998 0.743677 -1.087195
603.60546875 1.8414920000000001 0.780299 -1.061193
604.125 1.7863259999999999 0.845 -0.941326
604.64453125 1.8676629999999999 0.870296 -0.997367
605.1484375 1.784452 0.79151 -0.992942
605.671875 1.6648619999999998 0.658283 -1.006579
606.17578125 1.666794 0.654576 -1.012218
606.69921875 1.8343150000000001 0.847542 -0.986773
607.21875 1.8735 0.880243 -0.993257
607.76171875 1.76702 0.804456 -0.962564
608.26953125 2.63666 1.755 -0.88166
608.94140625 1.6032579999999998 0.714336 -0.888922
609.4921875 1.704519 0.803148 -0.901371
610.04296875 1.863964 0.93504 -0.928924
610.55078125 1.703538 0.758538 -0.945
611.0625 1.6677819999999999 0.757803 -0.909979
611.56640625 1.689713 0.77 -0.919713
612.07421875 1.66653 0.728068 -0.938462
612.59375 1.71006 0.803309 -0.906751
613.12890625 1.772848 0.806034 -0.966814
613.6953125 1.828078 0.77448 -1.053598
614.26953125 1.843157 0.815 -1.028157
614.83984375 1.67029 0.697691 -0.972599
615.41015625 1.642356 0.667356 -0.975
615.94921875 1.678442 0.784364 -0.894078
616.359375 3.089531 2.220656 -0.868875
617.00390625 1.8575309999999998 0.881953 -0.975578
617.51171875 1.79753 0.828699 -0.968831
618.0390625 1.820879 0.879238 -0.941641
618.55859375 1.6018279999999998 0.669839 -0.931989
619.09765625 1.676496 0.748034 -0.928462
619.546875 3.112291 2.198958 -0.913333
620.21484375 1.802159 0.925382 -0.876777
620.7421875 1.773039 0.878173 -0.894866
621.3203125 1.910099 0.958924 -0.951175
621.8671875 1.848583 0.823735 -1.024848
622.40234375 1.713893 0.711494 -1.002399
622.91015625 1.63327 0.663636 -0.969634
623.41796875 1.760633 0.792357 -0.968276
623.90625 1.797616 0.863121 -0.934495
624.41015625 1.760851 0.868157 -0.892694
624.94140625 1.829911 0.809103 -1.020808
625.5078125 1.7921200000000002 0.781748 -1.010372
626.0625 1.761698 0.778698 -0.983
626.64453125 1.651959 0.75449 -0.897469
627.1796875 1.814756 0.85251 -0.962246
627.71484375 1.847651 0.887839 -0.959812
628.23828125 1.8178329999999998 0.883458 -0.934375
628.7421875 1.822601 0.877508 -0.945093
629.25390625 1.729469 0.805 -0.924469
629.765625 1.819291 0.859312 -0.959979
630.30859375 1.815377 0.889843 -0.925534
630.83203125 1.8735300000000001 0.933851 -0.939679
631.37890625 1.8320789999999998 0.887079 -0.945
631.93359375 1.8482530000000001 0.897051 -0.951202
632.48828125 1.7190349999999999 0.827129 -0.891906
633.06640625 1.728555 0.854374 -0.874181
633.65234375 1.845494 0.993283 -0.852211
634.18359375 1.866171 0.94454 -0.921631
634.7109375 1.83878 0.884642 -0.954138
635.21484375 1.8735970000000002 0.899391 -0.974206
635.7265625 1.713825 0.761659 -0.952166
636.25390625 1.6427260000000001 0.718163 -0.924563
636.80078125 1.76831 0.809405 -0.958905
637.33984375 1.838664 0.873495 -0.965169
637.9140625 1.8422720000000001 0.828562 -1.01371
638.50390625 1.880528 0.829139 -1.051389
639.08984375 1.753392 0.714264 -1.039128
639.671875 1.7085720000000002 0.685955 -1.022617
640.2109375 1.712101 0.684484 -1.027617
640.7265625 1.769363 0.777271 -0.992092
641.23828125 1.884545 0.866401 -1.018144
641.76171875 1.9697680000000002 0.800177 -1.169591
642.30859375 1.8579890000000001 0.70774 -1.150249
642.85546875 1.7474919999999998 0.684899 -1.062593
643.40625 1.623749 0.589276 -1.034473
643.96484375 1.683312 0.627773 -1.055539
644.5234375 1.708412 0.716826 -0.991586
645.0859375 1.753306 0.759501 -0.993805
645.625 1.714839 0.67 -1.044839
646.04296875 3.313457 2.248457 -1.065
646.6953125 1.630244 0.60615 -1.024094
647.19921875 1.555186 0.716387 -0.838799
647.6875 1.909111 0.955135 -0.953976
648.1875 1.9618160000000002 0.903733 -1.058083
648.6953125 1.810658 0.816696 -0.993962
649.23828125 1.678106 0.729852 -0.948254
649.8359375 1.7303579999999998 0.779952 -0.950406
650.421875 1.798713 0.924205 -0.874508
650.8125 2.382037 1.482037 -0.9
651.56640625 1.814517 0.823189 -0.991328
652.1015625 1.78187 0.72687 -1.055
652.6171875 1.771763 0.817306 -0.954457
653.14453125 1.739355 0.769454 -0.969901
653.640625 1.854991 0.895458 -0.959533
654.046875 3.15189 2.119297 -1.032593
654.69921875 1.788824 0.840139 -0.948685
655.25390625 1.74281 0.724069 -1.018741
655.8046875 1.779844 0.785501 -0.994343
656.375 1.657983 0.715 -0.942983
656.79296875 2.476349 1.566566 -0.909783
657.48046875 1.801159 0.844966 -0.956193
658.04296875 1.7924149999999999 0.73847 -1.053945
658.5703125 1.8634 0.829742 -1.033658
659.08984375 1.801331 0.742782 -1.058549
659.58984375 1.7495120000000002 0.702624 -1.046888
660.10546875 1.6812529999999999 0.634947 -1.046306
660.6171875 1.8031670000000002 0.788339 -1.014828
661.1640625 1.895044 0.879757 -1.015287
661.69921875 1.8500429999999999 0.857354 -0.992689
662.2734375 1.8691229999999999 0.829985 -1.039138
662.8515625 1.73109 0.743945 -0.987145
663.4453125 1.709914 0.70524 -1.004674
663.99609375 1.7204350000000002 0.730468 -0.989967
664.515625 1.8406829999999998 0.896536 -0.944147
665.0078125 1.9030200000000002 0.919512 -0.983508
665.515625 1.837834 0.852855 -0.984979
666.05078125 1.7867860000000002 0.827092 -0.959694
666.59765625 1.6938149999999998 0.775211 -0.918604
667.14453125 1.662577 0.790546 -0.872031
667.70703125 1.766102 0.856227 -0.909875
668.26171875 1.858342 0.999166 -0.859176
668.80859375 1.8962539999999999 0.988897 -0.907357
669.37890625 1.819441 0.882441 -0.937
669.9140625 1.752351 0.799018 -0.953333
670.45703125 1.675311 0.765403 -0.909908
670.984375 1.592351 0.708593 -0.883758
671.5078125 1.728173 0.810935 -0.917238
672.01953125 1.833479 0.96993 -0.863549
672.54296875 1.913288 1.015087 -0.898201
673.05078125 2.716186 2.016457 -0.699729
673.63671875 1.768091 0.963224 -0.804867
674.23046875 1.6345230000000002 0.844608 -0.789915
674.859375 1.706877 0.939138 -0.767739
675.44140625 1.7021000000000002 0.954215 -0.747885
675.98828125 1.922841 1.137006 -0.785835
676.49609375 1.858171 1.023171 -0.835
676.99609375 1.870955 0.996066 -0.874889
677.515625 1.710348 0.871379 -0.838969
678.01953125 1.719449 0.9099 -0.809549
678.5546875 1.743027 0.908704 -0.834323
679.09375 1.8094109999999999 1.024803 -0.784608
679.66015625 1.8547630000000002 0.98582 -0.868943
680.22265625 1.8826390000000002 0.992639 -0.89
680.79296875 1.583831 0.754384 -0.829447
681.3359375 1.6340729999999999 0.798886 -0.835187
681.88671875 1.6074519999999999 0.818634 -0.788818
682.29296875 3.072688 2.302688 -0.77
682.92578125 1.744154 0.914154 -0.83
683.41015625 1.746334 0.849626 -0.896708
683.91796875 1.657755 0.82842 -0.829335
684.41796875 1.636622 0.766921 -0.869701
684.93359375 1.6707969999999999 0.878118 -0.792679
685.48046875 1.754682 0.955559 -0.799123
686.00390625 1.8426230000000001 0.991322 -0.851301
686.5703125 1.827442 0.928518 -0.898924
687.1328125 1.760675 0.871951 -0.888724
687.7109375 1.672711 0.851135 -0.821576
688.2265625 1.85127 1.03127 -0.82
688.734375 1.784304 1.010444 -0.77386
689.22265625 1.86877 1.019489 -0.849281
689.72265625 1.742819 0.953526 -0.789293
690.25 1.749412 0.945 -0.804412
690.80859375 1.708564 0.889241 -0.819323
691.3515625 1.832187 0.992187 -0.84
691.92578125 1.805473 0.916435 -0.889038
692.4765625 1.784049 0.867871 -0.916178
693.046875 1.741716 0.815195 -0.926521
693.6015625 1.720908 0.835578 -0.88533
694.14453125 1.609796 0.73097 -0.878826
694.66796875 1.738536 0.803536 -0.935
695.1796875 1.786527 0.784478 -1.002049
695.69921875 1.742016 0.766079 -0.975937
696.22265625 1.7523520000000001 0.749415 -1.002937
696.75390625 1.703332 0.694011 -1.009321
697.296875 1.64508 0.694195 -0.950885
697.83984375 1.641583 0.747103 -0.89448
698.3984375 1.799284 0.92792 -0.871364
698.9765625 1.7537 0.866442 -0.887258
699.546875 1.743537 0.813747 -0.92979
700.09765625 1.7026789999999998 0.742679 -0.96
700.61328125 1.58866 0.629198 -0.959462
701.125 1.615351 0.64 -0.975351
701.62109375 1.688711 0.728794 -0.959917
702.1328125 1.845844 0.916174 -0.92967
702.62890625 1.844872 0.86277 -0.982102
703.171875 1.8679259999999998 0.829487 -1.038439
703.7265625 1.711033 0.727167 -0.983866
704.31640625 1.687742 0.689562 -0.99818
704.8671875 1.698144 0.658339 -1.039805
705.4296875 1.812166 0.86 -0.952166
705.9453125 1.814633 0.818557 -0.996076
706.46875 1.885481 0.830969 -1.054512
706.9921875 1.6876449999999998 0.71709 -0.970555
707.51953125 1.72405 0.744832 -0.979218
708.0390625 1.6834419999999999 0.734725 -0.948717
708.56640625 1.833523 0.914637 -0.918886
709.07421875 1.8563399999999999 0.950045 -0.906295
709.609375 1.879316 0.923484 -0.955832
710.16796875 1.841182 0.904997 -0.936185
710.71875 1.8026309999999999 0.846154 -0.956477
711.296875 1.642142 0.732142 -0.91
711.83984375 1.69159 0.798646 -0.892944
712.37109375 1.8563200000000002 0.937115 -0.919205
712.8671875 1.894777 0.903798 -0.990979
713.375 1.864926 0.795 -1.069926
713.875 1.7225960000000002 0.68 -1.042596
714.390625 1.6920259999999998 0.633765 -1.058261
714.93359375 1.7776239999999999 0.723753 -1.053871
715.5 1.90338 0.895 -1.00838
716.046875 1.915715 0.837989 -1.077726
716.625 1.7950720000000002 0.765 -1.030072
717.171875 1.668461 0.629205 -1.039256
717.72265625 1.654293 0.559394 -1.094899
718.2421875 1.6430440000000002 0.662243 -0.980801
718.75390625 1.7435489999999998 0.710822 -1.032727
719.2421875 1.758638 0.724633 -1.034005
719.74609375 1.829137 0.694326 -1.134811
720.25390625 1.764398 0.63 -1.134398
720.78515625 1.7488929999999998 0.620518 -1.128375
721.30859375 1.787893 0.729507 -1.058386
721.86328125 1.925141 0.8672 -1.057941
722.390625 1.9111 0.856536 -1.054564
722.9296875 1.908192 0.856772 -1.05142
723.46484375 2.7748939999999997 1.943673 -0.831221
723.82421875 2.583747 1.989576 -0.594171
724.5625 1.62201 0.720391 -0.901619
725.078125 1.740151 0.833594 -0.906557
725.56640625 1.9633280000000002 1.024361 -0.938967
726.0703125 1.875845 0.919005 -0.95684
726.59375 1.8827289999999999 0.959604 -0.923125
727.12890625 1.775241 0.865241 -0.91
727.6875 1.683619 0.82819 -0.855429
728.2578125 1.7573150000000002 0.876681 -0.880634
728.84765625 1.934724 1.014724 -0.92
729.41015625 1.9310049999999999 0.977194 -0.953811
729.96484375 1.8967170000000002 0.923112 -0.973605
730.484375 1.758174 0.811977 -0.946197
731.0 1.770378 0.815 -0.955378
731.515625 1.860088 0.925458 -0.93463
732.05078125 1.929741 0.936784 -0.992957
732.578125 1.888282 0.918548 -0.969734
733.13671875 1.835738 0.87705 -0.958688
733.546875 3.329689 2.404689 -0.925
734.25 1.706296 0.79 -0.916296
734.80078125 1.644578 0.777296 -0.867282
735.36328125 1.902823 1.019499 -0.883324
735.890625 1.888112 0.923418 -0.964694
736.42578125 1.8432520000000001 0.856626 -0.986626
736.94140625 1.7054209999999999 0.761087 -0.944334
737.45703125 1.5896 0.640225 -0.949375
737.97265625 1.630011 0.687853 -0.942158
738.48828125 1.711745 0.812941 -0.898804
739.0 1.7702559999999998 0.845 -0.925256
739.53125 1.7389999999999999 0.784 -0.955
740.109375 1.644261 0.67577 -0.968491
740.69140625 1.619413 0.706653 -0.91276
741.25390625 1.668857 0.754197 -0.91466
741.796875 1.866757 0.902237 -0.96452
742.29296875 1.8697949999999999 0.891957 -0.977838
742.7890625 1.854109 0.88485 -0.969259
743.296875 1.808519 0.84123 -0.967289
743.68359375 3.203442 2.318648 -0.884794
744.3125 1.701549 0.811923 -0.889626
744.83203125 1.839525 0.935403 -0.904122
745.39453125 1.943323 1.010288 -0.933035
745.94140625 1.875537 0.949409 -0.926128
746.51171875 1.83727 0.892786 -0.944484
747.0625 1.806963 0.867708 -0.939255
747.61328125 1.8109380000000002 0.9122 -0.898738
748.15625 1.9089610000000001 1.000243 -0.908718
748.68359375 1.951416 1.007996 -0.94342
749.18359375 1.930529 0.93917 -0.991359
749.69921875 1.8520750000000001 0.866047 -0.986028
750.21484375 1.8285909999999999 0.87144 -0.957151
750.7421875 1.867737 0.923659 -0.944078
751.28125 1.855366 0.905824 -0.949542
751.83984375 1.871708 0.894291 -0.977417
752.40234375 1.787771 0.824166 -0.963605
752.984375 1.718006 0.768066 -0.94994
753.57421875 1.726191 0.747113 -0.979078
754.12109375 1.783057 0.788163 -0.994894
754.63671875 1.8114620000000001 0.824746 -0.986716
755.140625 1.9014280000000001 0.806648 -1.09478
755.64453125 1.862021 0.734956 -1.127065
756.17578125 1.7293790000000002 0.65 -1.079379
756.73828125 1.6817579999999999 0.608674 -1.073084
757.30078125 1.7448160000000001 0.690125 -1.054691
757.87890625 1.846742 0.809196 -1.037546
758.43359375 1.82634 0.774953 -1.051387
758.99609375 1.811407 0.706439 -1.104968
759.5546875 1.758197 0.648793 -1.109404
760.11328125 1.736815 0.608699 -1.128116
760.640625 1.7725849999999999 0.702986 -1.069599
761.15625 1.8644819999999998 0.823938 -1.040544
761.67578125 1.882566 0.798179 -1.084387
762.20703125 1.814691 0.736234 -1.078457
762.75 1.659348 0.65 -1.009348
763.29296875 1.647142 0.630476 -1.016666
763.84765625 1.742156 0.789049 -0.953107
764.41796875 1.8067090000000001 0.837835 -0.968874
765.03125 1.848763 0.814137 -1.034626
765.609375 1.7995130000000001 0.729734 -1.069779
766.171875 1.6845279999999998 0.661863 -1.022665
766.67578125 1.630717 0.608484 -1.022233
767.19140625 1.8417919999999999 0.863401 -0.978391
767.6953125 1.835696 0.854017 -0.981679
768.21484375 1.7807680000000001 0.827319 -0.953449
768.7421875 1.73543 0.729444 -1.005986
769.30078125 1.621331 0.649282 -0.972049
769.89453125 1.588025 0.62992 -0.958105
770.46484375 1.7438259999999999 0.826179 -0.917647
771.03125 1.776824 0.867079 -0.909745
771.5703125 1.857395 0.885 -0.972395
772.10546875 1.777295 0.834965 -0.94233
772.64453125 1.6526049999999999 0.739982 -0.912623
773.1796875 1.6273819999999999 0.691603 -0.935779
773.6875 1.708221 0.820268 -0.887953
774.2109375 1.822443 0.90937 -0.913073
774.71875 1.86468 0.88468 -0.98
775.2734375 1.818351 0.809491 -1.00886
775.83203125 1.583619 0.622963 -0.960656
776.40234375 1.585434 0.667902 -0.917532
776.8515625 3.252511 2.285524 -0.966987
777.5234375 1.740739 0.856725 -0.884014
778.0703125 1.6057190000000001 0.642143 -0.963576
778.57421875 1.668691 0.721435 -0.947256
779.078125 1.5757189999999999 0.652508 -0.923211
779.5625 1.75749 0.787714 -0.969776
780.04296875 1.7581820000000001 0.790616 -0.967566
780.55859375 1.772065 0.798098 -0.973967
781.10546875 1.7562570000000002 0.739947 -1.01631
781.671875 1.712057 0.774118 -0.937939
782.25 1.74559 0.79 -0.95559
782.80859375 1.920016 0.969443 -0.950573
783.3515625 1.968856 0.991347 -0.977509
783.87109375 1.937341 0.959358 -0.977983
784.3984375 1.847815 0.913181 -0.934634
784.8984375 1.8368069999999999 0.853964 -0.982843
785.4140625 1.6827420000000002 0.781101 -0.901641
785.9375 1.855745 0.933191 -0.922554
786.4765625 1.946132 0.983154 -0.962978
787.00390625 1.980119 0.956275 -1.023844
787.55859375 1.843277 0.87 -0.973277
788.12109375 1.816 0.781161 -1.034839
788.703125 1.793783 0.768036 -1.025747
789.30078125 1.8697599999999999 0.872857 -0.996903
789.87109375 1.9235170000000001 0.878716 -1.044801
790.3984375 1.881201 0.863277 -1.017924
790.9140625 1.810726 0.809202 -1.001524
791.41796875 1.731382 0.709214 -1.022168
791.9296875 1.6767180000000002 0.652356 -1.024362
792.47265625 1.787341 0.796685 -0.990656
792.98828125 1.852216 0.845183 -1.007033
793.5546875 1.838342 0.82757 -1.010772
794.13671875 1.722986 0.718642 -1.004344
794.734375 1.741677 0.718974 -1.022703
795.30078125 1.7176740000000001 0.695571 -1.022103
795.85546875 1.81761 0.844981 -0.972629
796.37109375 1.8725999999999998 0.862723 -1.009877
796.890625 1.755992 0.805222 -0.95077
797.41796875 1.785593 0.768531 -1.017062
797.94921875 1.700285 0.713461 -0.986824
798.48828125 1.698255 0.712786 -0.985469
799.02734375 1.739049 0.833535 -0.905514
799.56640625 1.928076 0.913553 -1.014523
800.1171875 1.893805 0.858923 -1.034882
800.69921875 1.8017279999999998 0.767624 -1.034104
801.25390625 1.6769690000000002 0.674128 -1.002841
801.828125 1.600432 0.621534 -0.978898
802.36328125 1.6646990000000002 0.695955 -0.968744
802.87890625 1.865821 0.915893 -0.949928
803.37109375 1.907198 0.88733 -1.019868
803.875 1.857695 0.82 -1.037695
804.390625 1.72398 0.674516 -1.049464
804.92578125 1.615983 0.598444 -1.017539
805.5 1.676133 0.695 -0.981133
806.08203125 1.791285 0.826804 -0.964481
806.640625 1.779299 0.829299 -0.95
807.203125 1.741539 0.658184 -1.083355
807.75 1.572873 0.64 -0.932873
808.2734375 1.5625559999999998 0.624521 -0.938035
808.79296875 1.6531 0.75963 -0.89347
809.2734375 1.7709929999999998 0.788337 -0.982656
809.77734375 1.800364 0.837965 -0.962399
810.28515625 1.810001 0.810344 -0.999657
810.83203125 1.7723879999999999 0.809983 -0.962405
811.36328125 1.770679 0.793002 -0.977677
811.921875 1.811357 0.859049 -0.952308
812.44921875 1.931412 0.951092 -0.98032
812.98828125 1.858759 0.843759 -1.015
813.484375 2.581048 1.767574 -0.813474
814.11328125 1.659403 0.652056 -1.007347
814.625 1.670583 0.655 -1.015583
815.13671875 1.8872550000000001 0.923564 -0.963691
815.6171875 1.921534 0.856441 -1.065093
816.12890625 1.923861 0.879267 -1.044594
816.64453125 1.743728 0.739929 -1.003799
817.1875 1.6975 0.713469 -0.984031
817.73828125 1.696223 0.716223 -0.98
818.30078125 1.848241 0.919511 -0.92873
818.875 1.9152079999999998 0.89 -1.025208
819.4375 1.8323939999999999 0.813041 -1.019353
819.984375 1.7485570000000001 0.730971 -1.017586
820.50390625 1.660293 0.653033 -1.00726
821.015625 1.60572 0.656286 -0.949434
821.53125 1.807774 0.825676 -0.982098
822.0625 1.800882 0.751379 -1.049503
822.59375 1.800483 0.765074 -1.035409
823.15234375 1.7067189999999999 0.647902 -1.058817
823.7109375 1.715008 0.62661 -1.088398
824.2734375 1.6584379999999999 0.615759 -1.042679
824.8125 1.841213 0.841 -1.000213
825.375 1.8625129999999999 0.86 -1.002513
825.8984375 1.885644 0.81 -1.075644
826.4296875 1.803996 0.717592 -1.086404
826.9453125 1.680456 0.615892 -1.064564
827.46875 1.633859 0.574303 -1.059556
827.9765625 1.719191 0.654191 -1.065
828.4921875 1.887575 0.848187 -1.039388
829.0 1.875641 0.805 -1.070641
829.54296875 1.841514 0.715059 -1.126455
830.125 1.712904 0.625 -1.087904
830.72265625 1.654717 0.559717 -1.095
831.29296875 1.730121 0.665526 -1.064595
831.83984375 1.896657 0.8826 -1.014057
832.34765625 1.927861 0.842467 -1.085394
832.85546875 1.849931 0.799931 -1.05
833.37109375 1.589814 0.577514 -1.0123
833.87109375 1.570596 0.551322 -1.019274
834.38671875 1.699721 0.70436 -0.995361
834.90234375 1.7539690000000001 0.778283 -0.975686
835.45703125 1.792426 0.803833 -0.988593
835.91015625 3.014857 1.94281 -1.072047
836.5625 1.700009 0.742692 -0.957317
837.11328125 1.78058 0.792997 -0.987583
837.640625 2.001934 1.063643 -0.938291
838.15625 1.983622 0.971362 -1.01226
838.67578125 2.001092 0.98914 -1.011952
839.17578125 1.855438 0.869835 -0.985603
839.6875 1.7554699999999999 0.860772 -0.894698
840.203125 1.6379549999999998 0.83 -0.807955
840.71875 1.8618519999999998 1.022133 -0.839719
841.23046875 1.909926 1.019926 -0.89
841.7890625 1.934312 1.004842 -0.92947
842.328125 1.888463 0.93265 -0.955813
842.8984375 1.727103 0.806757 -0.920346
843.46484375 1.780069 0.842779 -0.93729
844.02734375 1.904898 0.996383 -0.908515
844.53515625 1.9063919999999999 0.927797 -0.978595
845.05078125 1.837699 0.84 -0.997699
845.546875 1.8165710000000002 0.793268 -1.023303
846.0625 1.7906929999999999 0.782419 -1.008274
846.609375 1.809998 0.825785 -0.984213
847.1875 1.915106 0.936214 -0.978892
847.74609375 1.831539 0.859908 -0.971631
848.3359375 1.883627 0.82975 -1.053877
848.8828125 1.748969 0.71109 -1.037879
849.4453125 1.651726 0.647264 -1.004462
849.99609375 1.79401 0.76916 -1.02485
850.5078125 1.8262990000000001 0.824985 -1.001314
851.03125 1.8148779999999998 0.807692 -1.007186
851.54296875 1.811796 0.76865 -1.043146
852.0859375 1.7163439999999999 0.729897 -0.986447
852.61328125 1.662049 0.718084 -0.943965
853.171875 1.749222 0.831139 -0.918083
853.70703125 1.8657789999999999 0.916021 -0.949758
854.265625 1.718635 0.806012 -0.912623
854.84375 1.763796 0.823796 -0.94
855.4453125 1.662277 0.749926 -0.912351
856.0 1.594108 0.68 -0.914108
856.5390625 1.607288 0.654563 -0.952725
857.04296875 1.712682 0.703474 -1.009208
857.546875 1.858649 0.853694 -1.004955
858.0546875 1.898663 0.861783 -1.03688
858.5859375 1.8069899999999999 0.767222 -1.039768
859.12890625 1.666396 0.636236 -1.03016
859.6953125 1.6198380000000001 0.572172 -1.047666
860.2890625 1.702769 0.654587 -1.048182
860.8515625 1.871817 0.879206 -0.992611
861.4140625 1.865892 0.863562 -1.00233
861.94921875 1.861467 0.796092 -1.065375
862.47265625 1.752933 0.668034 -1.084899
862.99609375 1.6060059999999998 0.612625 -0.993381
863.51953125 1.6815259999999999 0.726074 -0.955452
863.921875 3.2675170000000002 2.379805 -0.887712
864.578125 1.845114 0.949367 -0.895747
865.09375 1.8237199999999998 0.787581 -1.036139
865.64453125 1.800099 0.816171 -0.983928
866.203125 1.6538279999999999 0.658828 -0.995
866.7734375 1.6721430000000002 0.765359 -0.906784
867.31640625 1.6800169999999999 0.769206 -0.910811
867.86328125 1.802962 0.883804 -0.919158
868.3828125 1.826257 0.895757 -0.9305
868.8828125 1.782934 0.849606 -0.933328
869.37109375 1.701096 0.766156 -0.93494
869.86328125 1.690881 0.735032 -0.955849
870.35546875 1.81474 0.834925 -0.979815
870.859375 1.895105 0.904245 -0.99086
871.40625 1.906562 0.922333 -0.984229
871.98046875 1.909598 0.925572 -0.984026
872.53515625 1.842473 0.907924 -0.934549
873.1171875 1.854283 0.926066 -0.928217
873.64453125 1.792565 0.925546 -0.867019
874.1640625 2.01706 1.12956 -0.8875
874.66796875 2.0480910000000003 1.1 -0.948091
875.1640625 1.980064 1.044908 -0.935156
875.6796875 1.87889 0.935812 -0.943078
876.19921875 1.82489 0.914905 -0.909985
876.75390625 1.839954 0.916559 -0.923395
877.21875 3.0026020000000004 2.078679 -0.923923
877.859375 1.8884210000000001 1.023811 -0.86461
878.40234375 1.8315290000000002 0.927687 -0.903842
878.96484375 1.856457 0.936411 -0.920046
879.54296875 1.743792 0.838837 -0.904955
880.11328125 1.8052890000000001 0.894741 -0.910548
880.62109375 1.8546209999999999 0.986656 -0.867965
881.1328125 1.97041 1.046419 -0.923991
881.62109375 1.8360850000000002 0.936096 -0.899989
882.13671875 1.823988 0.890233 -0.933755
882.6640625 1.7562540000000002 0.832084 -0.92417
883.20703125 1.707961 0.81818 -0.889781
883.78125 1.784014 0.889773 -0.894241
884.34765625 1.93299 1.03707 -0.89592
884.9375 1.872403 0.96628 -0.906123
885.4921875 1.859153 0.929329 -0.929824
886.046875 1.802611 0.829916 -0.972695
886.5625 1.737921 0.818837 -0.919084
886.96875 3.051653 2.182969 -0.868684
887.6015625 1.832065 0.987065 -0.845
888.13671875 1.793119 0.913821 -0.879298
888.66796875 1.863159 0.974069 -0.88909
889.2421875 1.738817 0.837528 -0.901289
889.79296875 1.7119710000000001 0.797806 -0.914165
890.36328125 1.658123 0.767456 -0.890667
890.94140625 1.785555 0.944542 -0.841013
891.48046875 1.878511 0.994834 -0.883677
892.02734375 1.879489 0.940534 -0.938955
892.55078125 1.7797459999999998 0.854602 -0.925144
893.0859375 1.680776 0.761626 -0.91915
893.58984375 1.626893 0.725 -0.901893
894.125 1.7214550000000002 0.8 -0.921455
894.63671875 1.821065 0.950273 -0.870792
895.171875 1.925707 1.028747 -0.89696
895.7421875 1.908481 0.913695 -0.994786
896.3671875 1.787983 0.863905 -0.924078
896.95703125 1.69685 0.731926 -0.964924
897.53125 1.618814 0.72 -0.898814
898.05078125 1.640158 0.804587 -0.835571
898.55859375 1.860325 0.968842 -0.891483
899.0546875 1.809026 0.956967 -0.852059
899.54296875 1.830001 0.912214 -0.917787
900.06640625 1.6438169999999999 0.819286 -0.824531
900.40625 2.539589 1.882669 -0.65692
901.1640625 1.7259630000000001 0.896436 -0.829527
901.7109375 1.896766 1.039739 -0.857027
902.27734375 1.93657 1.046412 -0.890158
902.83203125 1.858325 0.908536 -0.949789
903.38671875 1.7546140000000001 0.821649 -0.932965
903.9453125 1.669448 0.736265 -0.933183
904.48828125 1.711327 0.789122 -0.922205
904.9921875 1.862968 0.971127 -0.891841
905.5 1.9448759999999998 1.005 -0.939876
905.99609375 1.8888479999999999 0.938873 -0.949975
906.52734375 1.829642 0.865238 -0.964404
907.0703125 1.7194600000000002 0.779136 -0.940324
907.62890625 1.69173 0.777843 -0.913887
908.203125 1.909205 1.014267 -0.894938
908.765625 1.837653 0.946733 -0.89092
909.3671875 1.8266719999999999 0.87784 -0.948832
909.921875 1.715236 0.753021 -0.962215
910.4609375 1.6811500000000001 0.686119 -0.995031
910.97265625 1.7424499999999998 0.74745 -0.995
911.4765625 1.9023539999999999 0.887354 -1.015
912.0 1.886682 0.88 -1.006682
912.5546875 1.865425 0.835951 -1.029474
912.9921875 3.314157 2.276564 -1.037593
913.6953125 1.63239 0.673865 -0.958525
914.25390625 1.644648 0.635233 -1.009415
914.81640625 1.879038 0.904828 -0.97421
915.375 1.8567550000000002 0.83 -1.026755
915.91796875 1.835315 0.777218 -1.058097
916.453125 1.757227 0.635 -1.122227
916.98046875 1.6576840000000002 0.574966 -1.082718
917.5078125 1.6369 0.565869 -1.071031
918.0234375 1.851157 0.858591 -0.992566
918.546875 1.787767 0.798284 -0.989483
919.078125 1.812969 0.796732 -1.016237
919.62890625 1.667815 0.673638 -0.994177
920.2109375 1.641664 0.679574 -0.96209
920.81640625 1.6651660000000001 0.72409 -0.941076
921.375 1.849438 0.945 -0.904438
921.9375 1.891078 0.915968 -0.97511
922.44140625 1.8368250000000002 0.888552 -0.948273
922.9609375 1.583307 0.644694 -0.938613
923.46875 1.669861 0.775678 -0.894183
923.97265625 1.612688 0.729224 -0.883464
924.48828125 1.7350889999999999 0.861361 -0.873728
925.015625 1.7390349999999999 0.864388 -0.874647
925.5703125 1.7842069999999999 0.874483 -0.909724
926.12109375 1.7170649999999998 0.816484 -0.900581
926.67578125 1.723515 0.846333 -0.877182
927.22265625 1.746709 0.803207 -0.943502
927.73828125 1.774473 0.890877 -0.883596
928.25 1.9385630000000003 1.12 -0.818563
928.75390625 1.940658 1.115 -0.825658
929.25390625 1.9737110000000002 1.032145 -0.941566
929.76171875 1.9149180000000001 0.997545 -0.917373
930.28515625 1.826252 0.897286 -0.928966
930.796875 1.739983 0.836485 -0.903498
931.328125 1.821379 0.967651 -0.853728
931.890625 1.928947 1.069253 -0.859694
932.4296875 1.916204 1.051601 -0.864603
933.01171875 1.8388749999999998 0.987339 -0.851536
933.58203125 1.7679900000000002 0.963531 -0.804459
934.13671875 1.758986 0.978856 -0.78013
934.65234375 1.890002 1.107603 -0.782399
935.16015625 1.9274300000000002 1.062731 -0.864699
935.66015625 1.851881 1.008259 -0.843622
936.1796875 1.785741 0.92301 -0.862731
936.734375 1.7948780000000002 0.865295 -0.929583
937.31640625 1.718915 0.839233 -0.879682
937.88671875 1.8514140000000001 1.006696 -0.844718
938.46484375 1.9008310000000002 1.021624 -0.879207
939.01953125 1.804633 0.915 -0.889633
939.578125 1.7167379999999999 0.806738 -0.91
940.12890625 1.6376279999999999 0.723281 -0.914347
940.6484375 1.678826 0.76553 -0.913296
941.171875 1.8599299999999999 0.963268 -0.896662
941.6796875 1.853881 0.947481 -0.9064
942.21875 1.7987229999999998 0.867447 -0.931276
942.73828125 1.6966290000000002 0.75031 -0.946319
943.30078125 1.6262349999999999 0.66 -0.966235
943.84765625 1.640025 0.676974 -0.963051
944.4140625 1.815757 0.904488 -0.911269
944.984375 1.854826 0.931971 -0.922855
945.56640625 1.879367 0.899769 -0.979598
946.1015625 1.779218 0.799218 -0.98
946.63671875 1.635035 0.691929 -0.943106
947.140625 1.6060189999999999 0.687547 -0.918472
947.65234375 1.6553010000000001 0.754868 -0.900433
948.1640625 1.8462100000000001 1.012455 -0.833755
948.671875 1.8637199999999998 0.918928 -0.944792
949.2109375 1.78199 0.80937 -0.97262
949.7734375 1.550961 0.637364 -0.913597
950.359375 1.5459 0.639289 -0.906611
950.91796875 1.660512 0.717007 -0.943505
951.46484375 1.764444 0.82 -0.944444
951.984375 1.774866 0.801448 -0.973418
952.484375 1.846009 0.821807 -1.024202
952.9921875 1.6946720000000002 0.736643 -0.958029
953.51171875 1.642326 0.725 -0.917326
954.03125 1.692704 0.807852 -0.884852
954.55859375 1.766457 0.906606 -0.859851
955.0859375 1.7665289999999998 0.849891 -0.916638
955.6171875 1.733984 0.869139 -0.864845
956.16015625 1.666467 0.828679 -0.837788
956.7265625 1.6946940000000001 0.872874 -0.82182
957.2578125 1.731408 0.909361 -0.822047
957.8046875 1.737921 0.914209 -0.823712
958.3125 1.809328 0.92 -0.889328
958.828125 1.782086 0.899519 -0.882567
959.3203125 1.7699129999999998 0.782107 -0.987806
959.82421875 1.8247740000000001 0.958684 -0.86609
960.31640625 1.789655 0.854163 -0.935492
960.828125 1.926213 0.968213 -0.958
961.37109375 1.765902 0.890062 -0.87584
961.96484375 1.667277 0.732153 -0.935124
962.54296875 1.713911 0.749384 -0.964527
962.921875 1.867969 0.708096 -1.159873
963.64453125 1.7569519999999998 0.704969 -1.051983
964.16015625 1.652088 0.602245 -1.049843
964.66796875 1.5922930000000002 0.409914 -1.182379
965.1796875 1.6406770000000002 0.528468 -1.112209
965.6640625 1.803924 0.850577 -0.953347
966.171875 1.789725 0.88971 -0.900015
966.6796875 1.784526 0.89946 -0.885066
967.23046875 1.8072819999999998 0.956104 -0.851178
967.75390625 1.769747 0.976656 -0.793091
968.30859375 1.696923 0.865817 -0.831106
968.84375 1.632855 0.74371 -0.889145
969.39453125 1.5968740000000001 0.634779 -0.962095
969.94140625 1.6428889999999998 0.758994 -0.883895
970.45703125 1.828779 0.958856 -0.869923
970.9375 1.733783 0.815937 -0.917846
971.3515625 2.5384349999999998 1.764876 -0.773559
971.91015625 1.5279449999999999 0.629298 -0.898647
972.4140625 1.6178780000000001 0.840578 -0.7773
972.92578125 1.835915 1.083583 -0.752332
973.4375 1.7185489999999999 0.926667 -0.791882
973.96484375 1.840275 0.960415 -0.87986
974.5234375 1.711608 0.85903 -0.852578
975.1015625 1.5574029999999999 0.813317 -0.744086
975.65625 1.765362 0.910145 -0.855217
976.1640625 1.770881 1.049956 -0.720925
976.66015625 1.766235 1.066458 -0.699777
977.1484375 1.7336930000000002 0.899374 -0.834319
977.65234375 1.674176 0.788044 -0.886132
978.17578125 1.814501 0.906482 -0.908019
978.5859375 2.96982 1.99982 -0.97
979.2421875 1.793266 0.858397 -0.934869
979.79296875 1.651509 0.688536 -0.962973
980.34375 1.755049 0.837917 -0.917132
980.87890625 1.752448 0.849151 -0.903297
981.43359375 1.749252 0.789656 -0.959596
981.953125 1.6376629999999999 0.678649 -0.959014
982.48046875 1.615 0.67 -0.945
982.984375 1.647958 0.7507 -0.897258
983.48828125 1.734397 0.815901 -0.918496
983.9765625 1.785557 0.855557 -0.93
984.5 1.735332 0.765 -0.970332
985.015625 1.6233279999999999 0.668434 -0.954894
985.546875 1.708571 0.72836 -0.980211
986.1015625 2.723456 1.833847 -0.889609
986.5234375 2.640457 1.852934 -0.787523
987.28515625 1.613794 0.688206 -0.925588
987.84375 1.611554 0.716663 -0.894891
988.35546875 1.696212 0.849931 -0.846281
988.859375 1.674347 0.813552 -0.860795
989.359375 1.786489 0.86635 -0.920139
989.86328125 1.4888 0.623451 -0.865349
990.38671875 1.5349590000000002 0.701929 -0.83303
990.921875 1.711102 0.843743 -0.867359
991.4921875 1.607267 0.787281 -0.819986
992.06640625 1.609361 0.79 -0.819361
992.63671875 1.674041 0.734472 -0.939569
993.1875 1.688377 0.752237 -0.93614
993.72265625 1.638898 0.807242 -0.831656
994.1015625 2.230441 1.365536 -0.864905
994.78125 1.574841 0.771161 -0.80368
995.28515625 1.5869900000000001 0.737245 -0.849745
995.8046875 1.611611 0.810688 -0.800923
996.30859375 1.726455 0.899443 -0.827012
996.828125 1.749792 0.904815 -0.844977
997.36328125 1.659549 0.804727 -0.854822
997.9375 1.590875 0.731087 -0.859788
998.48828125 1.589158 0.689386 -0.899772
999.0703125 1.5375139999999998 0.657538 -0.879976
999.640625 1.5521090000000002 0.689509 -0.8626
1000.171875 1.781227 0.891402 -0.889825
1000.671875 1.739746 0.862365 -0.877381
1001.16796875 1.7633709999999998 0.848636 -0.914735
1001.6640625 1.724658 0.761507 -0.963151
1002.19140625 1.728952 0.789233 -0.939719
1002.75390625 1.5831300000000001 0.651969 -0.931161
1003.32421875 1.6188069999999999 0.696525 -0.922282
1003.91015625 1.755754 0.925678 -0.830076
1004.484375 1.75561 0.918725 -0.836885
1005.04296875 1.7636910000000001 0.896804 -0.866887
1005.58203125 1.766294 0.867491 -0.898803
1006.12109375 1.629095 0.727535 -0.90156
1006.6328125 1.580878 0.666005 -0.914873
1007.15234375 1.542184 0.647446 -0.894738
1007.66015625 1.723336 0.847003 -0.876333
1008.17578125 1.851302 0.962616 -0.888686
1008.6875 1.790606 0.845714 -0.944892
1009.23046875 1.5985429999999998 0.639995 -0.958548
1009.7734375 1.63174 0.523514 -1.108226
1010.33984375 1.626909 0.625 -1.001909
1010.91796875 1.666376 0.793258 -0.873118
1011.484375 1.7706490000000001 0.956016 -0.814633
1011.90234375 1.152386 0.612386 -0.54
1012.33984375 2.460113 1.732374 -0.727739
1013.01171875 1.595387 0.618685 -0.976702
1013.51171875 1.563428 0.678086 -0.885342
1013.99609375 2.644585 1.746312 -0.898273
1014.53515625 1.735085 0.905668 -0.829417
1015.0703125 1.812583 0.86949 -0.943093
1015.6171875 1.844141 0.874302 -0.969839
1016.23046875 1.557083 0.604994 -0.952089
1016.8046875 1.6104539999999998 0.660407 -0.950047
1017.37109375 1.804427 0.93413 -0.870297
1017.8828125 1.8118919999999998 0.93933 -0.872562
1018.39453125 1.782436 0.974995 -0.807441
1018.80078125 2.9303999999999997 2.028081 -0.902319
1019.4375 1.607748 0.750857 -0.856891
1019.9375 1.67801 0.871801 -0.806209
1020.4765625 1.84186 0.90686 -0.935
1020.98828125 1.7771439999999998 0.788318 -0.988826
1021.53515625 1.738526 0.773575 -0.964951
1022.08984375 1.749331 0.761815 -0.987516
1022.64453125 1.6308340000000001 0.646007 -0.984827
1023.22265625 1.689562 0.679562 -1.01
1023.7734375 1.783984 0.814359 -0.969625
1024.3125 1.805641 0.765817 -1.039824
1024.8125 1.7961710000000002 0.771375 -1.024796
1025.3203125 1.707554 0.772023 -0.935531
1025.82421875 1.818338 0.796346 -1.021992
1026.34375 1.7892709999999998 0.804286 -0.984985
1026.88671875 1.870792 0.87207 -0.998722
1027.45703125 1.8049140000000001 0.779827 -1.025087
1028.01953125 1.7597049999999999 0.754976 -1.004729
1028.60546875 1.74513 0.684886 -1.060244
1029.16015625 1.737309 0.713007 -1.024302
1029.70703125 1.806301 0.827688 -0.978613
1030.23046875 1.889697 0.899974 -0.989723
1030.7421875 1.837256 0.798659 -1.038597
1031.2578125 1.6448450000000001 0.705833 -0.939012
1031.77734375 1.567157 0.66182 -0.905337
1032.32421875 1.726423 0.88743 -0.838993
1032.8359375 1.681698 0.864359 -0.817339
1033.38671875 1.6847370000000002 0.79 -0.894737
1033.93359375 1.541463 0.6649 -0.876563
1034.4609375 2.237129 1.524773 -0.712356
1035.0625 1.522713 0.700455 -0.822258
1035.4765625 2.406136 1.607496 -0.79864
1036.171875 1.739991 0.87614 -0.863851
1036.69140625 1.5620310000000002 0.739542 -0.822489
1037.1875 1.810919 1.011094 -0.799825
1037.6796875 1.872568 0.984509 -0.888059
1038.171875 1.861016 0.976142 -0.884874
1038.6953125 1.742668 0.753334 -0.989334
1039.21875 1.643 0.683 -0.96
1039.78125 1.55197 0.63875 -0.91322
1040.36328125 1.792619 0.966301 -0.826318
1040.921875 1.816058 0.952207 -0.863851
1041.46875 1.7976290000000001 0.94169 -0.855939
1042.0 1.851542 0.935 -0.916542
1042.51171875 1.771379 0.835905 -0.935474
1043.02734375 1.677984 0.732984 -0.945
1043.55859375 1.606942 0.694269 -0.912673
1044.0859375 1.5920459999999999 0.68946 -0.902586
1044.625 1.7496399999999999 0.84 -0.90964
1045.16796875 1.715188 0.815804 -0.899384
1045.70703125 1.637966 0.699507 -0.938459
1046.265625 1.586156 0.729032 -0.857124
1046.83203125 1.806149 0.991735 -0.814414
1047.359375 1.8570929999999999 0.947559 -0.909534
1047.91015625 1.753755 0.842051 -0.911704
1048.44140625 1.658109 0.731691 -0.926418
1048.96875 1.5888810000000002 0.661379 -0.927502
1049.46875 1.6519490000000001 0.759844 -0.892105
1049.98046875 1.7655720000000001 0.895572 -0.87
1050.48046875 1.63498 0.66998 -0.965
1051.0234375 1.698547 0.709734 -0.988813
1051.5859375 1.88608 1.049623 -0.836457
1052.16796875 1.824261 1.105573 -0.718688
1052.734375 1.9053719999999998 1.067699 -0.837673
1053.31640625 1.936748 1.024241 -0.912507
1053.73828125 3.147941 2.263312 -0.884629
1054.37890625 1.658628 0.732232 -0.926396
1054.91015625 1.53545 0.587691 -0.947759
1055.41796875 1.785615 0.936573 -0.849042
1055.9296875 1.838878 0.956829 -0.882049
1056.45703125 1.8433510000000002 0.928416 -0.914935
1057.01953125 1.8218649999999998 0.814954 -1.006911
1057.58203125 1.616206 0.69884 -0.917366
1058.1640625 1.573759 0.659979 -0.91378
1058.7265625 1.611788 0.716542 -0.895246
1059.27734375 1.5839699999999999 0.728831 -0.855139
1059.83984375 1.6637140000000001 0.817288 -0.846426
1060.390625 1.670775 0.741657 -0.929118
1060.90625 1.5950980000000001 0.697333 -0.897765
1061.4296875 1.6165310000000002 0.718199 -0.898332
1061.92578125 1.666642 0.804753 -0.861889
1062.44921875 1.626519 0.72 -0.906519
1062.984375 1.533514 0.656351 -0.877163
1063.54296875 1.565529 0.693348 -0.872181
1064.10546875 1.727106 0.829598 -0.897508
1064.67578125 1.834986 0.766367 -1.068619
1065.26953125 1.679995 0.844995 -0.835
1065.828125 1.6200860000000001 0.790801 -0.829285
1066.37109375 1.697662 0.812811 -0.884851
1066.78125 3.106865 2.255 -0.851865
1067.40234375 1.724353 0.901981 -0.822372
1067.91796875 1.559105 0.721227 -0.837878
1068.4765625 1.646957 0.757893 -0.889064
1069.03125 1.58717 0.728424 -0.858746
1069.625 1.6861920000000001 0.735 -0.951192
1070.203125 1.440321 0.669264 -0.771057
1070.76953125 1.713961 0.855292 -0.858669
1071.32421875 1.781909 0.884089 -0.89782
1071.87890625 1.706029 0.809034 -0.896995
1072.40625 1.5977350000000001 0.689766 -0.907969
1072.9375 1.5323129999999998 0.6373 -0.895013
1073.4609375 1.6798980000000001 0.814867 -0.865031
1073.98828125 1.8045390000000001 0.919045 -0.885494
1074.51171875 1.6869480000000001 0.822125 -0.864823
1075.0625 1.69522 0.773333 -0.921887
1075.61328125 1.65583 0.722231 -0.933599
1076.0390625 3.085541 2.135573 -0.949968
1076.8046875 1.554484 0.629672 -0.924812
1077.3984375 1.586676 0.668956 -0.91772
1077.953125 1.788732 0.888866 -0.899866
1078.46484375 1.7132779999999999 0.789374 -0.923904
1078.97265625 1.7400579999999999 0.808389 -0.931669
1079.47265625 1.65873 0.674579 -0.984151
1080.00390625 1.494735 0.615715 -0.87902
1080.51953125 1.4954450000000001 0.63 -0.865445
1081.07421875 1.648959 0.787695 -0.861264
1081.6171875 1.6862650000000001 0.741283 -0.944982
1082.1953125 1.7071399999999999 0.72076 -0.98638
1082.73828125 1.5994160000000002 0.678937 -0.920479
1083.30859375 1.6522510000000001 0.722233 -0.930018
1083.83203125 1.647469 0.707469 -0.94
1084.3515625 1.745663 0.800663 -0.945
1084.8671875 1.7439930000000001 0.799633 -0.94436
1085.37890625 1.928829 0.865018 -1.063811
1085.8984375 1.5493139999999999 0.576619 -0.972695
1086.44140625 1.6210529999999999 0.71946 -0.901593
1086.9609375 1.752549 0.884952 -0.867597
1087.5 1.865256 0.935 -0.930256
1088.07421875 1.838139 0.876652 -0.961487
1088.62890625 1.671529 0.764067 -0.907462
1089.22265625 1.597563 0.657563 -0.94
1089.7890625 1.6064690000000001 0.770571 -0.835898
1090.33984375 1.783555 0.905456 -0.878099
1090.84375 1.837568 0.917476 -0.920092
1091.359375 1.7151260000000002 0.751131 -0.963995
1091.875 1.6602610000000002 0.685 -0.975261
1092.40625 1.747113 0.793935 -0.953178
1092.96484375 1.735754 0.777503 -0.958251
1093.5546875 1.6982300000000001 0.745015 -0.953215
1094.14453125 1.599729 0.654906 -0.944823
1094.7421875 1.634167 0.630136 -1.004031
1095.30078125 1.631703 0.678155 -0.953548
1095.84765625 1.678845 0.683845 -0.995
1096.38671875 1.697454 0.687421 -1.010033
1096.89453125 1.6808900000000002 0.644826 -1.036064
1097.421875 1.632726 0.622794 -1.009932
1097.94140625 1.6575799999999998 0.693413 -0.964167
1098.4921875 1.7490700000000001 0.838091 -0.910979
1099.0234375 1.695354 0.741806 -0.953548
1099.5859375 1.679449 0.754664 -0.924785
1100.13671875 1.539855 0.608444 -0.931411
1100.7109375 1.4912969999999999 0.584427 -0.90687
1101.3046875 1.759861 0.8196 -0.940261
1101.875 1.648266 0.79 -0.858266
1102.40234375 1.756947 0.88 -0.876947
1102.91015625 1.707034 0.85708 -0.849954
1103.40625 1.645386 0.771397 -0.873989
1103.9140625 1.6091090000000001 0.739754 -0.869355
1104.45703125 1.4839820000000001 0.604013 -0.879969
1104.9921875 1.601638 0.730754 -0.870884
1105.56640625 1.6553719999999998 0.85771 -0.797662
1106.13671875 1.736554 0.913486 -0.823068
1106.734375 1.700122 0.86256 -0.837562
1107.29296875 1.667718 0.820889 -0.846829
1107.859375 1.5013990000000002 0.616951 -0.884448
1108.3828125 1.558406 0.675843 -0.882563
1108.90625 1.664537 0.808071 -0.856466
1109.42578125 1.8186 0.935134 -0.883466
1109.96484375 1.734553 0.873699 -0.860854
1110.44140625 1.824544 1.146653 -0.677891
1111.0703125 1.683689 0.855105 -0.828584
1111.62890625 1.527628 0.713579 -0.814049
1112.20703125 1.67129 0.886359 -0.784931
1112.7890625 1.729227 0.949979 -0.779248
1113.34375 1.769051 0.991346 -0.777705
1113.9140625 1.6931349999999998 0.909311 -0.783824
1114.4453125 1.667774 0.863607 -0.804167
1114.97265625 1.58502 0.75502 -0.83
1115.484375 1.5160010000000002 0.691602 -0.824399
1116.00390625 1.6383 0.795 -0.8433
1116.51171875 1.737108 0.854729 -0.882379
1117.05078125 1.72484 0.811434 -0.913406
1117.63671875 1.69672 0.781853 -0.914867
1118.2578125 1.603782 0.684312 -0.91947
1118.859375 1.5473029999999999 0.652531 -0.894772
1119.4453125 1.529427 0.677502 -0.851925
1119.7890625 2.329694 1.579694 -0.75
1120.4921875 1.646353 0.784594 -0.861759
1121.015625 1.610363 0.619487 -0.990876
1121.51171875 1.598199 0.660785 -0.937414
1122.046875 1.610951 0.639355 -0.971596
1122.58984375 1.685304 0.762051 -0.923253
1123.1484375 1.738386 0.87649 -0.861896
1123.703125 1.7596479999999999 0.903652 -0.855996
1124.28515625 1.6554820000000001 0.765482 -0.89
1124.83984375 1.636196 0.708718 -0.927478
1125.40625 1.562884 0.699664 -0.86322
1125.85546875 2.42619 1.840747 -0.585443
1126.4921875 1.7731979999999998 0.979606 -0.793592
1126.9765625 1.689002 0.914002 -0.775
1127.4765625 1.763226 0.888226 -0.875
1127.98828125 1.633403 0.719973 -0.91343
1128.515625 1.561946 0.717435 -0.844511
1129.06640625 1.54597 0.686595 -0.859375
1129.59765625 1.624347 0.804347 -0.82
1130.17578125 1.6880730000000002 0.868359 -0.819714
1130.75 1.712584 0.825 -0.887584
1131.34765625 1.654028 0.769028 -0.885
1131.890625 1.617054 0.753942 -0.863112
1132.41796875 1.6297549999999998 0.789014 -0.840741
1132.91015625 1.755878 0.878351 -0.877527
1133.4140625 1.753946 0.804651 -0.949295
1133.94921875 1.726201 0.754694 -0.971507
1134.5078125 1.7168619999999999 0.842917 -0.873945
1135.046875 1.763008 0.949718 -0.81329
1135.62109375 1.7755830000000001 0.89 -0.885583
1136.16015625 1.71787 0.805 -0.91287
1136.7265625 1.691953 0.671953 -1.02
1137.30859375 1.5912760000000001 0.643823 -0.947453
1137.84765625 1.611612 0.68109 -0.930522
1138.3828125 1.698548 0.729139 -0.969409
1138.8984375 1.652035 0.698768 -0.953267
1139.421875 1.739989 0.723915 -1.016074
1139.9375 1.536246 0.620135 -0.916111
1140.4765625 1.6977989999999998 0.727799 -0.97
1140.99609375 1.678934 0.71416 -0.964774
1141.46875 1.877705 1.087705 -0.79
1142.1328125 1.67923 0.729028 -0.950202
1142.734375 1.5527069999999998 0.550264 -1.002443
1143.296875 1.6961689999999998 0.74398 -0.952189
1143.85546875 1.618269 0.639911 -0.978358
1144.37109375 1.7067480000000002 0.676834 -1.029914
1144.8828125 1.592244 0.613318 -0.978926
1145.40625 1.607572 0.623082 -0.98449
1145.90625 1.688158 0.713121 -0.975037
1146.4375 1.749324 0.74 -1.009324
1146.97265625 1.73502 0.73502 -1.0
1147.55078125 1.67205 0.709101 -0.962949
1148.1015625 1.534863 0.622065 -0.912798
1148.671875 1.6272790000000001 0.674701 -0.952578
1149.2265625 1.580438 0.665438 -0.915
1149.76171875 1.86513 0.906569 -0.958561
1150.2890625 1.799414 0.86466 -0.934754
1150.80859375 1.796504 0.82 -0.976504
1151.30859375 1.754956 0.756659 -0.998297
1151.83203125 1.608203 0.63827 -0.969933
1152.34765625 1.5351110000000001 0.596507 -0.938604
1152.875 1.623278 0.68 -0.943278
1153.4140625 1.781439 0.839674 -0.941765
1153.9453125 1.7078440000000001 0.78257 -0.925274
1154.5078125 1.668778 0.71 -0.958778
1155.08203125 1.5190320000000002 0.556107 -0.962925
1155.65625 1.65136 0.702543 -0.948817
1156.171875 1.973525 1.027609 -0.945916
1156.67578125 2.06052 0.985439 -1.075081
1157.17578125 1.8250220000000001 0.769154 -1.055868
1157.67578125 1.7443840000000002 0.690443 -1.053941
1158.19921875 1.663912 0.612698 -1.051214
1158.7578125 1.614497 0.621715 -0.992782
1159.30859375 1.7913990000000002 0.721669 -1.06973
1159.8828125 1.7462750000000002 0.669652 -1.076623
1160.42578125 1.664393 0.671829 -0.992564
1160.98828125 1.749046 0.657316 -1.09173
1161.5390625 1.647224 0.638891 -1.008333
1162.078125 1.775849 0.736772 -1.039077
1162.58203125 1.677695 0.647971 -1.029724
1163.09375 1.763071 0.685 -1.078071
1163.609375 1.761025 0.713853 -1.047172
1164.140625 1.676257 0.662062 -1.014195
1164.6640625 1.6127090000000002 0.651042 -0.961667
1165.1953125 1.648129 0.713199 -0.93493
1165.7265625 1.719641 0.740509 -0.979132
1166.30078125 1.715327 0.69241 -1.022917
1166.90625 1.649565 0.671305 -0.97826
1167.49609375 1.61489 0.624908 -0.989982
1168.0390625 1.7280600000000002 0.794664 -0.933396
1168.546875 1.734744 0.758859 -0.975885
1169.05078125 1.692404 0.755269 -0.937135
1169.5546875 1.571334 0.670663 -0.900671
1170.07421875 1.668024 0.713024 -0.955
1170.58203125 1.739604 0.854621 -0.884983
1171.125 1.781663 0.855 -0.926663
1171.671875 1.75316 0.763915 -0.989245
1172.26171875 1.708108 0.743127 -0.964981
1172.8125 1.617302 0.662742 -0.95456
1173.37890625 1.6586509999999999 0.733142 -0.925509
1173.8984375 1.777188 0.95532 -0.821868
1174.40625 1.819288 0.891013 -0.928275
1174.91796875 1.73031 0.771342 -0.958968
1175.4375 1.6353469999999999 0.669355 -0.965992
1175.9453125 1.600524 0.641999 -0.958525
1176.484375 1.52484 0.636625 -0.888215
1177.00390625 1.588882 0.671676 -0.917206
1177.5546875 1.695509 0.816447 -0.879062
1178.1015625 1.69597 0.745023 -0.950947
1178.66796875 1.6706340000000002 0.726021 -0.944613
1179.22265625 1.63609 0.71109 -0.925
1179.78515625 1.571659 0.695965 -0.875694
1180.3203125 1.701677 0.804792 -0.896885
1180.83203125 1.6971569999999998 0.742157 -0.955
1181.34375 1.784344 0.780543 -1.003801
1181.85546875 1.604023 0.674959 -0.929064
1182.37109375 1.6249090000000002 0.669914 -0.954995
1182.921875 1.603358 0.678069 -0.925289
1183.50390625 1.640509 0.76408 -0.876429
1184.09765625 1.712564 0.777564 -0.935
1184.69140625 1.704207 0.744889 -0.959318
1185.26171875 1.670827 0.709747 -0.96108
1185.81640625 1.589718 0.684163 -0.905555
1186.33984375 1.562608 0.713711 -0.848897
1186.85546875 1.7280820000000001 0.859886 -0.868196
1187.3515625 1.664839 0.789839 -0.875
1187.875 1.685 0.78 -0.905
1188.41015625 1.6599789999999999 0.744439 -0.91554
1188.9765625 1.551044 0.641044 -0.91
1189.52734375 1.514845 0.651982 -0.862863
1190.1015625 1.648119 0.865 -0.783119
1190.640625 1.7146050000000002 0.911153 -0.803452
1191.2109375 1.6726830000000001 0.854978 -0.817705
1191.62109375 3.267411 2.494343 -0.773068
1192.33203125 1.4652669999999999 0.64529 -0.819977
1192.84765625 1.4526189999999999 0.622619 -0.83
1193.359375 1.751305 0.923097 -0.828208
1193.8515625 1.70296 0.84 -0.86296
1194.3671875 1.710369 0.796216 -0.914153
1194.91015625 1.567131 0.673435 -0.893696
1195.4453125 1.552543 0.664612 -0.887931
1195.87109375 2.661823 1.841823 -0.82
1196.5703125 1.724553 0.862079 -0.862474
1197.12890625 1.710962 0.784993 -0.925969
1197.66015625 1.7927909999999998 0.83659 -0.956201
1198.1953125 1.716783 0.700604 -1.016179
1198.6953125 1.665614 0.725614 -0.94
1199.19921875 1.696937 0.754373 -0.942564
1199.70703125 1.806529 0.90154 -0.904989
1200.24609375 1.829314 0.83445 -0.994864
1200.765625 1.829903 0.861477 -0.968426
1201.32421875 1.5550000000000002 0.675 -0.88
1201.86328125 1.658663 0.759819 -0.898844
1202.42578125 1.698628 0.834071 -0.864557
1202.97265625 1.791172 0.911172 -0.88
1203.52734375 1.824999 0.952603 -0.872396
1204.0546875 1.718682 0.849562 -0.86912
1204.58203125 1.735074 0.800132 -0.934942
1205.109375 1.653095 0.753473 -0.899622
1205.62109375 1.610784 0.750915 -0.859869
1206.13671875 1.8123179999999999 0.898867 -0.913451
1206.65234375 1.728024 0.835 -0.893024
1207.18359375 1.758995 0.803461 -0.955534
1207.75 1.6435629999999999 0.705 -0.938563
1208.34765625 1.654863 0.709863 -0.945
1208.9296875 1.61063 0.692415 -0.918215
1209.3671875 3.062963 2.212963 -0.85
1210.04296875 1.74186 0.803843 -0.938017
1210.5625 1.693962 0.703962 -0.99
1211.07421875 1.6707809999999998 0.700139 -0.970642
1211.59375 1.6002480000000001 0.623462 -0.976786
1212.10546875 1.5773220000000001 0.624946 -0.952376
1212.6484375 1.7372459999999998 0.720808 -1.016438
1213.2109375 1.742919 0.763981 -0.978938
1213.7890625 1.644513 0.659687 -0.984826
1214.3671875 1.633299 0.658318 -0.974981
1214.9453125 1.553937 0.594209 -0.959728
1215.5078125 1.537207 0.587207 -0.95
1216.0625 1.683243 0.698702 -0.984541
1216.59765625 1.717791 0.770878 -0.946913
1217.1171875 1.7469510000000001 0.767498 -0.979453
1217.640625 1.6994099999999999 0.725 -0.97441
1218.171875 1.5674709999999998 0.644914 -0.922557
1218.7109375 1.563717 0.609279 -0.954438
1219.265625 1.4924439999999999 0.558598 -0.933846
1219.84375 1.674995 0.78774 -0.887255
1220.265625 2.965468 2.08357 -0.881898
1221.0 1.6628120000000002 0.79 -0.872812
1221.58984375 1.54328 0.622754 -0.920526
1222.14453125 1.545472 0.669989 -0.875483
1222.6640625 1.528848 0.619637 -0.909211
1223.171875 1.6424979999999998 0.618877 -1.023621
1223.66796875 1.553228 0.670687 -0.882541
1224.1953125 1.7123650000000001 0.863842 -0.848523
1224.75 1.7144 0.85 -0.8644
1225.3046875 1.5871119999999999 0.738844 -0.848268
1225.90234375 1.5962269999999998 0.788593 -0.807634
1226.4921875 1.602072 0.819947 -0.782125
1227.05078125 1.7819920000000002 1.00249 -0.779502
1227.58984375 1.796929 0.965555 -0.831374
1228.12109375 1.7755049999999999 0.930712 -0.844793
1228.625 1.709552 0.875 -0.834552
1229.1484375 1.676793 0.838687 -0.838106
1229.6640625 1.6449660000000002 0.851082 -0.793884
1230.1953125 1.830096 0.993234 -0.836862
1230.71875 1.8008199999999999 0.971001 -0.829819
1231.0703125 2.401596 1.751596 -0.65
1231.40234375 1.867903 1.099479 -0.768424
1231.75390625 2.088721 1.363789 -0.724932
1232.4296875 1.640829 0.804638 -0.836191
1233.046875 1.6026859999999998 0.759049 -0.843637
1233.62890625 1.8082410000000002 0.935915 -0.872326
1234.17578125 1.746272 0.878422 -0.86785
1234.68359375 1.783766 0.847914 -0.935852
1235.203125 1.642398 0.746623 -0.895775
1235.7109375 1.65316 0.754359 -0.898801
1236.25 1.689946 0.745 -0.944946
1236.7734375 1.6867869999999998 0.831375 -0.855412
1237.33984375 1.705822 0.7963 -0.909522
1237.93359375 1.678667 0.769893 -0.908774
1238.5390625 1.607385 0.709385 -0.898
1239.1328125 1.676271 0.783498 -0.892773
1239.69140625 1.7646579999999998 0.828881 -0.935777
1240.21875 1.7579069999999999 0.806532 -0.951375
1240.74609375 1.762636 0.757675 -1.004961
1241.28515625 1.6647750000000001 0.697419 -0.967356
1241.8125 1.5961509999999999 0.701219 -0.894932
1242.36328125 1.6651289999999999 0.761361 -0.903768
1242.8828125 1.75699 0.84 -0.91699
1243.4453125 1.777031 0.827559 -0.949472
1244.0078125 1.6359819999999998 0.704792 -0.93119
1244.58203125 1.6268660000000001 0.666948 -0.959918
1245.16015625 1.551316 0.616377 -0.934939
1245.7265625 1.725129 0.760129 -0.965
1246.27734375 1.766445 0.772373 -0.994072
1246.79296875 1.6996569999999998 0.698657 -1.001
1247.31640625 1.6259480000000002 0.575864 -1.050084
1247.828125 1.5942159999999999 0.609267 -0.984949
1248.3671875 1.618929 0.656626 -0.962303
1248.78125 2.916888 1.997116 -0.919772
1249.5234375 1.771828 0.845557 -0.926271
1250.09375 1.712086 0.721466 -0.99062
1250.69921875 1.5880670000000001 0.672113 -0.915954
1251.2578125 1.593734 0.674567 -0.919167
1251.8125 1.6257130000000002 0.7507 -0.875013
1252.34375 1.728562 0.87525 -0.853312
1252.8359375 1.704065 0.834803 -0.869262
1253.34765625 1.640238 0.72642 -0.913818
1253.8515625 1.5696400000000001 0.70964 -0.86
1254.3984375 1.569664 0.734631 -0.835033
1254.91796875 1.642765 0.819887 -0.822878
1255.4609375 1.801863 0.929799 -0.872064
1255.984375 1.7961520000000002 0.882947 -0.913205
1256.515625 1.7601719999999998 0.826638 -0.933534
1256.89453125 2.583783 1.794988 -0.788795
1257.66796875 1.58373 0.686866 -0.896864
1258.19140625 1.6326049999999999 0.733926 -0.898679
1258.70703125 1.8432529999999998 0.963444 -0.879809
1259.19140625 1.824662 0.855867 -0.968795
1259.69140625 1.873217 0.824553 -1.048664
1260.1953125 1.81692 0.694638 -1.122282
1260.7265625 1.759824 0.669824 -1.09
1261.2734375 1.685798 0.645 -1.040798
1261.83203125 1.895181 0.780395 -1.114786
1262.40625 1.788389 0.730929 -1.05746
1262.96875 1.813546 0.738546 -1.075
1263.53125 1.6610740000000002 0.606437 -1.054637
1264.0703125 1.61267 0.64335 -0.96932
1264.5859375 1.6672280000000002 0.714501 -0.952727
1265.10546875 1.772408 0.814892 -0.957516
1265.6328125 1.8105410000000002 0.78977 -1.020771
1266.15234375 1.741886 0.762183 -0.979703
1266.703125 1.710716 0.696599 -1.014117
1267.23828125 1.638443 0.655383 -0.98306
1267.8046875 1.636046 0.662378 -0.973668
1268.3671875 1.7431290000000002 0.818345 -0.924784
1268.92578125 1.758994 0.804133 -0.954861
1269.48828125 1.747497 0.766682 -0.980815
1270.04296875 1.646199 0.668473 -0.977726
1270.58984375 1.5964209999999999 0.639906 -0.956515
1271.11328125 1.597077 0.644136 -0.952941
1271.62890625 1.657753 0.711182 -0.946571
1272.0546875 3.063408 2.163408 -0.9
1272.65625 1.76739 0.857556 -0.909834
1273.2109375 1.659973 0.7 -0.959973
1273.80859375 1.6344349999999999 0.699896 -0.934539
1274.39453125 1.552374 0.694975 -0.857399
1274.78125 2.5046049999999997 1.694648 -0.809957
1275.5390625 1.6944789999999998 0.839479 -0.855
1276.0703125 1.675361 0.705037 -0.970324
1276.5859375 1.668528 0.744694 -0.923834
1277.1015625 1.583121 0.633121 -0.95
1277.6171875 1.584104 0.659638 -0.924466
1278.03125 3.073901 2.199844 -0.874057
1278.67578125 1.76505 0.922025 -0.843025
1279.21484375 1.707208 0.744717 -0.962491
1279.765625 1.658182 0.748355 -0.909827
1280.328125 1.554364 0.554915 -0.999449
1280.875 1.406586 0.58 -0.826586
1281.44140625 1.564193 0.724823 -0.83937
1281.98828125 1.616097 0.751837 -0.86426
1282.5 1.693823 0.755 -0.938823
1283.0 1.676542 0.7 -0.976542
1283.48828125 1.6503990000000002 0.682583 -0.967816
1283.9921875 1.6200389999999998 0.722941 -0.897098
1284.49609375 1.7138849999999999 0.849051 -0.864834
1285.0234375 1.7898459999999998 0.918341 -0.871505
1285.5390625 1.81673 0.882478 -0.934252
1286.11328125 1.8124509999999998 0.886439 -0.926012
1286.6796875 1.74063 0.801675 -0.938955
1287.27734375 1.6726830000000001 0.754988 -0.917695
1287.8125 1.7035879999999999 0.79939 -0.904198
1288.34375 1.822497 0.914656 -0.907841
1288.83203125 1.8984130000000001 0.898501 -0.999912
1289.33984375 1.884495 0.849378 -1.035117
1289.86328125 1.816214 0.802288 -1.013926
1290.4296875 1.7687779999999997 0.749392 -1.019386
1290.96875 1.65274 0.66274 -0.99
1291.55859375 1.70844 0.733671 -0.974769
1292.1015625 1.805355 0.78898 -1.016375
1292.671875 1.767452 0.778253 -0.989199
1293.24609375 1.7576269999999998 0.756277 -1.00135
1293.80078125 1.777851 0.724151 -1.0537
1294.34375 1.646248 0.613799 -1.032449
1294.87109375 1.614821 0.574853 -1.039968
1295.41015625 1.605491 0.589717 -1.015774
1295.92578125 1.758434 0.765117 -0.993317
1296.4609375 1.77787 0.774464 -1.003406
1296.99609375 1.768092 0.718143 -1.049949
1297.55859375 1.6863000000000001 0.643623 -1.042677
1298.1484375 1.615986 0.542738 -1.073248
1298.76171875 1.569776 0.50967 -1.060106
1299.33203125 1.642817 0.581873 -1.060944
1299.8984375 1.869599 0.837786 -1.031813
1300.40234375 1.808264 0.769808 -1.038456
1300.921875 1.833576 0.744917 -1.088659
1301.4296875 1.727811 0.688199 -1.039612
1301.94921875 1.578435 0.553115 -1.02532
1302.48828125 1.524572 0.530322 -0.99425
1303.03515625 1.587621 0.59003 -0.997591
1303.62890625 1.69051 0.777852 -0.912658
1304.1875 1.794464 0.817448 -0.977016
1304.6015625 3.288056 2.287548 -1.000508
1304.8828125 2.607765 1.618614 -0.989151
1305.8515625 1.5380699999999998 0.555483 -0.982587
1306.94140625 1.593079 0.594951 -0.998128
1307.44921875 1.658042 0.714095 -0.943947
1307.96875 1.8040280000000002 0.71345 -1.090578
1308.4765625 1.647042 0.632042 -1.015
1309.0 1.6351390000000001 0.655 -0.980139
1309.53125 1.631571 0.650212 -0.981359
1310.09375 1.605353 0.621016 -0.984337
1310.625 1.55498 0.54 -1.01498
1311.1875 1.633403 0.618676 -1.014727
1311.72265625 1.806036 0.807878 -0.998158
1312.2421875 1.820845 0.848163 -0.972682
1312.7265625 1.904756 0.879756 -1.025
1313.22265625 1.904887 0.88957 -1.015317
1313.70703125 1.839049 0.859293 -0.979756
1314.22265625 1.885513 0.859716 -1.025797
1314.76171875 1.8881869999999998 0.803654 -1.084533
1315.34375 1.753955 0.683016 -1.070939
1315.90625 1.794355 0.770641 -1.023714
1316.48046875 1.8898830000000002 0.839883 -1.05
1317.02734375 1.780148 0.801729 -0.978419
1317.58203125 1.82685 0.792027 -1.034823
1318.12109375 1.7959549999999997 0.750987 -1.044968
1318.63671875 1.735147 0.729824 -1.005323
1319.15625 1.753338 0.733071 -1.020267
1319.66796875 1.7682540000000002 0.767437 -1.000817
1320.20703125 1.7546979999999999 0.729842 -1.024856
1320.7265625 1.71956 0.72456 -0.995
1321.28515625 1.6989930000000002 0.692929 -1.006064
1321.828125 1.725564 0.724917 -1.000647
1322.3828125 1.7647789999999999 0.74205 -1.022729
1322.9609375 1.74661 0.689687 -1.056923
1323.55859375 1.703289 0.67953 -1.023759
1324.1015625 1.7320320000000002 0.696702 -1.03533
1324.6328125 1.67003 0.618749 -1.051281
1325.140625 1.6368110000000002 0.58767 -1.049141
1325.65625 1.7474180000000001 0.763429 -0.983989
1326.17578125 1.77366 0.747351 -1.026309
1326.69921875 1.771873 0.698609 -1.073264
1327.25390625 1.683876 0.596803 -1.087073
1327.83203125 1.579844 0.510045 -1.069799
1328.4453125 1.561642 0.505586 -1.056056
1329.015625 1.63901 0.599383 -1.039627
1329.59375 1.794356 0.78 -1.014356
1330.10546875 1.87667 0.774932 -1.101738
1330.625 1.803884 0.7 -1.103884
1331.15234375 1.605206 0.541758 -1.063448
1331.69140625 1.574128 0.518951 -1.055177
1332.2265625 1.601483 0.561483 -1.04
1332.7734375 1.830226 0.823345 -1.006881
1333.296875 1.850021 0.752321 -1.0977
1333.7578125 3.039194 1.934258 -1.104936
1334.42578125 1.474567 0.450943 -1.023624
1334.9921875 1.445078 0.449653 -0.995425
1335.55859375 1.61469 0.64469 -0.97
1336.08984375 1.805884 0.860562 -0.945322
1336.6015625 1.8883729999999999 0.883373 -1.005
1337.0859375 1.727173 0.774567 -0.952606
1337.578125 1.7159149999999999 0.74092 -0.974995
1338.08203125 1.7534770000000002 0.728546 -1.024931
1338.59375 1.603123 0.686466 -0.916657
1339.01953125 2.8703640000000004 2.059934 -0.81043
1339.76953125 1.693632 0.809956 -0.883676
1340.85546875 1.7623090000000001 0.819819 -0.94249
1341.45703125 1.759642 0.864727 -0.894915
1341.98828125 1.8030460000000001 0.8231 -0.979946
1342.50390625 1.7320440000000001 0.797257 -0.934787
1343.0078125 1.761599 0.845298 -0.916301
1343.5078125 1.82309 0.845935 -0.977155
1344.01171875 1.739047 0.804468 -0.934579
1344.55078125 1.7768 0.81597 -0.96083
1345.109375 1.673732 0.780728 -0.893004
1345.69921875 1.752771 0.860761 -0.89201
1346.2734375 1.756567 0.856725 -0.899842
1346.84765625 1.779576 0.844576 -0.935
1347.26953125 3.039905 2.114905 -0.925
1347.95703125 1.642129 0.732304 -0.909825
1348.49609375 1.66378 0.768482 -0.895298
1349.0078125 1.786177 0.848534 -0.937643
1349.5234375 1.685674 0.745674 -0.94
1350.0390625 1.719191 0.789691 -0.9295
1350.578125 1.5751439999999999 0.690653 -0.884491
1351.125 1.587679 0.74 -0.847679
1351.69921875 1.74839 0.864955 -0.883435
1352.2578125 1.7217410000000002 0.792019 -0.929722
1352.84765625 1.711348 0.761348 -0.95
1353.44140625 1.661965 0.764254 -0.897711
1354.00390625 1.643433 0.728053 -0.91538
1354.52734375 1.593054 0.718474 -0.87458
1355.03515625 1.7074379999999998 0.822803 -0.884635
1355.53125 1.69422 0.774672 -0.919548
1356.05859375 1.6323059999999998 0.719783 -0.912523
1356.6171875 1.700895 0.730972 -0.969923
1357.1796875 1.6084260000000001 0.67848 -0.929946
1357.765625 1.578345 0.658942 -0.919403
1358.328125 1.643173 0.768157 -0.875016
1358.90234375 1.767197 0.815267 -0.95193
1359.4453125 1.670207 0.737544 -0.932663
1359.9921875 1.610866 0.712015 -0.898851
1360.515625 1.541595 0.641616 -0.899979
1361.03515625 1.5694620000000001 0.665458 -0.904004
1361.55078125 1.656813 0.794647 -0.862166
1362.06640625 1.739364 0.868443 -0.870921
1362.58203125 1.752492 0.858899 -0.893593
1363.1171875 1.727064 0.792258 -0.934806
1363.65625 1.595552 0.71593 -0.879622
1364.234375 1.630406 0.77 -0.860406
1364.828125 1.713096 0.858096 -0.855
1365.40234375 1.838231 0.904355 -0.933876
1365.9453125 1.784548 0.829489 -0.955059
1366.453125 1.771095 0.792583 -0.978512
1366.9609375 1.685426 0.744926 -0.9405
1367.4609375 1.640927 0.772108 -0.868819
1367.98046875 1.771161 0.889833 -0.881328
1368.484375 1.8280750000000001 0.905 -0.923075
1369.03515625 1.776491 0.867209 -0.909282
1369.609375 1.6781380000000001 0.798643 -0.879495
1370.1875 1.6743350000000001 0.772593 -0.901742
1370.76171875 1.666159 0.82531 -0.840849
1371.3125 1.809391 0.875 -0.934391
1371.84375 1.751939 0.823375 -0.928564
1372.375 1.76947 0.8 -0.96947
1372.90625 1.678922 0.761462 -0.91746
1373.421875 1.642484 0.725088 -0.917396
1373.9453125 1.656636 0.827039 -0.829597
1374.45703125 1.733737 0.808899 -0.924838
1374.98828125 1.726472 0.807621 -0.918851
1375.53125 1.660606 0.742662 -0.917944
1376.11328125 1.652534 0.694434 -0.9581
1376.66015625 1.538955 0.621507 -0.917448
1377.24609375 1.699193 0.764235 -0.934958
1377.8046875 1.733682 0.788531 -0.945151
1378.33984375 1.762086 0.822334 -0.939752
1378.8515625 1.653092 0.728092 -0.925
1379.36328125 1.5604559999999998 0.685712 -0.874744
1379.87109375 1.594694 0.666262 -0.928432
1380.40625 1.7287379999999999 0.803711 -0.925027
1380.95703125 1.762384 0.804438 -0.957946
1381.51953125 1.727514 0.769995 -0.957519
1382.09765625 1.662634 0.662634 -1.0
1382.671875 1.566845 0.627742 -0.939103
1383.25 1.5630199999999999 0.6 -0.96302
1383.7890625 1.693234 0.708975 -0.984259
1384.31640625 1.707384 0.684312 -1.023072
1384.81640625 1.597415 0.629256 -0.968159
1385.3359375 1.497085 0.534524 -0.962561
1385.859375 1.542274 0.578066 -0.964208
1386.3984375 1.557982 0.612507 -0.945475
1386.9140625 1.684771 0.724979 -0.959792
1387.45703125 1.7571659999999998 0.712209 -1.044957
1387.984375 1.7758530000000001 0.678451 -1.097402
1388.5390625 1.676531 0.659872 -1.016659
1389.12109375 1.630179 0.627723 -1.002456
1389.703125 1.656063 0.685 -0.971063
1390.22265625 1.827433 0.857658 -0.969775
1390.73046875 1.788058 0.799863 -0.988195
1391.21484375 1.8513549999999999 0.816561 -1.034794
1391.71875 1.6750789999999998 0.672144 -1.002935
1392.24609375 1.661454 0.681156 -0.980298
1392.765625 1.626135 0.701351 -0.924784
1393.30859375 1.834617 0.924712 -0.909905
1393.86328125 1.838069 0.887231 -0.950838
1394.47265625 1.810947 0.830947 -0.98
1394.9140625 3.0578399999999997 2.069797 -0.988043
1395.625 1.629926 0.655 -0.974926
1396.14453125 1.667373 0.69496 -0.972413
1396.6640625 1.791196 0.884248 -0.906948
1397.17578125 1.8237869999999998 0.817638 -1.006149
1397.703125 1.8352709999999999 0.808676 -1.026595
1398.234375 1.66925 0.635333 -1.033917
1398.77734375 1.659533 0.648636 -1.010897
1399.3125 1.633473 0.618824 -1.014649
1399.87109375 1.8121010000000002 0.787141 -1.02496
1400.41796875 1.733277 0.716429 -1.016848
1400.984375 1.749612 0.689269 -1.060343
1401.54296875 1.664965 0.595627 -1.069338
1402.08984375 1.681117 0.634948 -1.046169
1402.62109375 1.7761040000000001 0.801296 -0.974808
1403.125 1.8553009999999999 0.85 -1.005301
1403.62890625 1.810501 0.780628 -1.029873
1404.1484375 1.649937 0.703277 -0.94666
1404.66796875 1.614068 0.667918 -0.94615
1405.2265625 1.65495 0.752573 -0.902377
1405.82421875 1.769022 0.856236 -0.912786
1406.41796875 1.741665 0.805405 -0.93626
1407.00390625 1.732376 0.768166 -0.96421
1407.56640625 1.570241 0.642627 -0.927614
1408.10546875 1.5933959999999998 0.634871 -0.958525
1408.62890625 1.574781 0.645013 -0.929768
1409.15234375 1.790144 0.837757 -0.952387
1409.64453125 1.755481 0.794968 -0.960513
1410.16796875 1.715182 0.709214 -1.005968
1410.7109375 1.654267 0.626142 -1.028125
1411.28125 1.560379 0.527566 -1.032813
1411.84375 1.5848360000000001 0.552928 -1.031908
1412.4140625 1.707729 0.741089 -0.96664
1412.953125 1.763547 0.749524 -1.014023
1413.5078125 1.793965 0.719738 -1.074227
1414.0546875 1.727312 0.693991 -1.033321
1414.58984375 1.640645 0.627289 -1.013356
1415.10546875 1.609934 0.644877 -0.965057
1415.515625 3.079559 2.206122 -0.873437
1416.125 1.8249529999999998 0.94 -0.884953
1416.63671875 1.722185 0.77869 -0.943495
1417.1953125 1.7395909999999999 0.802647 -0.936944
1417.546875 1.769307 0.899285 -0.870022
1418.32421875 1.540029 0.672476 -0.867553
1418.90234375 1.6776149999999999 0.823687 -0.853928
1419.4921875 1.677626 0.881642 -0.795984
1420.0234375 1.890399 0.920762 -0.969637
1420.55078125 1.646235 0.739197 -0.907038
1421.05859375 1.5211009999999998 0.618844 -0.902257
1421.56640625 1.46593 0.572834 -0.893096
1422.08984375 1.590612 0.701938 -0.888674
1422.62890625 1.6628219999999998 0.739999 -0.922823
1423.16015625 1.642222 0.710555 -0.931667
1423.72265625 1.568845 0.628845 -0.94
1424.26171875 1.565356 0.646982 -0.918374
1424.8046875 1.6122049999999999 0.75507 -0.857135
1425.328125 1.699796 0.88425 -0.815546
1425.85546875 1.753115 0.919914 -0.833201
1426.359375 1.76502 0.881703 -0.883317
1426.875 1.724092 0.835 -0.889092
1427.38671875 1.630188 0.769946 -0.860242
1427.8984375 1.6838160000000002 0.823822 -0.859994
1428.41015625 1.83967 1.003777 -0.835893
1428.9296875 1.806986 0.976662 -0.830324
1429.4609375 1.788774 0.907119 -0.881655
1430.01953125 1.68214 0.834953 -0.847187
1430.6171875 1.612149 0.742258 -0.869891
1431.20703125 1.782429 0.962511 -0.819918
1431.76171875 1.805825 0.955385 -0.85044
1432.28125 1.812897 0.898112 -0.914785
1432.7890625 1.785848 0.870586 -0.915262
1433.3046875 1.680722 0.724523 -0.956199
1433.83203125 1.580893 0.657407 -0.923486
1434.34375 1.723425 0.801126 -0.922299
1434.88671875 1.7597770000000001 0.892916 -0.866861
1435.44140625 1.77725 0.919333 -0.857917
1435.890625 3.013481 2.133481 -0.88
1436.59375 1.560799 0.717566 -0.843233
1437.1640625 1.529953 0.664953 -0.865
1437.7109375 1.77954 0.941138 -0.838402
1438.23046875 1.746246 0.904922 -0.841324
1438.7578125 1.756181 0.821662 -0.934519
1439.27734375 1.471663 0.678951 -0.792712
1439.79296875 1.56958 0.666342 -0.903238
1440.33203125 1.505912 0.696047 -0.809865
1440.84375 1.6345589999999999 0.82675 -0.807809
1441.375 1.721202 0.8 -0.921202
1441.92578125 1.626389 0.730506 -0.895883
1442.47265625 1.672221 0.721412 -0.950809
1443.05078125 1.576181 0.774905 -0.801276
1443.609375 1.5890119999999999 0.830458 -0.758554
1444.15234375 1.7442479999999998 1.03253 -0.711718
1444.63671875 1.793518 1.003801 -0.789717
1445.140625 1.801091 0.937026 -0.864065
1445.625 1.783964 0.86 -0.923964
1446.12890625 2.4280999999999997 1.777718 -0.650382
1446.6796875 1.659583 0.83 -0.829583
1447.25390625 1.802642 0.96777 -0.834872
1447.8046875 1.871996 0.978396 -0.8936
1448.4140625 1.7918370000000001 0.849978 -0.941859
1448.98046875 1.697641 0.784957 -0.912684
1449.546875 1.635309 0.70836 -0.926949
1450.08984375 1.6406779999999999 0.712961 -0.927717
1450.609375 1.762969 0.913742 -0.849227
1451.1171875 1.76056 0.893138 -0.867422
1451.625 1.774008 0.885 -0.889008
1452.171875 1.7014559999999999 0.828407 -0.873049
1452.7109375 1.5905749999999999 0.755575 -0.835
1453.13671875 3.078445 2.303515 -0.77493
1453.8203125 1.670923 0.899963 -0.77096
1454.37890625 1.6849470000000002 0.844134 -0.840813
1454.97265625 1.7663380000000002 0.91049 -0.855848
1455.58203125 1.618835 0.73 -0.888835
1456.12890625 1.586586 0.717646 -0.86894
1456.66015625 1.5771549999999999 0.68772 -0.889435
1457.15625 1.726142 0.907131 -0.819011
1457.6484375 1.732049 0.868673 -0.863376
1458.16796875 1.742904 0.853371 -0.889533
1458.6953125 1.652954 0.776234 -0.87672
1459.25 1.569347 0.71 -0.859347
1459.828125 1.5984829999999999 0.743483 -0.855
1460.4609375 1.6018620000000001 0.76972 -0.832142
1461.046875 1.794329 1.019203 -0.775126
1461.484375 3.0448820000000003 2.232895 -0.811987
1461.7734375 2.50389 1.853919 -0.649971
1462.625 1.546417 0.76 -0.786417
1463.07421875 2.377073 1.877857 -0.499216
1463.67578125 1.5116550000000002 0.733172 -0.778483
1464.1953125 1.54742 0.752657 -0.794763
1464.72265625 1.785103 0.975103 -0.81
1465.23046875 1.5534940000000002 0.954107 -0.599387
1465.7734375 1.7080739999999999 0.866032 -0.842042
1466.31640625 1.630274 0.81805 -0.812224
1466.875 1.6694149999999999 0.86 -0.809415
1467.41015625 1.6811099999999999 0.875241 -0.805869
1467.9453125 1.812923 1.03314 -0.779783
1468.453125 1.8426900000000002 0.958125 -0.884565
1468.94921875 1.845315 0.909101 -0.936214
1469.4375 1.742254 0.777372 -0.964882
1469.953125 1.7363680000000001 0.852566 -0.883802
1470.4453125 1.726226 0.843044 -0.883182
1470.97265625 1.838683 0.996138 -0.842545
1471.52734375 1.861899 0.967139 -0.89476
1472.12109375 1.766289 0.92 -0.846289
1472.69140625 1.78844 0.934542 -0.853898
1473.2734375 1.724662 0.894743 -0.829919
1473.80859375 1.740557 0.932782 -0.807775
1474.171875 3.260781 2.443597 -0.817184
1474.82421875 1.630015 0.787189 -0.842826
1475.3125 1.628432 0.6823 -0.946132
1475.83203125 1.600298 0.703843 -0.896455
1476.3515625 1.744843 0.808345 -0.936498
1476.90234375 1.8447339999999999 0.804863 -1.039871
1477.32421875 2.978915 1.9835 -0.995415
1477.99609375 1.655893 0.686937 -0.968956
1478.53125 1.5889570000000002 0.695297 -0.89366
1479.08203125 1.812358 0.893098 -0.91926
1479.64453125 1.649143 0.774981 -0.874162
1480.19140625 1.721163 0.848332 -0.872831
1480.6953125 1.693534 0.772128 -0.921406
1481.10546875 3.0436689999999995 2.174628 -0.869041
1481.6796875 1.825692 0.898907 -0.926785
1482.18359375 1.7367949999999999 0.828989 -0.907806
1482.703125 1.7814459999999999 0.83305 -0.948396
1483.23046875 1.636257 0.694967 -0.94129
1483.7890625 1.743786 0.79 -0.953786
1484.34375 1.7608380000000001 0.836591 -0.924247
1484.9296875 1.818859 0.838856 -0.980003
1485.35546875 1.503065 0.924923 -0.578142
1486.01953125 1.541206 0.636233 -0.904973
1486.5234375 1.669801 0.740752 -0.929049
1486.9921875 2.80856 1.86631 -0.94225
1487.52734375 1.7849249999999999 0.807902 -0.977023
1488.05859375 1.7148430000000001 0.749843 -0.965
1488.578125 1.738149 0.764519 -0.97363
1489.1328125 1.5341339999999999 0.679134 -0.855
1489.65625 1.842692 0.939308 -0.903384
1490.1953125 1.7136550000000002 0.798987 -0.914668
1490.73046875 1.765076 0.809836 -0.95524
1491.2890625 1.703065 0.709648 -0.993417
1491.82421875 1.675975 0.668838 -1.007137
1492.34765625 1.743483 0.822161 -0.921322
1492.84765625 1.878785 0.863785 -1.015
1493.34765625 1.7111040000000002 0.689868 -1.021236
1493.84765625 1.6951619999999998 0.658411 -1.036751
1494.37109375 1.702435 0.732435 -0.97
1494.890625 1.7114319999999998 0.747239 -0.964193
1495.43359375 1.747241 0.794786 -0.952455
1496.015625 1.7588439999999999 0.815739 -0.943105
1496.60546875 1.686528 0.779966 -0.906562
1497.1875 1.608355 0.729062 -0.879293
1497.73828125 1.698392 0.841208 -0.857184
1498.25390625 1.747674 0.857514 -0.89016
1498.6640625 2.9955920000000003 2.128731 -0.866861
1499.27734375 1.7520790000000002 0.888584 -0.863495
1499.765625 1.599006 0.734108 -0.864898
1500.30078125 1.719298 0.852363 -0.866935
1500.84375 1.6662629999999998 0.797137 -0.869126
1501.40625 1.790353 0.842224 -0.948129
1501.95703125 1.737393 0.802393 -0.935
1502.3828125 2.876614 1.951684 -0.92493
1502.7578125 2.667839 1.698033 -0.969806
1503.60546875 1.594296 0.724907 -0.869389
1504.16015625 1.512799 0.619598 -0.893201
1504.6875 1.747071 0.822283 -0.924788
1505.1875 1.711058 0.776429 -0.934629
1505.70703125 1.652709 0.753611 -0.899098
1506.20703125 1.633308 0.68854 -0.944768
1506.73046875 1.5730909999999998 0.654893 -0.918198
1507.28515625 1.5252080000000001 0.634345 -0.890863
1507.8203125 1.681338 0.842017 -0.839321
1508.3828125 1.7616260000000001 0.90152 -0.860106
1508.94140625 1.8254640000000002 0.919452 -0.906012
1509.53125 1.7005430000000001 0.781466 -0.919077
1510.0625 1.577445 0.669208 -0.908237
1510.58984375 1.610168 0.689671 -0.920497
1511.09375 1.640336 0.719167 -0.921169
1511.59765625 1.723252 0.86 -0.863252
1512.109375 1.775031 0.885 -0.890031
1512.6640625 1.735373 0.804464 -0.930909
1513.203125 1.7129240000000001 0.742955 -0.969969
1513.78515625 1.615532 0.726828 -0.888704
1514.3359375 1.7034250000000002 0.859832 -0.843593
1514.7734375 3.002771 2.152866 -0.849905
1515.41796875 1.750982 0.842172 -0.90881
1515.94921875 1.690006 0.684634 -1.005372
1516.45703125 1.611361 0.641065 -0.970296
1516.96484375 1.579028 0.631947 -0.947081
1517.47265625 1.854059 0.882845 -0.971214
1517.9765625 1.8554680000000001 0.860468 -0.995
1518.4765625 1.812205 0.782205 -1.03
1519.00390625 1.8036189999999999 0.788053 -1.015566
1519.53125 1.7032669999999999 0.759672 -0.943595
1520.08984375 1.67865 0.733826 -0.944824
1520.49609375 3.122089 2.26307 -0.859019
1521.25390625 1.725774 0.869993 -0.855781
1521.796875 1.694547 0.814716 -0.879831
1522.33203125 1.670238 0.795249 -0.874989
1522.83203125 1.715158 0.845267 -0.869891
1523.33203125 1.866347 0.90528 -0.961067
1523.8359375 1.76896 0.829192 -0.939768
1524.33984375 1.766969 0.806586 -0.960383
1524.875 1.677695 0.78 -0.897695
1525.4296875 1.61231 0.804048 -0.808262
1526.01953125 1.698273 0.875531 -0.822742
1526.5703125 1.75373 0.908044 -0.845686
1527.140625 1.788291 0.891217 -0.897074
1527.69140625 1.740055 0.825872 -0.914183
1528.21484375 1.638309 0.745 -0.893309
