143 
301 
410 
643 
869 
998 
1269 
1454 
1662 
1773 
1996 
2165 
2493 
2687 
2922 
3179 
3427 
3607 
3794 
3918 
4145 
4324 
4503 
4612 
4879 
5117 
5328 
5448 
5726 
5890 
6064 
6256 
6561 
6752 
6945 
7170 
7364 
7554 
7673 
7898 
8082 
8291 
8409 
8625 
8798 
9048 
9249 
9372 
9584 
9755 
9941 
10115 
10328 
10513 
10624 
10891 
11057 
11246 
11425 
11747 
12023 
12216 
12380 
12561 
12723 
12933 
13117 
13325 
13548 
13698 
13952 
14116 
14314 
14415 
14673 
14857 
15092 
15268 
15458 
15617 
15799 
15909 
16151 
16337 
16575 
16886 
17128 
17310 
17481 
17678 
17904 
18046 
18262 
18439 
18605 
18713 
18917 
19093 
19290 
19402 
19678 
19867 
20030 
20192 
20296 
20650 
20839 
21056 
21283 
21399 
21624 
21791 
21946 
22119 
22420 
22595 
22856 
23052 
23174 
23447 
23638 
23755 
23985 
24172 
24361 
24534 
24641 
24853 
25037 
25352 
25536 
25729 
25875 
26133 
26299 
26470 
26579 
26902 
27079 
27309 
27500 
27678 
27894 
28117 
28225 
28443 
28618 
28791 
28911 
29154 
29385 
29545 
29697 
29814 
30089 
30318 
30436 
30655 
30823 
30983 
31138 
31305 
31513 
31632 
31873 
32067 
32208 
32425 
32600 
32806 
32917 
33147 
33342 
33512 
33690 
33802 
34025 
34214 
34331 
34524 
34721 
34941 
35063 
35276 
35434 
35590 
35699 
35945 
36293 
36522 
36635 
36852 
37059 
37175 
37390 
37583 
37755 
38001 
38194 
38374 
38567 
38827 
39003 
39171 
39289 
39539 
39715 
39911 
40063 
40270 
40445 
40769 
40953 
41118 
41238 
41474 
41638 
41807 
41915 
42128 
42295 
42493 
42679 
42978 
43145 
43320 
43427 
43652 
43878 
43996 
44325 
44529 
44640 
44876 
45045 
45208 
45384 
45500 
45711 
45881 
46045 
46151 
46382 
46542 
46722 
46834 
47124 
47448 
47662 
47772 
47996 
48172 
48368 
48488 
48700 
49041 
49277 
49450 
49765 
49995 
50162 
50399 
50612 
50724 
50970 
51195 
51394 
51596 
51719 
51974 
52140 
52320 
52435 
52673 
53041 
53244 
53358 
53574 
53746 
53906 
54066 
54246 
54430 
54566 
54825 
55023 
55223 
55341 
55530 
55682 
55852 
55969 
56203 
56382 
56644 
56834 
56954 
57184 
57340 
57502 
57726 
57844 
58096 
58330 
58441 
58675 
58841 
58999 
59180 
59296 
59537 
59696 
59908 
60119 
60225 
60468 
60642 
60823 
60944 
61167 
61341 
61504 
61615 
61828 
62009 
62257 
62378 
62641 
62804 
62988 
63098 
63396 
63538 
63750 
63932 
64228 
64404 
64568 
64746 
64904 
65054 
65213 
65384 
65586 
65772 
65885 
66102 
66257 
66415 
66533 
66819 
66999 
67172 
67284 
67524 
67687 
67866 
68055 
68224 
68387 
68506 
68761 
68926 
69119 
69324 
69434 
69674 
69839 
69992 
70162 
70290 
70505 
70651 
70856 
71033 
71189 
71308 
71525 
71730 
71846 
72109 
72283 
72448 
72601 
72739 
72941 
73137 
73262 
73482 
73667 
73864 
73976 
74205 
74404 
74517 
74782 
75015 
75129 
75435 
75604 
75753 
75912 
76030 
76250 
76424 
76593 
76704 
76914 
77132 
77241 
77456 
77906 
78071 
78248 
78357 
78576 
78726 
78980 
79164 
79373 
79490 
79762 
79959 
80065 
80254 
80420 
80609 
80734 
80948 
81120 
81296 
81495 
81754 
81913 
82081 
82266 
82425 
82587 
82726 
82910 
83068 
83288 
83641 
83858 
83977 
84231 
84400 
84563 
84778 
84943 
85106 
85219 
85478 
85656 
85867 
86094 
86197 
86419 
86601 
86775 
86949 
87147 
87429 
87740 
87904 
88080 
88409 
88581 
88805 
89103 
89322 
89523 
89641 
89895 
90056 
90212 
90381 
90500 
90738 
91039 
91237 
91352 
91623 
91781 
91942 
92128 
92296 
92485 
92648 
92819 
92946 
93212 
93403 
93525 
93764 
93995 
94148 
94308 
94484 
94599 
94822 
95132 
95295 
95447 
95556 
95755 
96076 
96275 
96472 
96589 
96830 
96980 
97142 
97246 
97463 
97637 
97814 
97928 
98170 
98369 
98479 
98697 
98856 
99087 
99247 
99411 
99568 
99797 
99964 
100111 
100230 
100450 
100692 
100914 
101039 
101307 
101470 
101633 
101791 
101901 
102115 
102308 
102479 
102638 
102756 
102962 
103153 
103268 
103499 
103703 
103825 
104096 
104258 
104427 
104590 
104736 
104934 
105054 
105294 
105459 
105624 
105796 
105955 
106125 
106241 
106470 
106655 
106801 
107025 
107229 
107439 
107546 
107790 
107963 
108188 
108306 
108569 
108753 
108877 
109068 
109249 
109406 
109565 
109682 
109918 
110082 
110287 
110469 
110624 
110802 
111018 
111125 
111396 
111585 
111763 
111919 
112044 
112234 
112382 
112546 
112783 
112943 
113125 
113298 
113472 
113636 
113797 
113946 
114102 
114262 
114384 
114675 
114860 
115023 
115149 
115334 
115489 
115643 
115785 
115987 
116154 
116343 
116554 
116662 
116913 
117086 
117203 
117438 
117639 
117801 
117973 
118088 
118349 
118515 
118692 
118817 
119059 
119240 
119405 
119651 
119821 
119983 
120095 
120320 
120476 
120641 
120756 
120989 
121178 
121347 
121542 
121828 
122066 
122280 
122399 
122683 
122861 
123028 
123194 
123424 
123638 
123757 
124032 
124240 
124356 
124569 
124732 
124938 
125117 
125349 
125524 
125712 
125878 
126084 
126369 
126567 
126699 
126960 
127144 
127313 
127529 
127689 
127864 
127969 
128199 
128387 
128578 
128701 
128949 
129114 
129298 
129517 
129629 
129876 
130088 
130208 
130472 
130778 
130949 
131101 
131284 
131463 
131638 
131821 
131935 
132236 
132422 
132604 
132724 
132941 
133156 
133273 
133551 
133715 
133859 
134010 
134129 
134342 
134512 
134684 
134799 
135009 
135181 
135361 
135467 
135658 
135861 
135986 
136250 
136427 
136620 
136731 
136945 
137121 
137356 
137536 
137728 
137855 
138037 
138213 
138429 
138612 
138774 
138933 
139052 
139273 
139440 
139612 
139730 
139977 
140166 
140280 
140484 
140696 
140823 
141052 
141221 
141361 
141506 
141679 
141815 
141980 
142102 
142374 
142553 
142705 
142821 
143042 
143236 
143347 
143614 
143814 
143989 
144185 
144302 
144503 
144657 
144803 
144942 
145118 
145358 
145560 
145722 
145876 
145990 
146199 
146390 
146501 
146730 
146939 
147115 
147260 
147448 
147606 
147762 
147879 
148166 
148325 
148520 
148634 
148851 
149036 
149151 
149335 
149516 
149680 
149871 
150073 
150293 
150404 
150637 
150810 
150983 
151107 
151288 
151452 
151633 
151753 
152034 
152222 
152334 
152589 
152751 
152990 
153165 
153338 
153502 
153615 
153811 
154099 
154293 
154410 
154673 
154864 
155044 
155163 
155361 
155522 
155688 
155866 
156022 
156222 
156341 
156592 
156846 
157022 
157205 
157328 
157588 
157771 
157944 
158103 
158220 
158433 
158589 
158747 
158867 
159066 
159311 
159506 
159676 
159837 
159944 
160156 
160369 
160567 
160732 
160935 
161101 
161312 
161631 
161898 
162088 
162266 
162437 
162637 
162782 
162937 
163118 
163263 
163476 
163666 
163828 
164039 
164200 
164327 
164560 
164714 
165048 
165235 
165487 
165656 
165827 
165940 
166150 
166310 
166481 
166600 
166877 
167044 
167228 
167501 
167681 
167866 
167982 
168219 
168417 
168540 
168763 
169010 
169195 
169389 
169495 
169738 
169900 
170089 
170204 
170433 
170594 
170761 
170921 
171067 
171238 
171358 
171611 
171811 
171932 
172139 
172296 
172446 
172594 
172738 
172947 
173139 
173292 
173493 
173665 
173824 
173986 
174141 
174331 
174449 
174653 
174823 
174993 
175113 
175336 
175483 
175666 
175871 
176076 
176199 
176426 
176619 
176730 
176959 
177157 
177275 
177484 
177663 
177901 
178103 
178215 
178413 
178584 
178741 
178890 
179012 
179277 
179436 
179627 
179767 
179909 
180058 
180170 
180406 
180613 
180729 
180951 
181144 
181254 
181460 
181744 
181925 
182113 
182233 
182468 
182665 
182784 
182988 
183140 
183303 
183462 
183633 
183810 
183983 
184102 
184295 
184451 
184630 
184792 
184959 
185078 
185309 
185468 
185643 
185754 
185961 
186140 
186254 
186488 
186696 
186816 
187058 
187224 
187401 
187523 
187812 
187980 
188157 
188283 
188495 
188683 
188841 
189004 
189112 
189334 
189498 
189679 
189842 
190002 
190186 
190360 
190499 
190666 
190826 
191066 
191264 
191429 
191550 
191766 
191943 
192104 
192216 
192423 
192571 
192746 
192857 
193119 
193416 
193707 
193876 
194043 
194159 
194360 
194526 
194688 
194811 
195076 
195419 
195676 
195942 
196121 
196294 
196470 
196586 
196792 
196957 
197127 
197295 
197461 
197580 
197795 
198020 
198208 
198371 
198539 
198794 
199134 
199484 
199676 
199780 
200011 
200189 
200355 
200609 
200804 
200927 
201083 
201175 
201432 
201614 
201773 
201942 
202052 
202338 
202509 
202801 
202957 
203223 
203397 
203563 
203763 
203978 
204096 
204403 
204621 
204783 
204954 
205139 
205252 
205612 
205792 
205904 
206119 
206291 
206577 
206763 
206940 
207116 
207228 
207443 
207566 
207786 
208074 
208254 
208465 
208672 
208787 
209150 
209321 
209473 
209643 
209757 
209972 
210148 
210311 
210553 
210736 
210852 
211096 
211380 
211619 
211850 
212179 
212432 
212590 
212814 
212973 
213163 
213333 
213493 
213607 
213819 
214011 
214120 
214404 
214579 
214759 
214882 
215086 
215241 
215405 
215515 
215636 
215757 
215977 
216244 
216496 
216678 
216838 
217012 
217231 
217344 
217581 
217840 
218010 
218168 
218318 
218427 
218637 
218797 
218989 
219304 
219515 
219623 
219879 
220054 
220212 
220421 
220585 
220773 
221066 
221244 
221441 
221552 
221743 
221905 
222099 
222215 
222461 
222627 
222772 
222910 
223090 
223241 
223406 
223533 
223747 
223932 
224141 
224299 
224530 
224708 
224875 
224990 
225208 
225388 
225604 
225717 
225955 
226105 
226242 
226443 
226612 
226786 
226909 
227140 
227310 
227477 
227645 
227834 
228013 
228215 
228404 
228582 
228694 
228955 
229116 
229300 
229470 
229628 
229790 
229913 
230172 
230370 
230480 
230733 
230913 
231138 
231298 
231459 
231665 
231781 
231990 
232209 
232315 
232619 
232819 
232985 
233143 
233258 
233620 
233967 
234208 
234440 
234624 
234796 
234958 
235114 
235221 
235437 
235627 
235744 
236102 
236287 
236451 
236574 
236841 
236991 
237182 
237362 
237534 
237712 
237827 
238123 
238274 
238436 
238620 
238785 
238993 
239191 
239360 
239529 
239708 
239964 
240171 
240282 
240528 
240701 
240876 
241041 
241149 
241376 
241527 
241697 
241862 
242037 
242229 
242398 
242594 
242705 
242961 
243131 
243404 
243573 
243756 
243870 
244115 
244279 
244486 
244668 
244783 
244980 
245138 
245295 
245420 
245637 
245813 
245983 
246141 
246311 
246467 
246621 
246797 
247075 
247219 
247405 
247524 
247861 
248072 
248187 
248414 
248606 
248715 
248950 
249145 
249254 
249489 
249668 
249817 
250029 
250202 
250421 
250572 
250721 
250863 
251014 
251190 
251384 
251584 
251699 
251938 
252098 
252258 
252368 
252621 
252785 
252970 
253131 
253292 
253421 
253613 
253781 
253938 
254049 
254292 
254576 
254815 
254987 
255138 
255306 
255413 
255609 
255810 
255924 
256193 
256366 
256538 
256649 
256890 
257063 
257344 
257542 
257654 
257889 
258117 
258273 
258455 
258568 
258783 
258957 
259119 
259306 
259420 
259649 
259820 
259934 
260167 
260384 
260493 
260747 
260916 
261125 
261231 
261448 
261616 
261746 
261946 
262062 
262393 
262574 
262773 
262879 
263096 
263263 
263430 
263555 
263815 
264025 
264141 
264407 
264565 
264722 
264895 
265017 
265261 
265491 
265605 
265877 
266059 
266273 
266467 
266652 
266773 
267029 
267271 
267439 
267658 
267764 
267980 
268150 
268316 
268481 
268599 
268819 
269093 
269253 
269423 
269557 
269757 
269927 
270103 
270230 
270439 
270600 
270762 
270876 
271135 
271308 
271484 
271597 
271798 
272095 
272259 
272420 
272585 
272707 
272929 
273212 
273401 
273569 
273737 
273913 
274020 
274268 
274458 
274665 
274780 
275023 
275200 
275313 
275552 
275836 
276070 
276256 
276418 
276590 
276711 
276951 
277110 
277291 
277403 
277680 
277863 
278034 
278176 
278395 
278563 
278736 
278857 
279255 
279595 
279829 
280017 
280215 
280328 
280590 
280915 
281099 
281206 
281404 
281686 
281868 
282042 
282210 
282430 
282724 
282914 
283026 
283314 
283657 
283836 
284030 
284141 
284384 
284557 
284741 
284854 
285078 
285246 
285574 
285792 
285949 
286109 
286324 
286440 
286679 
286861 
287022 
287181 
287294 
287517 
287718 
287825 
288038 
288211 
288401 
288522 
288791 
288960 
289134 
289246 
289541 
289749 
290067 
290375 
290554 
290664 
290881 
291039 
291212 
291332 
291593 
291823 
291934 
292182 
292347 
292513 
292631 
292911 
293084 
293261 
293379 
293618 
293823 
293934 
294320 
294495 
294662 
294881 
295031 
295231 
295399 
295569 
295746 
295862 
296129 
296248 
296470 
296654 
296814 
296977 
297178 
297372 
297558 
297767 
297995 
298162 
298351 
298638 
298806 
298985 
299176 
299289 
299507 
299662 
299865 
300081 
300193 
300450 
300638 
300823 
300934 
301166 
301328 
301486 
301655 
301763 
302000 
302186 
302307 
302555 
302733 
302902 
303016 
303279 
303511 
303686 
303850 
304031 
304136 
304368 
304586 
304764 
305050 
305292 
305517 
305694 
305862 
306069 
306288 
306398 
306640 
306819 
306996 
307118 
307316 
307473 
307707 
307873 
308030 
308183 
308496 
308807 
308972 
309133 
309435 
309609 
309795 
310013 
310189 
310394 
310520 
310747 
310858 
311065 
311235 
311394 
311524 
311745 
311917 
312215 
312456 
312674 
312793 
313030 
313320 
313476 
313636 
313751 
313942 
314129 
314254 
314477 
314655 
314852 
314960 
315182 
315351 
315578 
315761 
315933 
316131 
316242 
316455 
316643 
316763 
316981 
317283 
317471 
317660 
317955 
318122 
318323 
318432 
318835 
319147 
319345 
319454 
319683 
319905 
320014 
320232 
320475 
320648 
320822 
320937 
321152 
321381 
321490 
321731 
321911 
322259 
322599 
322760 
323018 
323315 
323489 
323677 
323794 
324095 
324268 
324445 
324556 
324849 
325186 
325374 
325579 
325687 
325978 
326152 
326311 
326556 
326785 
326971 
327083 
327294 
327515 
327624 
327854 
328107 
328286 
328470 
328587 
328800 
328954 
329129 
329246 
329470 
329678 
329863 
329981 
330191 
330353 
330546 
330651 
330892 
331065 
331244 
331463 
331650 
331833 
332011 
332246 
332596 
332999 
333176 
333289 
333543 
333701 
333853 
334187 
334487 
334655 
334837 
334948 
335212 
335496 
335653 
335820 
335991 
336109 
336337 
336503 
336659 
336839 
337007 
337166 
337333 
337539 
337729 
337966 
338118 
338277 
338482 
338664 
338955 
339276 
339461 
339583 
339775 
339948 
340173 
340351 
340657 
340843 
341113 
341418 
341584 
341749 
341980 
342168 
342391 
342629 
342734 
343073 
343264 
343492 
343686 
344071 
344245 
344472 
344635 
344806 
345146 
345481 
345644 
345857 
346027 
346190 
346382 
346560 
346739 
346961 
347280 
347462 
347574 
347882 
348078 
348254 
348373 
348592 
348720 
348988 
349149 
349373 
349552 
349746 
350069 
350253 
350365 
350585 
350748 
350931 
351123 
351312 
351511 
351682 
351926 
352156 
352337 
352536 
352776 
352966 
353178 
353289 
353515 
353693 
353862 
354085 
354399 
354621 
354731 
355033 
355352 
355539 
355745 
355994 
356199 
356504 
356672 
356979 
357370 
357545 
357731 
357837 
358107 
358393 
358625 
358858 
358999 
359273 
359446 
359654 
360012 
360203 
360325 
360563 
360809 
360982 
361230 
361473 
361674 
361976 
362175 
362360 
362478 
362728 
362956 
363065 
363281 
363462 
363683 
363801 
364018 
364202 
364311 
364545 
364740 
364954 
365156 
365373 
365580 
365747 
365957 
366070 
366347 
366688 
366872 
367076 
367301 
367486 
367679 
368064 
368309 
368493 
368682 
368865 
369040 
369210 
369388 
369501 
369754 
369939 
370110 
370484 
370717 
370909 
371093 
371218 
371452 
371612 
371783 
371941 
372105 
372386 
372635 
372807 
373021 
373208 
373370 
373553 
373832 
374019 
374136 
374443 
374820 
375048 
375210 
375326 
375635 
375834 
376004 
376130 
376322 
376482 
376645 
376824 
376983 
377145 
377317 
377434 
377685 
377870 
378072 
378269 
378493 
378717 
378933 
379144 
379317 
379480 
379650 
379880 
380106 
380221 
380484 
380667 
380782 
381162 
381339 
381573 
381756 
382069 
382354 
382582 
382754 
382947 
383161 
383344 
383588 
383780 
383955 
384129 
384323 
384493 
384646 
384893 
385073 
385259 
385432 
385603 
385887 
386124 
386323 
386533 
386747 
386934 
387059 
387319 
387543 
387716 
387910 
388131 
388378 
388561 
388727 
388937 
389195 
389370 
389623 
389859 
390039 
390233 
390400 
390587 
390804 
390981 
391267 
391467 
391583 
391956 
392126 
392237 
392505 
392708 
392926 
393108 
393403 
393590 
393876 
394087 
394207 
394445 
394671 
394837 
395029 
395196 
395416 
395598 
395807 
396036 
396212 
396387 
396596 
396761 
396938 
397172 
397389 
397576 
397861 
398066 
398173 
398433 
398619 
398805 
399032 
399239 
399355 
399570 
399877 
400054 
400223 
400444 
400800 
400977 
401136 
401263 
401456 
401661 
401852 
402078 
402252 
402478 
402643 
402801 
402958 
403069 
403295 
403625 
403919 
404186 
404361 
404519 
404705 
404911 
405086 
405257 
405453 
405684 
405863 
406034 
406332 
406592 
406794 
406979 
407170 
407330 
407434 
407661 
407839 
408022 
408224 
408416 
408698 
408872 
409080 
409269 
409454 
409684 
410048 
410270 
410428 
410599 
410758 
410927 
411096 
411335 
411512 
411677 
411839 
412016 
412211 
412391 
412660 
412989 
413165 
413330 
413489 
413705 
413888 
414110 
414302 
414472 
414634 
414793 
414944 
415052 
415293 
415526 
415845 
416024 
416145 
416332 
416484 
416634 
416795 
416959 
417076 
417354 
417521 
417690 
417870 
418099 
418274 
418553 
418740 
418857 
419127 
419313 
419520 
419699 
419979 
420186 
420305 
420588 
420750 
420908 
421089 
421275 
421552 
421740 
421854 
422096 
422261 
422420 
422596 
422760 
422927 
423098 
423418 
423628 
423794 
423984 
424155 
424377 
424581 
424755 
424992 
425219 
425410 
425602 
425774 
425930 
426092 
426279 
426488 
426672 
426864 
427031 
427220 
427327 
427563 
427746 
427977 
428149 
428329 
428488 
428651 
428816 
428988 
429287 
429476 
429661 
429833 
430018 
430199 
430365 
430530 
430728 
430904 
431135 
431320 
431486 
431642 
431825 
432005 
432175 
432452 
432625 
432795 
432972 
433194 
433393 
433569 
433683 
433938 
434144 
434326 
434523 
434762 
435047 
435290 
435475 
435679 
435904 
436071 
436235 
436391 
436566 
436870 
437058 
437267 
437456 
437848 
438132 
438321 
438579 
438918 
439234 
439407 
439574 
439836 
440014 
440134 
440397 
440639 
440796 
440961 
441120 
441267 
441483 
441668 
441835 
442147 
442323 
442493 
442799 
442980 
443088 
443327 
443552 
443756 
443965 
444132 
444306 
444505 
444692 
444900 
445241 
445461 
445682 
445846 
446144 
446338 
446585 
446755 
446940 
447108 
447296 
447480 
447670 
447854 
448096 
448302 
448474 
448681 
448908 
449071 
449247 
449463 
449655 
449876 
450046 
450223 
450414 
450630 
450799 
451065 
451312 
451487 
451598 
451893 
452182 
452359 
452550 
452718 
452925 
453273 
453463 
453692 
453865 
454046 
454236 
454485 
454777 
454992 
455148 
455314 
455509 
455714 
455925 
456121 
456299 
456510 
456710 
456991 
457211 
457420 
457635 
457836 
458010 
458167 
458333 
458505 
458691 
458877 
459083 
459248 
459419 
459600 
459817 
460124 
460304 
460492 
460763 
460993 
461169 
461330 
461486 
461666 
461875 
462073 
