3.97265625 1.2699310000000001 0.718685 -0.551246
4.640625 1.366019 0.838254 -0.527765
5.28515625 1.3195139999999999 0.784747 -0.534767
5.9609375 1.212226 0.749899 -0.462327
6.6484375 1.224662 0.759006 -0.465656
7.32421875 1.232948 0.746829 -0.486119
7.984375 1.36347 0.856699 -0.506771
8.6484375 1.4480309999999998 0.919491 -0.52854
9.31640625 1.399154 0.899154 -0.5
9.984375 1.326431 0.841431 -0.485
10.66796875 1.286916 0.817218 -0.469698
11.34375 1.372636 0.887857 -0.484779
12.01171875 1.323096 0.833897 -0.489199
12.671875 1.339832 0.834916 -0.504916
13.3515625 1.299156 0.812908 -0.486248
14.0546875 1.3216100000000002 0.835281 -0.486329
14.73046875 1.21892 0.754995 -0.463925
15.3984375 1.257278 0.82053 -0.436748
16.0625 1.315391 0.850391 -0.465
16.734375 1.295909 0.851058 -0.444851
17.40625 1.319636 0.896757 -0.422879
18.09375 1.312411 0.875536 -0.436875
18.7578125 1.352579 0.902593 -0.449986
19.421875 1.359972 0.885 -0.474972
20.078125 1.3684749999999999 0.918661 -0.449814
20.75390625 1.451519 0.933227 -0.518292
21.4140625 1.459136 0.944828 -0.514308
22.078125 1.320283 0.853229 -0.467054
22.7265625 1.3033649999999999 0.828365 -0.475
23.38671875 1.264107 0.796304 -0.467803
24.0390625 1.276845 0.797147 -0.479698
24.71875 1.402153 0.927208 -0.474945
25.390625 1.472672 0.975857 -0.496815
26.04296875 1.31172 0.858521 -0.453199
26.69921875 1.328892 0.859004 -0.469888
27.36328125 1.367959 0.853127 -0.514832
28.05078125 1.307072 0.831823 -0.475249
28.71484375 1.2713860000000001 0.784719 -0.486667
29.37890625 1.37313 0.867246 -0.505884
30.02734375 1.465516 0.935516 -0.53
30.6796875 1.3540860000000001 0.837731 -0.516355
31.33203125 1.314678 0.822335 -0.492343
32.0 1.325 0.835 -0.49
32.6875 1.255709 0.800862 -0.454847
33.33203125 1.3620160000000001 0.875043 -0.486973
33.9921875 1.410389 0.896853 -0.513536
34.65234375 1.3915890000000002 0.851589 -0.54
35.33984375 1.324107 0.804171 -0.519936
36.00390625 1.2743829999999998 0.772095 -0.502288
36.67578125 1.185689 0.6618 -0.523889
37.33984375 1.252862 0.7244 -0.528462
38.015625 1.365791 0.82207 -0.543721
38.6796875 1.37866 0.844963 -0.533697
39.36328125 1.293701 0.77373 -0.519971
40.0546875 1.282566 0.773396 -0.50917
40.73046875 1.3495300000000001 0.839876 -0.509654
41.39453125 1.384665 0.874863 -0.509802
42.07421875 1.335531 0.778941 -0.55659
42.76171875 1.2945630000000001 0.790354 -0.504209
43.4453125 1.280107 0.769211 -0.510896
44.10546875 1.23243 0.730829 -0.501601
44.7734375 1.338509 0.810415 -0.528094
45.4375 1.3782860000000001 0.843048 -0.535238
46.10546875 1.319149 0.779241 -0.539908
46.78515625 1.250233 0.729713 -0.52052
47.46875 1.193397 0.663672 -0.529725
48.12890625 1.3057690000000002 0.775769 -0.53
48.78515625 1.379003 0.835463 -0.54354
49.45703125 1.303646 0.76447 -0.539176
50.140625 1.248126 0.754264 -0.493862
50.8125 1.216275 0.711525 -0.50475
51.4765625 1.258118 0.748118 -0.51
52.140625 1.314741 0.819484 -0.495257
52.8046875 1.257618 0.754477 -0.503141
53.4765625 1.235408 0.761155 -0.474253
54.16796875 1.2011669999999999 0.716167 -0.485
54.828125 1.298687 0.814167 -0.48452
55.50390625 1.351303 0.868023 -0.48328
56.16015625 1.2900179999999999 0.755251 -0.534767
56.84375 1.227774 0.737915 -0.489859
57.5234375 1.172645 0.68638 -0.486265
58.203125 1.257752 0.783229 -0.474523
58.8671875 1.323912 0.829614 -0.494298
59.54296875 1.256996 0.780382 -0.476614
60.2109375 1.140499 0.712147 -0.428352
60.91015625 1.152583 0.717854 -0.434729
61.6015625 1.139574 0.69252 -0.447054
62.27734375 1.1771610000000001 0.712161 -0.465
62.94140625 1.2687620000000002 0.773819 -0.494943
63.6171875 1.212608 0.705057 -0.507551
64.30859375 1.163827 0.703827 -0.46
64.98046875 1.1697769999999998 0.719872 -0.449905
65.64453125 1.143119 0.69951 -0.443609
66.30859375 1.244901 0.744901 -0.5
66.97265625 1.268002 0.773277 -0.494725
67.62890625 1.142488 0.644196 -0.498292
68.3046875 1.105739 0.600739 -0.505
68.984375 1.07609 0.584215 -0.491875
69.640625 1.033129 0.540815 -0.492314
70.29296875 1.132378 0.630366 -0.502012
70.9609375 1.2043249999999999 0.694748 -0.509577
71.64453125 1.209083 0.699811 -0.509272
72.30078125 1.178539 0.688305 -0.490234
72.96484375 1.182348 0.661801 -0.520547
73.62109375 1.085712 0.576571 -0.509141
74.29296875 1.184987 0.677272 -0.507715
74.95703125 1.219026 0.710781 -0.508245
75.62890625 1.353612 0.837279 -0.516333
76.296875 1.2623419999999999 0.762247 -0.500095
76.9609375 1.259626 0.784873 -0.474753
77.625 1.209857 0.75 -0.459857
78.3046875 1.2089050000000001 0.725585 -0.48332
79.0 1.338474 0.83 -0.508474
79.6640625 1.418813 0.89479 -0.524023
80.31640625 1.259892 0.776694 -0.483198
80.97265625 1.247212 0.749871 -0.497341
81.64453125 1.22619 0.744903 -0.481287
82.31640625 1.313317 0.828401 -0.484916
82.98828125 1.3747919999999998 0.868157 -0.506635
83.65234375 1.340187 0.805187 -0.535
84.31640625 1.239267 0.739503 -0.499764
84.984375 1.191768 0.716768 -0.475
85.66796875 1.172312 0.69847 -0.473842
86.35546875 1.236144 0.775 -0.461144
87.03125 1.3967649999999998 0.877713 -0.519052
87.6875 1.370098 0.843192 -0.526906
88.34375 1.3486150000000001 0.78367 -0.564945
89.0078125 1.3048009999999999 0.749815 -0.554986
89.68359375 1.2683239999999998 0.733686 -0.534638
90.359375 1.299439 0.779439 -0.52
91.02734375 1.3750520000000002 0.841489 -0.533563
91.69140625 1.3891930000000001 0.849243 -0.53995
92.33984375 1.3477540000000001 0.842442 -0.505312
93.0078125 1.290718 0.800725 -0.489993
93.6796875 1.283015 0.788396 -0.494619
94.34765625 1.326731 0.82016 -0.506571
94.99609375 1.37978 0.875271 -0.504509
95.6484375 1.468058 0.9 -0.568058
96.3046875 1.311687 0.807587 -0.5041
96.9765625 1.337878 0.854124 -0.483754
97.65234375 1.301408 0.823494 -0.477914
98.3203125 1.308831 0.832757 -0.476074
98.984375 1.43005 0.93005 -0.5
99.640625 1.4580129999999998 0.948741 -0.509272
100.3125 1.3215109999999999 0.854524 -0.466987
100.984375 1.275128 0.840444 -0.434684
101.6484375 1.267241 0.855697 -0.411544
102.30078125 1.3300830000000001 0.905093 -0.42499
102.953125 1.3706909999999999 0.906134 -0.464557
103.61328125 1.287326 0.837421 -0.449905
104.27734375 1.2278120000000001 0.827812 -0.4
104.953125 1.231025 0.806843 -0.424182
105.6015625 1.184188 0.775884 -0.408304
106.265625 1.324692 0.869849 -0.454843
106.91015625 1.432072 0.973028 -0.459044
107.58203125 1.319315 0.884938 -0.434377
108.2421875 1.294334 0.897584 -0.39675
108.90234375 1.333455 0.893455 -0.44
109.55078125 1.421866 0.961866 -0.46
110.19921875 1.4196909999999998 0.944691 -0.475
110.85546875 1.414459 0.924928 -0.489531
111.5234375 1.289499 0.869499 -0.42
112.19140625 1.35969 0.939953 -0.419737
112.84765625 1.306398 0.886398 -0.42
113.50390625 1.389806 0.938551 -0.451255
114.15625 1.532399 1.002966 -0.529433
114.81640625 1.3739460000000001 0.874066 -0.49988
115.48046875 1.336246 0.855 -0.481246
116.14453125 1.343998 0.839955 -0.504043
116.78515625 1.332282 0.832282 -0.5
117.42578125 1.404463 0.888939 -0.515524
118.07421875 1.443654 0.923947 -0.519707
118.734375 1.354058 0.860948 -0.49311
119.3984375 1.337782 0.853991 -0.483791
120.046875 1.31308 0.833102 -0.479978
120.70703125 1.2782019999999998 0.803858 -0.474344
121.3515625 1.4080940000000002 0.913603 -0.494491
122.0234375 1.3583699999999999 0.85337 -0.505
122.6953125 1.331734 0.86078 -0.470954
123.3671875 1.277979 0.803667 -0.474312
124.01953125 1.2422900000000001 0.800838 -0.441452
124.6875 1.313934 0.859719 -0.454215
125.3515625 1.452452 0.959491 -0.492961
126.03515625 1.390641 0.871801 -0.51884
126.71875 1.3207149999999999 0.869215 -0.4515
127.38671875 1.3315480000000002 0.866589 -0.464959
128.0546875 1.236774 0.751774 -0.485
128.72265625 1.335749 0.846333 -0.489416
129.40625 1.425094 0.913121 -0.511973
130.07421875 1.3170389999999998 0.812955 -0.504084
130.7421875 1.256637 0.777298 -0.479339
131.40625 1.275898 0.775898 -0.5
132.06640625 1.258674 0.728731 -0.529943
132.73046875 1.379686 0.824897 -0.554789
133.3984375 1.396874 0.824084 -0.57279
134.078125 1.284829 0.704829 -0.58
134.73828125 1.2575669999999999 0.69203 -0.565537
135.40625 1.207079 0.662736 -0.544343
136.08203125 1.178634 0.627053 -0.551581
136.77734375 1.2829380000000001 0.716394 -0.566544
137.43359375 1.408126 0.834953 -0.573173
138.09765625 1.3818519999999999 0.796157 -0.585695
138.75390625 1.2471269999999999 0.681846 -0.565281
139.4375 1.227215 0.703 -0.524215
140.09765625 1.265291 0.714731 -0.55056
140.77734375 1.298064 0.768064 -0.53
141.44140625 1.4048720000000001 0.864953 -0.539919
142.109375 1.425364 0.856696 -0.568668
142.7578125 1.318396 0.768396 -0.55
143.43359375 1.271123 0.751532 -0.519591
144.109375 1.2653159999999999 0.711892 -0.553424
144.7734375 1.2848709999999999 0.745412 -0.539459
145.42578125 1.293927 0.760394 -0.533533
146.08203125 1.366664 0.786608 -0.580056
146.75 1.3050000000000002 0.76 -0.545
147.4296875 1.265364 0.750364 -0.515
148.1171875 1.244942 0.707465 -0.537477
148.79296875 1.237364 0.70448 -0.532884
149.46484375 1.301035 0.736158 -0.564877
150.1171875 1.306024 0.749387 -0.556637
150.78125 1.194182 0.686311 -0.507871
151.47265625 1.168247 0.696394 -0.471853
152.140625 1.1996440000000002 0.721963 -0.477681
152.7890625 1.2342080000000002 0.694822 -0.539386
153.4375 1.260862 0.730862 -0.53
154.1015625 1.3069899999999999 0.739846 -0.567144
154.765625 1.205 0.675 -0.53
155.4375 1.1828370000000001 0.654158 -0.528679
156.1015625 1.194 0.634 -0.56
156.76953125 1.169176 0.609989 -0.559187
157.4296875 1.213037 0.655812 -0.557225
158.109375 1.288499 0.73887 -0.549629
158.78515625 1.298881 0.740474 -0.558407
159.4609375 1.17441 0.684665 -0.489745
160.125 1.209258 0.735 -0.474258
160.80078125 1.131669 0.641713 -0.489956
161.4609375 1.2066050000000001 0.719901 -0.486704
162.13671875 1.302085 0.802126 -0.499959
162.8125 1.22815 0.758962 -0.469188
163.46875 1.173386 0.721719 -0.451667
164.125 1.182288 0.735 -0.447288
164.78515625 1.140687 0.721267 -0.41942
165.453125 1.235657 0.841134 -0.394523
166.1171875 1.262215 0.864615 -0.3976
166.76953125 1.221049 0.759969 -0.46108
167.41796875 1.11489 0.702068 -0.412822
168.078125 1.071119 0.631119 -0.44
168.73046875 1.114749 0.644842 -0.469907
169.40234375 1.179224 0.689224 -0.49
170.07421875 1.2206160000000001 0.764923 -0.455693
170.73046875 1.224364 0.724968 -0.499396
171.390625 1.1367660000000002 0.649823 -0.486943
172.05078125 1.110049 0.600055 -0.509994
172.7421875 1.169709 0.633875 -0.535834
173.41015625 1.228937 0.734372 -0.494565
174.07421875 1.273642 0.783754 -0.489888
174.72265625 1.235661 0.772529 -0.463132
175.37890625 1.065 0.655 -0.41
176.03125 1.1005120000000002 0.687598 -0.412914
176.703125 1.185 0.755 -0.43
177.375 1.254855 0.795 -0.459855
178.0234375 1.162983 0.732983 -0.43
178.671875 1.1076679999999999 0.65269 -0.454978
179.33984375 1.133891 0.693151 -0.44074
180.02734375 1.201086 0.785766 -0.41532
180.69140625 1.251822 0.8214 -0.430422
181.35546875 1.204318 0.799874 -0.404444
182.01953125 1.199425 0.775572 -0.423853
182.68359375 1.298562 0.833933 -0.464629
183.3515625 1.256234 0.766234 -0.49
184.01953125 1.193572 0.774961 -0.418611
184.703125 1.218394 0.77679 -0.441604
185.35546875 1.229129 0.779995 -0.449134
186.01171875 1.369551 0.836267 -0.533284
186.6640625 1.318753 0.774359 -0.544394
187.34375 1.2421389999999999 0.752139 -0.49
187.99609375 1.236858 0.714179 -0.522679
188.6484375 1.283094 0.730016 -0.553078
189.2890625 1.379159 0.754432 -0.624727
189.94140625 1.294172 0.689287 -0.604885
190.5859375 1.259054 0.679637 -0.579417
191.25 1.2589299999999999 0.645 -0.61393
191.921875 1.298719 0.723765 -0.574954
192.57421875 1.4165679999999998 0.826568 -0.59
193.22265625 1.358408 0.749008 -0.6094
193.875 1.269046 0.685 -0.584046
194.55859375 1.2184789999999999 0.6431 -0.575379
195.2265625 1.201072 0.646072 -0.555
195.88671875 1.200826 0.633512 -0.567314
196.54296875 1.387191 0.804183 -0.583008
197.19921875 1.3867880000000001 0.796788 -0.59
197.84765625 1.330196 0.745804 -0.584392
198.51171875 1.296978 0.717036 -0.579942
199.1875 1.2233100000000001 0.674056 -0.549254
199.83984375 1.2480280000000001 0.708028 -0.54
200.484375 1.2761930000000001 0.717751 -0.558442
201.1328125 1.331022 0.818065 -0.512957
201.80078125 1.208609 0.683609 -0.525
202.45703125 0.993085 0.493511 -0.499574
203.1171875 1.0314649999999999 0.556565 -0.4749
203.76953125 0.809815 0.359939 -0.449876
204.42578125 0.754545 0.299553 -0.454992
205.08203125 0.7754540000000001 0.315454 -0.46
205.74609375 1.1438700000000002 0.68127 -0.4626
206.41796875 1.200309 0.698737 -0.501572
207.07421875 1.140099 0.670346 -0.469753
207.734375 1.163112 0.677259 -0.485853
208.39453125 1.259258 0.73 -0.529258
209.08203125 1.322768 0.806888 -0.51588
209.7421875 1.376006 0.850287 -0.525719
210.40234375 1.388174 0.858741 -0.529433
211.0625 1.251309 0.739719 -0.51159
211.73046875 1.284365 0.744834 -0.539531
212.40625 1.27101 0.71601 -0.555
213.08203125 1.278285 0.718856 -0.559429
213.765625 1.3180740000000002 0.798926 -0.519148
214.4375 1.408917 0.894896 -0.514021
215.09765625 1.33351 0.789731 -0.543779
215.7734375 1.293977 0.775129 -0.518848
216.47265625 1.34706 0.822311 -0.524749
217.14453125 1.324778 0.794995 -0.529783
217.8125 1.274386 0.774386 -0.5
218.4765625 1.413319 0.910145 -0.503174
219.15625 1.453333 0.948333 -0.505
219.8203125 1.249536 0.784536 -0.465
220.5 1.052551 0.59 -0.462551
221.1796875 1.2003439999999999 0.742582 -0.457762
221.8515625 1.221274 0.751855 -0.469419
222.51171875 1.40064 0.910698 -0.489942
223.19140625 1.48043 0.955 -0.52543
223.87890625 1.349269 0.860764 -0.488505
224.5546875 1.348356 0.863519 -0.484837
225.21484375 1.304911 0.834171 -0.47074
225.890625 1.30268 0.794842 -0.507838
226.5703125 1.2471 0.772126 -0.474974
227.2578125 1.363917 0.908917 -0.455
227.9453125 1.368174 0.924916 -0.443258
228.6171875 1.392443 0.932584 -0.459859
229.28515625 1.256456 0.8508 -0.405656
229.953125 1.199455 0.791074 -0.408381
230.66015625 1.127556 0.699677 -0.427879
231.3359375 1.119193 0.669316 -0.449877
232.015625 1.212339 0.772417 -0.439922
232.67578125 1.324313 0.856535 -0.467778
233.33203125 1.3706800000000001 0.882749 -0.487931
233.9921875 1.273675 0.793675 -0.48
234.66015625 1.180598 0.696411 -0.484187
235.3515625 1.21528 0.726104 -0.489176
236.015625 1.229985 0.722426 -0.507559
236.671875 1.342044 0.834826 -0.507218
237.34765625 1.299627 0.813899 -0.485728
238.0390625 1.298322 0.824171 -0.474151
238.70703125 1.266934 0.779808 -0.487126
239.37109375 1.227784 0.753214 -0.47457
240.0390625 1.27393 0.809198 -0.464732
240.71484375 1.341108 0.834063 -0.507045
241.375 1.363831 0.81 -0.553831
242.05078125 1.2175639999999999 0.702564 -0.515
242.7265625 1.198947 0.709659 -0.489288
243.40625 1.2567789999999999 0.742713 -0.514066
244.0546875 1.318799 0.81418 -0.504619
244.7265625 1.378528 0.851202 -0.527326
245.40234375 1.352242 0.842242 -0.51
246.0703125 1.2772519999999998 0.75647 -0.520782
246.71484375 1.226596 0.703002 -0.523594
247.2734375 1.83947 -0.07 -1.90947
248.03125 1.341266 0.818486 -0.52278
248.703125 1.233686 0.747263 -0.486423
249.36328125 1.214136 0.754136 -0.46
250.02734375 1.195595 0.735595 -0.46
250.68359375 1.284421 0.806688 -0.477733
251.32421875 1.296983 0.777371 -0.519612
251.9921875 1.1904620000000001 0.703652 -0.48681
252.66796875 1.187956 0.701342 -0.486614
253.32421875 1.259192 0.730868 -0.528324
253.95703125 1.2036419999999999 0.679298 -0.524344
254.60546875 1.174445 0.714914 -0.459531
255.2734375 1.132937 0.727937 -0.405
255.94140625 1.118837 0.688863 -0.429974
256.609375 1.170595 0.739583 -0.431012
257.265625 1.1737 0.690654 -0.483046
257.921875 1.18431 0.689609 -0.494701
258.578125 1.121853 0.657478 -0.464375
259.25390625 1.1238730000000001 0.643873 -0.48
259.9296875 1.139392 0.659392 -0.48
260.5859375 1.134582 0.659929 -0.474653
261.2265625 1.26861 0.77361 -0.495
261.87109375 1.199098 0.690192 -0.508906
262.52734375 1.152584 0.632584 -0.52
263.18359375 1.2044670000000002 0.689467 -0.515
263.84765625 1.190774 0.680995 -0.509779
264.484375 1.134169 0.62342 -0.510749
265.14453125 1.117757 0.659727 -0.45803
265.78515625 1.065009 0.59028 -0.474729
266.4609375 1.149212 0.684479 -0.464733
267.12890625 1.199535 0.727396 -0.472139
267.7890625 1.172375 0.679369 -0.493006
268.43359375 1.123734 0.588897 -0.534837
269.08203125 1.145892 0.583565 -0.562327
269.734375 1.218485 0.710028 -0.508457
270.390625 1.2190180000000002 0.685884 -0.533134
271.05078125 1.212067 0.682074 -0.529993
271.703125 1.166826 0.667073 -0.499753
272.34375 1.106679 0.621679 -0.485
272.97265625 1.092438 0.452672 -0.639766
273.6171875 1.1659380000000001 0.558345 -0.607593
274.28125 1.166048 0.685774 -0.480274
274.91796875 1.2567949999999999 0.861795 -0.395
275.55078125 1.26775 0.866698 -0.401052
276.1796875 1.222353 0.788607 -0.433746
276.83203125 1.264506 0.797271 -0.467235
277.45703125 1.221361 0.727636 -0.493725
278.10546875 1.288278 0.72493 -0.563348
278.75 1.236991 0.71 -0.526991
279.38671875 1.230699 0.690728 -0.539971
280.00390625 1.23451 0.701438 -0.533072
280.64453125 1.259509 0.694823 -0.564686
281.296875 1.2142970000000002 0.672197 -0.5421
281.92578125 1.2673290000000001 0.772058 -0.495271
282.55078125 1.474769 1.04404 -0.430729
283.171875 1.333953 0.854013 -0.47994
283.78515625 1.302878 0.834439 -0.468439
284.3984375 1.284507 0.854507 -0.43
285.0234375 1.329062 0.916501 -0.412561
285.640625 1.261555 0.866633 -0.394922
286.25 1.305 0.87 -0.435
286.859375 1.534036 0.995931 -0.538105
287.4609375 1.4191470000000002 0.884275 -0.534872
288.0859375 1.310867 0.810586 -0.500281
288.71875 1.5404010000000001 0.953542 -0.586859
289.32421875 1.453042 0.869136 -0.583906
289.92578125 1.3542610000000002 0.805868 -0.548393
290.546875 1.366972 0.786191 -0.580781
291.17578125 1.475612 0.872542 -0.60307
291.7890625 1.379956 0.784956 -0.595
292.421875 1.351785 0.777742 -0.574043
293.06640625 1.566291 0.897006 -0.669285
293.69140625 1.498415 0.883819 -0.614596
294.32421875 1.326966 0.773194 -0.553772
294.9453125 1.417344 0.852768 -0.564576
295.59765625 1.516796 0.924423 -0.592373
296.23828125 1.40821 0.88321 -0.525
296.875 1.389923 0.87 -0.519923
297.34375 1.5699999999999998 -0.11 -1.68
298.12109375 1.462895 0.94 -0.522895
298.625 1.1199729999999999 0.72 -0.399973
299.0625 1.642588 -0.068667 -1.711255
299.5078125 1.807635 0.33 -1.477635
299.83984375 1.725676 0.31719 -1.408486
300.2109375 1.646758 0.096555 -1.550203
300.51953125 1.824741 0.394741 -1.43
300.8359375 1.79058 0.36558 -1.425
301.203125 1.472237 0.057266 -1.414971
301.8828125 1.051902 0.56229 -0.489612
302.53125 1.111261 0.656317 -0.454944
303.30859375 0.067461 -0.179806 -0.247267
303.58203125 1.913881 0.058881 -1.855
304.046875 1.909835 0.459854 -1.449981
304.35546875 1.7455260000000001 0.310526 -1.435
304.640625 1.888528 0.207241 -1.681287
304.94140625 1.794713 0.509936 -1.284777
305.19921875 1.635188 0.213672 -1.421516
305.50390625 1.869222 0.49 -1.379222
305.80859375 1.683629 0.230124 -1.453505
306.3828125 1.163856 0.640966 -0.52289
306.99609375 1.362615 0.841296 -0.521319
307.640625 1.4781330000000001 0.948254 -0.529879
308.26171875 1.3612570000000002 0.85572 -0.505537
308.8828125 1.3681969999999999 0.85948 -0.508717
309.51171875 1.364764 0.894831 -0.469933
310.16796875 1.400246 0.970246 -0.43
310.8046875 1.451466 1.041466 -0.41
311.4453125 1.30641 0.83235 -0.47406
312.078125 1.2908 0.757879 -0.532921
312.72265625 1.1734930000000001 0.619425 -0.554068
313.359375 1.1239 0.565877 -0.558023
314.01953125 1.2846229999999998 0.734841 -0.549782
314.6796875 1.31405 0.802663 -0.511387
315.32421875 1.464089 0.984089 -0.48
315.96875 1.323259 0.778516 -0.544743
316.38671875 1.542119 -0.110333 -1.652452
317.26171875 1.359943 0.770276 -0.589667
317.91796875 1.4652 0.849419 -0.615781
318.5625 1.378431 0.785 -0.593431
319.19140625 1.348564 0.728854 -0.61971
319.83203125 1.211264 0.671264 -0.54
320.46875 1.255351 0.688093 -0.567258
321.11328125 1.338941 0.766307 -0.572634
321.76171875 1.263055 0.796895 -0.46616
322.40234375 1.387033 0.882033 -0.505
323.0390625 1.473998 0.92955 -0.544448
323.6640625 1.3219130000000001 0.844605 -0.477308
324.30859375 1.3830360000000002 0.928884 -0.454152
324.97265625 1.260551 0.856399 -0.404152
325.6171875 1.4195659999999999 1.031837 -0.387729
326.25 1.380268 0.97 -0.410268
326.89453125 1.309995 0.929995 -0.38
327.55859375 1.351693 0.938505 -0.413188
328.203125 1.349523 0.931136 -0.418387
328.86328125 1.448387 0.997843 -0.450544
329.515625 1.322776 0.874902 -0.447874
330.1640625 1.28904 0.839634 -0.449406
330.796875 1.213303 0.723324 -0.489979
331.4609375 1.406944 0.829874 -0.57707
332.12109375 1.326152 0.821558 -0.504594
332.765625 1.2625520000000001 0.775715 -0.486837
333.39453125 1.234667 0.60156 -0.633107
334.0390625 1.3730660000000001 0.664397 -0.708669
334.69140625 1.299589 0.604779 -0.69481
335.3359375 1.274111 0.649511 -0.6246
335.9921875 1.22714 0.67461 -0.55253
336.65234375 1.3707319999999998 0.865732 -0.505
337.30078125 1.32449 0.865626 -0.458864
337.9453125 1.233848 0.839341 -0.394507
338.6171875 1.220523 0.855664 -0.364859
339.3046875 1.319497 0.928353 -0.391144
339.9609375 1.349898 0.94993 -0.399968
340.60546875 1.229531 0.819989 -0.409542
341.2578125 1.2127459999999999 0.812726 -0.40002
341.92578125 1.218604 0.818868 -0.399736
342.58203125 1.31538 0.876999 -0.438381
343.2421875 1.297299 0.823675 -0.473624
343.90234375 1.227733 0.777733 -0.45
344.55859375 1.182796 0.744546 -0.43825
345.203125 1.299634 0.832459 -0.467175
345.86328125 1.26648 0.800469 -0.466011
346.53515625 1.1709129999999999 0.708351 -0.462562
347.1953125 1.199987 0.770716 -0.429271
347.84765625 1.1736330000000001 0.736353 -0.43728
348.5078125 1.297676 0.857682 -0.439994
349.171875 1.262207 0.84222 -0.419987
349.83984375 1.195195 0.783112 -0.412083
350.51953125 1.172751 0.774904 -0.397847
351.203125 1.231168 0.80772 -0.423448
351.875 1.334216 0.92 -0.414216
352.53515625 1.210144 0.794624 -0.41552
353.21484375 1.176078 0.809033 -0.367045
353.90625 1.1922359999999999 0.819166 -0.37307
354.578125 1.269617 0.849617 -0.42
355.25 1.279167 0.815 -0.464167
355.9140625 1.208221 0.689577 -0.518644
356.58203125 1.161684 0.682001 -0.479683
357.265625 1.1073140000000001 0.635 -0.472314
357.95703125 1.179111 0.659576 -0.519535
358.62890625 1.194354 0.698421 -0.495933
359.30078125 1.193415 0.668422 -0.524993
359.984375 1.1532900000000001 0.618714 -0.534576
360.6875 1.170104 0.63051 -0.539594
361.36328125 1.268454 0.72353 -0.544924
362.03515625 1.230807 0.688284 -0.542523
362.69921875 1.204573 0.720391 -0.484182
363.15234375 1.7487499999999998 -0.1 -1.84875
364.046875 1.238028 0.74805 -0.489978
364.72265625 1.192294 0.742515 -0.449779
365.38671875 1.176943 0.726943 -0.45
366.04296875 1.226617 0.800003 -0.426614
366.68359375 1.311664 0.851664 -0.46
367.3359375 1.1991020000000001 0.774464 -0.424638
368.00390625 1.2025679999999999 0.783794 -0.418774
368.65234375 1.225565 0.755565 -0.47
369.3046875 1.30264 0.854568 -0.448072
369.953125 1.357911 0.840565 -0.517346
370.609375 1.247094 0.74867 -0.498424
371.2578125 1.25128 0.681295 -0.569985
371.93359375 1.217833 0.644524 -0.573309
372.6171875 1.3772950000000002 0.825434 -0.551861
373.26953125 1.314448 0.754874 -0.559574
373.91796875 1.2104439999999999 0.678542 -0.531902
374.58984375 1.20296 0.688181 -0.514779
375.27734375 1.300376 0.840376 -0.46
375.9375 1.3380100000000001 0.824439 -0.513571
376.58984375 1.278066 0.788222 -0.489844
377.234375 1.057496 0.615861 -0.441635
377.8984375 1.151227 0.707947 -0.44328
378.54296875 1.269041 0.84115 -0.427891
379.20703125 1.335343 0.885343 -0.45
379.8671875 1.199705 0.759999 -0.439706
380.51171875 1.238276 0.823312 -0.414964
381.1484375 1.183089 0.788089 -0.395
381.80078125 1.258747 0.812363 -0.446384
382.47265625 1.170314 0.740314 -0.43
383.1171875 1.149442 0.754604 -0.394838
383.76171875 1.106114 0.703276 -0.402838
384.41015625 1.225538 0.800538 -0.425
385.0625 1.259362 0.814949 -0.444413
385.69921875 1.145083 0.728964 -0.416119
386.36328125 1.1194220000000001 0.724454 -0.394968
387.02734375 1.16383 0.72383 -0.44
387.6796875 1.2451910000000002 0.81705 -0.428141
388.31640625 1.158598 0.748623 -0.409975
388.96875 1.0777459999999999 0.696962 -0.380784
389.640625 1.095789 0.711602 -0.384187
390.28515625 1.065131 0.695187 -0.369944
390.9375 1.084986 0.747778 -0.337208
391.5859375 1.109375 0.804567 -0.304808
392.234375 1.0143119999999999 0.728619 -0.285693
392.875 1.008369 0.68 -0.328369
393.5390625 0.993606 0.683853 -0.309753
394.2109375 1.067193 0.754866 -0.312327
394.85546875 1.154777 0.839951 -0.314826
395.50390625 1.032167 0.760509 -0.271658
396.15234375 1.033598 0.728598 -0.305
396.828125 1.043641 0.76898 -0.274661
397.4765625 1.049962 0.7539 -0.296062
398.13671875 1.182029 0.87283 -0.309199
398.78515625 1.084077 0.745066 -0.339011
399.4375 1.071014 0.721014 -0.35
400.08203125 1.096932 0.729757 -0.367175
400.75 1.169107 0.78 -0.389107
401.42578125 1.340603 0.965369 -0.375234
402.0703125 1.285978 0.921471 -0.364507
402.71484375 1.164252 0.790752 -0.3735
403.37109375 1.218487 0.84319 -0.375297
404.046875 1.2369020000000002 0.8 -0.436902
404.703125 1.384646 0.964741 -0.419905
405.34765625 1.339258 0.899258 -0.44
405.9921875 1.109064 0.720454 -0.38861
406.63671875 1.072064 0.728224 -0.34384
407.28515625 1.014276 0.657787 -0.356489
407.94921875 1.133407 0.784577 -0.34883
408.61328125 1.244157 0.856938 -0.387219
409.25390625 1.034341 0.648179 -0.386162
409.90234375 0.956387 0.561387 -0.395
410.55078125 0.894368 0.532532 -0.361836
411.2265625 1.0279449999999999 0.637945 -0.39
411.875 1.107734 0.725 -0.382734
412.5234375 1.00963 0.631482 -0.378148
413.1640625 0.939732 0.574732 -0.365
413.80859375 0.9181869999999999 0.529503 -0.388684
414.45703125 0.933804 0.558812 -0.374992
415.109375 1.029263 0.656122 -0.373141
415.7734375 1.015184 0.630378 -0.384806
416.41015625 0.9696480000000001 0.594987 -0.374661
417.0546875 0.934598 0.569926 -0.364672
417.69140625 0.9483410000000001 0.64336 -0.304981
418.3515625 1.146554 0.849287 -0.297267
419.0 1.128962 0.82 -0.308962
419.65234375 1.108018 0.793018 -0.315
420.28515625 1.055344 0.742465 -0.312879
420.9296875 1.10215 0.773083 -0.329067
421.5703125 1.195603 0.843319 -0.352284
422.22265625 1.051133 0.711133 -0.34
422.87890625 1.079032 0.744298 -0.334734
423.52734375 1.080775 0.73972 -0.341055
424.171875 1.0882290000000001 0.743268 -0.344961
424.80859375 1.129884 0.783783 -0.346101
425.45703125 1.148442 0.754098 -0.394344
426.1171875 1.069938 0.689938 -0.38
426.76953125 1.0995810000000001 0.694895 -0.404686
427.40234375 1.1079 0.718921 -0.388979
428.0390625 1.1645539999999999 0.804873 -0.359681
428.6796875 1.13945 0.729969 -0.409481
429.32421875 1.043155 0.643735 -0.39942
429.97265625 1.043566 0.638636 -0.40493
430.6171875 0.959366 0.574366 -0.385
431.26171875 0.948084 0.583084 -0.365
431.89453125 0.750497 0.404596 -0.345901
432.54296875 0.65696 0.322944 -0.334016
433.20703125 0.784672 0.444672 -0.34
433.8515625 0.785095 0.430095 -0.355
435.7890625 0.649978 0.309978 -0.34
436.4375 1.049418 0.626375 -0.423043
437.09765625 1.083527 0.65226 -0.431267
437.74609375 1.202358 0.770108 -0.43225
438.390625 1.267239 0.81477 -0.452469
439.0234375 1.1653769999999999 0.742811 -0.422566
439.68359375 1.078136 0.65331 -0.424826
440.33984375 1.083798 0.645361 -0.438437
440.984375 1.2049020000000001 0.799902 -0.405
441.609375 1.251695 0.792988 -0.458707
442.25 1.1294650000000002 0.685 -0.444465
442.890625 1.09068 0.651935 -0.438745
443.53125 1.104303 0.674303 -0.43
444.17578125 1.191414 0.743807 -0.447607
444.828125 1.222378 0.797868 -0.42451
445.45703125 1.112718 0.708542 -0.404176
446.0859375 1.114404 0.679456 -0.434948
446.73046875 1.079656 0.634881 -0.444775
447.3984375 1.14059 0.72565 -0.41494
448.03125 1.254022 0.811325 -0.442697
448.671875 1.175383 0.702584 -0.472799
449.3125 1.100108 0.620893 -0.479215
449.953125 0.999121 0.54 -0.459121
450.58984375 1.104807 0.654864 -0.449943
451.2421875 1.207459 0.734813 -0.472646
451.90625 1.159421 0.688516 -0.470905
452.53125 1.068127 0.618398 -0.449729
453.16796875 1.045789 0.59 -0.455789
453.8046875 1.2202039999999998 0.765585 -0.454619
454.46484375 1.219271 0.749331 -0.46994
455.1015625 1.130968 0.673007 -0.457961
455.75 1.128665 0.665 -0.463665
456.375 1.077386 0.6 -0.477386
457.01171875 1.16448 0.682273 -0.482207
457.640625 1.228636 0.754488 -0.474148
458.29296875 1.135302 0.680302 -0.455
458.9453125 1.084514 0.642378 -0.442136
459.5859375 1.1244420000000002 0.654634 -0.469808
460.23046875 1.129546 0.694995 -0.434551
460.87109375 1.197723 0.777723 -0.42
461.52734375 1.152229 0.702229 -0.45
462.18359375 1.0492270000000001 0.59699 -0.452237
462.83203125 1.0562230000000001 0.589198 -0.467025
463.47265625 1.097184 0.614684 -0.4825
464.11328125 1.208623 0.683718 -0.524905
464.75390625 1.183023 0.663023 -0.52
465.40234375 1.067413 0.622413 -0.445
466.0625 1.098644 0.624439 -0.474205
466.69921875 1.08935 0.613104 -0.476246
467.34375 1.196655 0.746719 -0.449936
467.97265625 1.1935799999999999 0.72707 -0.46651
468.625 1.138679 0.65 -0.488679
469.28125 1.151743 0.67875 -0.472993
469.92578125 1.137666 0.638838 -0.498828
470.5625 1.245635 0.733 -0.512635
471.203125 1.314963 0.76854 -0.546423
471.85546875 1.176307 0.64992 -0.526387
472.50390625 1.145409 0.639011 -0.506398
473.16015625 1.15163 0.632172 -0.519458
473.80859375 1.319792 0.799792 -0.52
474.45703125 1.3319839999999998 0.792796 -0.539188
475.0859375 1.194302 0.689605 -0.504697
475.7421875 1.180036 0.695212 -0.484824
476.3984375 1.158595 0.64456 -0.514035
477.05078125 1.3769930000000001 0.836999 -0.539994
477.671875 1.34783 0.80783 -0.54
478.30859375 1.260294 0.750865 -0.509429
478.953125 1.245503 0.747031 -0.498472
479.58984375 1.229953 0.718009 -0.511944
480.2421875 1.313978 0.794038 -0.51994
480.89453125 1.451954 0.898884 -0.55307
481.52734375 1.3126410000000002 0.782641 -0.53
482.1640625 1.2382819999999999 0.714666 -0.523616
482.81640625 1.203748 0.688802 -0.514946
483.4921875 1.3554140000000001 0.830613 -0.524801
484.13671875 1.395521 0.841304 -0.554217
484.7890625 1.27027 0.748327 -0.521943
485.42578125 1.1424509999999999 0.649941 -0.49251
486.078125 1.198381 0.698381 -0.5
486.72265625 1.411526 0.91707 -0.494456
487.37890625 1.384471 0.884471 -0.5
488.0390625 1.31643 0.819432 -0.496998
488.671875 1.29034 0.796141 -0.494199
489.30859375 1.308098 0.834848 -0.47325
489.953125 1.435617 0.972768 -0.462849
490.609375 1.3892280000000001 0.894228 -0.495
491.25390625 1.3411089999999999 0.864891 -0.476218
491.90234375 1.317656 0.822656 -0.495
492.54296875 1.241376 0.761376 -0.48
493.1875 1.475828 0.922828 -0.553
493.82421875 1.367204 0.856376 -0.510828
494.48046875 1.309687 0.799779 -0.509908
495.1484375 1.28105 0.77105 -0.51
495.79296875 1.3842949999999998 0.911395 -0.4729
496.4375 1.525168 1.027522 -0.497646
497.08203125 1.386721 0.897796 -0.488925
497.73828125 1.28539 0.81039 -0.475
498.38671875 1.2253379999999998 0.697584 -0.527754
499.0390625 1.257924 0.72428 -0.533644
499.66796875 1.202418 0.702362 -0.500056
500.29296875 1.141858 0.66842 -0.473438
500.92578125 1.125733 0.688007 -0.437726
501.5703125 1.069528 0.655479 -0.414049
502.21484375 1.123645 0.7016 -0.422045
502.8515625 1.215971 0.751651 -0.46432
503.49609375 1.147071 0.722212 -0.424859
504.1171875 1.15064 0.705754 -0.444886
504.765625 1.170995 0.736328 -0.434667
505.42578125 1.321256 0.897367 -0.423889
506.0625 1.4589789999999998 1.019764 -0.439215
506.69140625 1.433504 0.97859 -0.454914
507.328125 1.328295 0.884176 -0.444119
507.9765625 1.357893 0.897983 -0.45991
508.6171875 1.413451 0.953688 -0.459763
509.26171875 1.456448 0.991448 -0.465
509.91015625 1.401935 0.915545 -0.48639
510.546875 1.312455 0.842461 -0.469994
511.17578125 1.302802 0.849592 -0.45321
511.82421875 1.376156 0.879131 -0.497025
512.484375 1.532028 1.003293 -0.528735
513.11328125 1.439913 0.925632 -0.514281
513.74609375 1.368485 0.884344 -0.484141
514.38671875 1.329931 0.812674 -0.517257
515.03515625 1.315121 0.802987 -0.512134
515.6796875 1.463333 0.933931 -0.529402
516.3359375 1.5556260000000002 0.984932 -0.570694
517.0 1.454687 0.89 -0.564687
517.640625 1.3667259999999999 0.777539 -0.589187
518.28125 1.372797 0.782038 -0.590759
518.9296875 1.309201 0.708156 -0.601045
519.59765625 1.30105 0.691353 -0.609697
520.23828125 1.310419 0.726455 -0.583964
520.88671875 1.345414 0.793599 -0.551815
521.51953125 1.3571550000000001 0.790843 -0.566312
522.15625 1.3280880000000002 0.783088 -0.545
522.7890625 1.3326699999999998 0.798881 -0.533789
523.4375 1.468229 0.970522 -0.497707
524.078125 1.468348 0.974314 -0.494034
524.69921875 1.318516 0.909072 -0.409444
525.32421875 1.368813 0.929399 -0.439414
525.9375 1.3346740000000001 0.909474 -0.4252
526.57421875 1.325818 0.905818 -0.42
527.2109375 1.379343 0.949625 -0.429718
527.84765625 1.502721 1.004589 -0.498132
528.453125 1.362327 0.862804 -0.499523
529.0703125 1.342211 0.883843 -0.458368
529.6953125 1.277288 0.84801 -0.429278
530.328125 1.42709 0.972294 -0.454796
530.9609375 1.332536 0.868162 -0.464374
531.59375 1.306575 0.8199 -0.486675
532.2109375 1.439346 0.889523 -0.549823
532.82421875 1.436285 0.8852 -0.551085
533.453125 1.327684 0.813556 -0.514128
534.09375 1.307941 0.803244 -0.504697
534.71484375 1.225578 0.757245 -0.468333
535.33984375 1.43949 0.927445 -0.512045
535.9609375 1.449554 0.924554 -0.525
536.58203125 1.285447 0.795764 -0.489683
537.20703125 1.221234 0.696234 -0.525
537.8515625 1.3359429999999999 0.815 -0.520943
538.50390625 1.459878 0.86233 -0.597548
539.1328125 1.323201 0.792703 -0.530498
539.76953125 1.271676 0.74 -0.531676
540.41015625 1.242425 0.742425 -0.5
541.078125 1.4155440000000001 0.86717 -0.548374
541.72265625 1.393373 0.865509 -0.527864
542.37109375 1.257981 0.744446 -0.513535
543.01171875 1.177372 0.681527 -0.495845
543.65625 1.222259 0.748224 -0.474035
544.296875 1.164186 0.689223 -0.474963
544.953125 1.135935 0.671685 -0.46425
545.6015625 1.2661820000000001 0.817937 -0.448245
546.234375 1.314662 0.819662 -0.495
546.87890625 1.161124 0.669823 -0.491301
547.51953125 1.09847 0.644248 -0.454222
548.17578125 1.159171 0.709186 -0.449985
548.828125 1.291648 0.849918 -0.44173
549.48046875 1.335665 0.856368 -0.479297
550.1171875 1.165681 0.755781 -0.4099
550.7578125 1.1128010000000002 0.727809 -0.384992
551.4140625 1.163609 0.729393 -0.434216
552.078125 1.266747 0.769512 -0.497235
552.74609375 1.164609 0.66 -0.504609
553.39453125 1.077085 0.583951 -0.493134
554.05078125 1.11843 0.603583 -0.514847
554.70703125 1.23939 0.721999 -0.517391
555.375 1.229852 0.705 -0.524852
556.04296875 1.1468530000000001 0.674025 -0.472828
556.7109375 1.13938 0.665 -0.47438
557.3515625 1.154858 0.705933 -0.448925
558.0 1.269022 0.83 -0.439022
558.43359375 1.716296 -0.010565 -1.726861
559.3046875 1.123176 0.73335 -0.389826
559.9765625 1.079348 0.674348 -0.405
560.609375 1.108906 0.683379 -0.425527
561.26171875 1.254245 0.779286 -0.474959
561.89453125 1.1129129999999998 0.629921 -0.482992
562.55078125 1.083889 0.635 -0.448889
563.20703125 1.078836 0.654952 -0.423884
563.8671875 1.131692 0.706768 -0.424924
564.50390625 1.180083 0.756399 -0.423684
565.1484375 1.1138210000000002 0.693864 -0.419957
565.796875 1.0532430000000002 0.643283 -0.40996
566.46875 1.006619 0.608286 -0.398333
567.13671875 1.043791 0.648813 -0.394978
567.79296875 1.157407 0.757407 -0.4
568.4453125 1.113924 0.763924 -0.35
569.09375 1.051449 0.659663 -0.391786
569.75390625 1.0521449999999999 0.648281 -0.403864
570.421875 1.109223 0.674244 -0.434979
571.078125 1.218126 0.818246 -0.39988
571.72265625 1.176957 0.753887 -0.42307
572.36328125 1.012057 0.640187 -0.37187
573.01171875 0.9812350000000001 0.613481 -0.367754
573.6640625 0.9636129999999999 0.579637 -0.383976
574.32421875 1.100134 0.703838 -0.396296
574.96484375 1.2041689999999998 0.747064 -0.457105
575.609375 1.062256 0.668932 -0.393324
576.25 1.109638 0.725 -0.384638
576.91015625 1.090609 0.740609 -0.35
577.5703125 1.1650619999999998 0.820062 -0.345
578.23046875 1.25377 0.859251 -0.394519
578.8671875 1.128183 0.773183 -0.355
579.51171875 1.0620020000000001 0.732002 -0.33
580.16796875 1.069264 0.692362 -0.376902
580.83203125 1.12579 0.742662 -0.383128
581.5 1.3381759999999998 0.94 -0.398176
582.15234375 1.238792 0.857737 -0.381055
582.8046875 1.186839 0.826839 -0.36
583.45703125 1.148882 0.821354 -0.327528
584.12890625 1.174332 0.810468 -0.363864
584.8046875 1.248801 0.840614 -0.408187
585.4609375 1.414175 0.994175 -0.42
586.09765625 1.363377 0.908926 -0.454451
586.7421875 1.203048 0.798148 -0.4049
587.3984375 1.1751230000000001 0.774467 -0.400656
588.06640625 1.215061 0.805287 -0.409774
588.7265625 1.386825 0.978651 -0.408174
589.375 1.404531 0.965 -0.439531
590.02734375 1.255906 0.850187 -0.405719
590.67578125 1.190711 0.790711 -0.4
591.34765625 1.220159 0.810216 -0.409943
592.01953125 1.32462 0.924818 -0.399802
592.6796875 1.365201 0.920201 -0.445
593.31640625 1.285447 0.889361 -0.396086
593.96484375 1.263681 0.868181 -0.3955
594.625 1.279954 0.87 -0.409954
595.28515625 1.400747 0.972799 -0.427948
595.9453125 1.457531 1.004383 -0.453148
596.58984375 1.340748 0.929388 -0.41136
597.24609375 1.251496 0.844509 -0.406987
597.8828125 1.198222 0.798222 -0.4
598.54296875 1.232828 0.83 -0.402828
599.20703125 1.269534 0.84053 -0.429004
599.86328125 1.116594 0.694959 -0.421635
600.4921875 1.0893869999999999 0.689387 -0.4
601.13671875 1.107898 0.689695 -0.418203
601.7890625 1.297468 0.872468 -0.425
602.4375 1.387287 0.922287 -0.465
603.09375 1.218583 0.838583 -0.38
603.75 1.145 0.765 -0.38
604.40234375 1.245814 0.840814 -0.405
605.046875 1.444852 1.014917 -0.429935
605.6953125 1.479077 1.069077 -0.41
606.37109375 1.3464070000000001 0.975538 -0.370869
607.015625 1.302573 0.899897 -0.402676
607.65625 1.258307 0.848033 -0.410274
608.296875 1.3992879999999999 0.984294 -0.414994
608.94921875 1.4796209999999999 1.005177 -0.474444
609.59375 1.363953 0.89931 -0.464643
610.25 1.278665 0.815 -0.463665
610.90234375 1.2784149999999999 0.805325 -0.47309
611.56640625 1.274333 0.819587 -0.454746
612.20703125 1.435714 0.937074 -0.49864
612.86328125 1.4369070000000002 0.936907 -0.5
613.52734375 1.354968 0.884968 -0.47
614.1796875 1.3276890000000001 0.862689 -0.465
614.828125 1.288896 0.829828 -0.459068
615.48828125 1.3343829999999999 0.873856 -0.460527
616.15625 1.505518 0.985518 -0.52
616.80859375 1.491977 0.98479 -0.507187
617.46875 1.3709289999999998 0.895929 -0.475
618.13671875 1.311484 0.818955 -0.492529
618.79296875 1.29507 0.80592 -0.48915
619.44140625 1.408583 0.958607 -0.449976
620.1015625 1.527255 1.047255 -0.48
620.7734375 1.4369049999999999 0.982128 -0.454777
621.421875 1.368483 0.908503 -0.45998
622.0625 1.316301 0.858 -0.458301
622.70703125 1.395245 0.960979 -0.434266
623.36328125 1.5213489999999998 1.046455 -0.474894
624.0078125 1.403648 0.93439 -0.469258
624.66015625 1.288872 0.803113 -0.485759
625.31640625 1.314433 0.834458 -0.479975
625.9609375 1.328052 0.858103 -0.469949
626.60546875 1.524461 1.055299 -0.469162
627.25390625 1.498418 0.988561 -0.509857
627.9296875 1.3605049999999999 0.90226 -0.458245
628.578125 1.386296 0.966562 -0.419734
629.21484375 1.318725 0.883779 -0.434946
629.84765625 1.31203 0.881571 -0.430459
630.4921875 1.315337 0.847786 -0.467551
631.125 1.421218 0.97 -0.451218
631.77734375 1.392013 0.957013 -0.435
632.421875 1.368391 0.919221 -0.44917
633.05859375 1.3426909999999999 0.918492 -0.424199
633.6796875 1.312514 0.824728 -0.487786
634.32421875 1.331823 0.866823 -0.465
634.98046875 1.364976 0.874976 -0.49
635.62109375 1.4230269999999998 0.744891 -0.678136
636.2578125 1.47845 0.743483 -0.734967
636.88671875 1.4996999999999998 0.7797 -0.72
637.5234375 1.564195 0.751101 -0.813094
638.15625 1.5277500000000002 0.77275 -0.755
638.8125 1.549838 0.804838 -0.745
639.46875 1.576016 0.847266 -0.72875
640.10546875 1.548894 0.949969 -0.598925
640.55078125 2.044811 0.026967 -2.017844
641.37890625 1.5955240000000002 1.317279 -0.278245
642.04296875 1.627158 1.445343 -0.181815
642.68359375 1.531944 1.43813 -0.093814
643.33203125 1.4243649999999999 1.322404 -0.101961
643.96875 1.428717 1.303938 -0.124779
644.6015625 1.508298 1.308681 -0.199617
645.234375 1.5549250000000001 1.299271 -0.255654
645.8828125 1.411981 1.171996 -0.239985
646.546875 1.3872550000000001 1.077283 -0.309972
647.18359375 1.446673 1.104954 -0.341719
647.83203125 1.434066 1.050426 -0.38364
648.47265625 1.316303 0.944732 -0.371571
649.140625 1.25375 0.83875 -0.415
649.796875 1.3774739999999999 0.932495 -0.444979
650.45703125 1.378029 0.915022 -0.463007
651.10546875 1.278837 0.846329 -0.432508
651.7578125 1.254172 0.796662 -0.45751
652.40625 1.340908 0.835329 -0.505579
652.8671875 1.545923 -0.167592 -1.713515
653.73828125 1.3151329999999999 0.784142 -0.530991
654.39453125 1.254833 0.744976 -0.509857
655.046875 1.233041 0.701139 -0.531902
655.69921875 1.30928 0.818161 -0.491119
656.359375 1.3275540000000001 0.839362 -0.488192
657.0078125 1.254977 0.785 -0.469977
657.65625 1.2416559999999999 0.783801 -0.457855
658.30078125 1.222731 0.737905 -0.484826
658.953125 1.267343 0.804625 -0.462718
659.609375 1.3321640000000001 0.878634 -0.45353
660.27734375 1.255 0.835 -0.42
660.953125 1.2006869999999998 0.801097 -0.39959
661.61328125 1.216647 0.796673 -0.419974
662.2890625 1.263147 0.804189 -0.458958
662.9609375 1.233197 0.768073 -0.465124
663.66015625 1.207003 0.762003 -0.445
664.328125 1.247246 0.823064 -0.424182
665.00390625 1.223973 0.807813 -0.41616
665.66796875 1.2087080000000001 0.849587 -0.359121
666.34765625 1.340782 0.956251 -0.384531
667.0 1.221016 0.9 -0.321016
667.67578125 1.177758 0.892758 -0.285
668.34765625 1.21112 0.897341 -0.313779
669.00390625 1.187568 0.874267 -0.313301
669.65625 1.253269 0.896333 -0.356936
670.31640625 1.319503 0.909649 -0.409854
670.9921875 1.193818 0.753818 -0.44
671.65234375 1.236251 0.726251 -0.51
672.3125 1.239869 0.622339 -0.61753
672.97265625 1.223768 0.558964 -0.664804
673.64453125 1.324938 0.624938 -0.7
674.30859375 1.347542 0.648396 -0.699146
674.9765625 1.3037610000000002 0.6258 -0.677961
675.65234375 1.287013 0.632013 -0.655
676.31640625 1.283959 0.618982 -0.664977
676.97265625 1.219751 0.629919 -0.589832
677.6328125 1.371283 0.806024 -0.565259
678.3203125 1.402558 0.82018 -0.582378
678.98046875 1.315741 0.799975 -0.515766
679.6328125 1.275992 0.786024 -0.489968
680.28515625 1.268776 0.775107 -0.493669
680.95703125 1.365458 0.900841 -0.464617
681.609375 1.340624 0.905915 -0.434709
682.2734375 1.2609270000000001 0.867079 -0.393848
682.9375 1.27889 0.856375 -0.422515
683.6015625 1.287505 0.819423 -0.468082
684.25 1.449479 0.96 -0.489479
684.921875 1.4730379999999998 0.963077 -0.509961
685.6015625 1.35356 0.89356 -0.46
686.265625 1.293472 0.828774 -0.464698
686.921875 1.38489 0.899917 -0.484973
687.58203125 1.456072 0.978745 -0.477327
688.25 1.4649999999999999 0.985 -0.48
688.91796875 1.409098 0.984098 -0.425
689.58984375 1.429093 0.970482 -0.458611
690.2578125 1.469602 0.989609 -0.479993
690.921875 1.598633 1.071221 -0.527412
691.57421875 1.508005 1.023362 -0.484643
692.24609375 1.437992 1.012992 -0.425
692.921875 1.470351 1.015813 -0.454538
693.58984375 1.4947430000000002 1.052831 -0.441912
694.2421875 1.607082 1.097759 -0.509323
694.8984375 1.5444630000000001 1.053276 -0.491187
695.56640625 1.467377 1.019731 -0.447646
696.23828125 1.473344 1.03345 -0.439894
696.91796875 1.433229 1.003543 -0.429686
697.578125 1.428061 0.957879 -0.470182
698.2421875 1.35418 0.88165 -0.47253
698.8984375 1.286742 0.837731 -0.449011
699.57421875 1.285454 0.834122 -0.451332
700.25 1.305 0.875 -0.43
700.921875 1.3862670000000001 0.931281 -0.454986
701.57421875 1.4895869999999998 1.004587 -0.485
702.2265625 1.422116 0.972827 -0.449289
702.8828125 1.339766 0.914785 -0.424981
703.5625 1.465562 1.01625 -0.449312
704.24609375 1.464974 0.960268 -0.504706
704.91015625 1.560018 1.045533 -0.514485
705.57421875 1.6444579999999998 1.129692 -0.514766
706.234375 1.513596 1.066635 -0.446961
706.9140625 1.5089000000000001 1.069117 -0.439783
707.59375 1.5406689999999998 1.115802 -0.424867
708.26171875 1.607788 1.168601 -0.439187
708.9140625 1.677945 1.184334 -0.493611
709.5703125 1.5917949999999998 1.12801 -0.463785
710.23046875 1.4953420000000002 1.086588 -0.408754
710.90234375 1.5017019999999999 1.067189 -0.434513
711.5859375 1.527835 1.059904 -0.467931
712.24609375 1.628327 1.153327 -0.475
712.90234375 1.53518 1.06518 -0.47
713.55859375 1.467307 1.054602 -0.412705
714.2421875 1.522519 1.088158 -0.434361
714.90625 1.4910649999999999 1.055407 -0.435658
715.57421875 1.566478 1.086583 -0.479895
716.22265625 1.6125969999999998 1.113765 -0.498832
716.8828125 1.489807 1.014814 -0.474993
717.53515625 1.494935 1.053373 -0.441562
718.203125 1.4852610000000002 1.030261 -0.455
718.8828125 1.6386090000000002 1.138632 -0.499977
719.5390625 1.6488900000000002 1.139375 -0.509515
720.1875 1.489801 1.0265 -0.463301
720.85546875 1.535833 1.054912 -0.480921
721.546875 1.550744 1.079728 -0.471016
722.21484375 1.562618 1.085503 -0.477115
722.8828125 1.6811729999999998 1.166243 -0.51493
723.55078125 1.6785480000000002 1.125749 -0.552799
724.23046875 1.584035 1.089873 -0.494162
724.890625 1.514872 0.995174 -0.519698
725.56640625 1.556987 1.044535 -0.512452
726.24609375 1.639255 1.085391 -0.553864
726.90625 1.6855660000000001 1.130625 -0.554941
727.5546875 1.586888 1.072207 -0.514681
728.2265625 1.552946 1.05565 -0.497296
728.91796875 1.5494219999999999 1.039061 -0.510361
729.5859375 1.684383 1.139557 -0.544826
730.2421875 1.693464 1.161557 -0.531907
730.8984375 1.5818059999999998 1.030741 -0.551065
731.5703125 1.5343719999999998 1.040948 -0.493424
732.25390625 1.5559249999999998 1.056088 -0.499837
732.9296875 1.534577 1.014728 -0.519849
733.59375 1.591045 1.046418 -0.544627
734.2578125 1.658265 1.108271 -0.549994
734.9140625 1.524154 0.991148 -0.533006
735.59765625 1.479581 0.954581 -0.525
736.27734375 1.4847320000000002 0.959732 -0.525
736.94140625 1.498855 0.949073 -0.549782
737.58984375 1.5659930000000002 1.030861 -0.535132
738.23828125 1.616349 1.066455 -0.549894
738.89453125 1.53497 1.03997 -0.495
739.56640625 1.464453 0.999784 -0.464669
740.234375 1.430555 0.95065 -0.479905
740.890625 1.528372 1.027864 -0.500508
741.54296875 1.5817100000000002 1.059808 -0.521902
742.19921875 1.461277 0.936788 -0.524489
742.8828125 1.4259629999999999 0.95766 -0.468303
743.5546875 1.411359 0.936359 -0.475
744.2265625 1.5000580000000001 1.007802 -0.492256
744.88671875 1.528095 1.011916 -0.516179
745.55078125 1.440991 0.946022 -0.494969
746.203125 1.406221 0.907202 -0.499019
746.8828125 1.393662 0.908391 -0.485271
747.56640625 1.4367079999999999 0.935312 -0.501396
748.22265625 1.5516020000000001 1.044261 -0.507341
748.875 1.4946869999999999 1.0 -0.494687
749.52734375 1.390897 0.925897 -0.465
750.21484375 1.3448799999999999 0.865 -0.47988
750.875 1.414167 0.915 -0.499167
751.53515625 1.499268 0.984485 -0.514783
752.1875 1.413789 0.923192 -0.490597
752.83984375 1.327418 0.890474 -0.436944
753.48828125 1.295757 0.895933 -0.399824
754.15625 1.322142 0.927142 -0.395
754.828125 1.3708019999999999 0.976768 -0.394034
755.48046875 1.323233 0.898728 -0.424505
756.125 1.249987 0.885 -0.364987
756.7890625 1.2529 0.874365 -0.378535
757.46875 1.323896 0.903088 -0.420808
758.12109375 1.370153 0.960153 -0.41
758.765625 1.342395 0.915873 -0.426522
759.41796875 1.229817 0.836989 -0.392828
760.0859375 1.225 0.83 -0.395
760.73828125 1.311177 0.886237 -0.42494
761.40625 1.433515 0.960492 -0.473023
762.06640625 1.295335 0.845416 -0.449919
762.7265625 1.21611 0.788791 -0.427319
763.36328125 1.221022 0.785188 -0.435834
764.02734375 1.296842 0.851842 -0.445
764.69921875 1.403378 0.948671 -0.454707
765.34375 1.287871 0.843068 -0.444803
765.97265625 1.201447 0.793526 -0.407921
766.62109375 1.099561 0.749967 -0.349594
767.27734375 1.014012 0.684012 -0.33
767.92578125 1.013865 0.593838 -0.420027
768.58203125 1.0288620000000002 0.566687 -0.462175
769.23828125 1.167483 0.703271 -0.464212
769.87890625 1.118474 0.59 -0.528474
770.515625 1.064557 0.599557 -0.465
771.1640625 1.06411 0.634357 -0.429753
771.83203125 1.1777279999999999 0.760998 -0.41673
772.47265625 1.208828 0.785103 -0.423725
773.11328125 1.148633 0.753814 -0.394819
773.75 1.095 0.75 -0.345
774.3984375 1.117038 0.78819 -0.328848
775.03125 1.242562 0.918527 -0.324035
775.68359375 1.1199599999999998 0.840853 -0.279107
776.3359375 1.074532 0.809955 -0.264577
776.96875 1.100142 0.810212 -0.28993
777.6015625 1.191072 0.896072 -0.295
778.23046875 1.1246639999999999 0.794827 -0.329837
778.88671875 1.140078 0.830124 -0.309954
779.53125 1.145589 0.663068 -0.482521
780.1796875 1.127419 0.627582 -0.499837
780.796875 1.1269339999999999 0.688311 -0.438623
781.4296875 1.173121 0.809319 -0.363802
782.0625 1.320989 1.010954 -0.310035
782.7109375 1.324506 0.94906 -0.375446
783.359375 1.127421 0.748591 -0.37883
783.99609375 1.289696 0.820589 -0.469107
784.6328125 1.2728540000000002 0.752854 -0.52
785.26953125 1.4078810000000002 0.77444 -0.633441
785.91796875 1.262974 0.662331 -0.600643
786.57421875 1.2054070000000001 0.624552 -0.580855
787.21875 1.2899129999999999 0.697135 -0.592778
787.83984375 1.415545 0.807003 -0.608542
788.46875 1.365016 0.77508 -0.589936
789.109375 1.296861 0.769725 -0.527136
789.75 1.384855 0.86 -0.524855
790.39453125 1.493657 0.944933 -0.548724
791.03125 1.356602 0.777503 -0.579099
791.66796875 1.295145 0.756942 -0.538203
792.29296875 1.239837 0.745666 -0.494171
792.94140625 1.283491 0.758713 -0.524778
793.6015625 1.3749259999999999 0.889926 -0.485
794.23828125 1.347534 0.947591 -0.399943
794.87109375 1.373654 0.996748 -0.376906
795.51171875 1.3751609999999999 1.00186 -0.373301
796.1640625 1.350492 0.962356 -0.388136
796.80078125 1.3481839999999998 0.899249 -0.448935
797.4453125 1.2639580000000001 0.893958 -0.37
798.09765625 1.212238 0.811589 -0.400649
798.7265625 1.2095 0.731326 -0.478174
799.36328125 1.251264 0.745 -0.506264
799.99609375 1.347852 0.843231 -0.504621
800.6484375 1.29552 0.83413 -0.46139
801.26953125 1.233928 0.794983 -0.438945
801.8984375 1.198523 0.800663 -0.39786
802.53125 1.240357 0.799287 -0.44107
803.15234375 1.460299 0.995299 -0.465
803.77734375 1.468504 0.928504 -0.54
804.40625 1.423997 0.870909 -0.553088
805.05078125 1.294776 0.814762 -0.480014
805.68359375 1.390287 0.855287 -0.535
806.31640625 1.566144 1.024339 -0.541805
806.9453125 1.4151989999999999 0.835199 -0.58
807.5859375 1.401455 0.794602 -0.606853
808.2421875 1.357497 0.735636 -0.621861
808.88671875 1.341765 0.747036 -0.594729
809.50390625 1.309909 0.804924 -0.504985
810.140625 1.396675 0.927699 -0.468976
810.7890625 1.655815 1.169455 -0.48636
811.4296875 1.472834 0.909017 -0.563817
812.0703125 1.4266830000000001 0.857245 -0.569438
812.71484375 1.4035060000000001 0.824617 -0.578889
813.35546875 1.399409 0.89978 -0.499629
813.98046875 1.554368 1.05993 -0.494438
814.625 1.416973 0.94 -0.476973
815.2734375 1.379087 0.918813 -0.460274
815.91796875 1.387553 0.951948 -0.435605
816.55078125 1.380114 0.938555 -0.441559
817.19921875 1.330775 0.915873 -0.414902
817.859375 1.379402 0.972665 -0.406737
818.5078125 1.630568 1.233215 -0.397353
819.16796875 1.353364 0.934214 -0.41915
819.8359375 1.3390900000000001 0.94416 -0.39493
820.48828125 1.319945 0.879408 -0.440537
821.13671875 1.377186 0.938912 -0.438274
821.7890625 1.315995 0.86164 -0.454355
822.3125 2.176583 0.19525 -1.981333
822.55078125 2.486333 0.505 -1.981333
823.11328125 1.502778 1.01283 -0.489948
823.78515625 1.598706 1.095552 -0.503154
824.41796875 1.463838 0.923925 -0.539913
825.06640625 1.488712 0.943827 -0.544885
825.7265625 1.485677 0.896371 -0.589306
826.37890625 1.611929 0.95748 -0.654449
827.0390625 1.517252 0.830588 -0.686664
827.68359375 1.477153 0.808325 -0.668828
828.34375 1.522608 0.962741 -0.559867
829.0 1.5830000000000002 1.08 -0.503
829.6796875 1.545376 1.115532 -0.429844
830.3359375 1.424252 1.139875 -0.284377
831.00390625 1.411203 0.960686 -0.450517
831.6640625 1.454828 0.922225 -0.532603
832.33984375 1.527361 1.045861 -0.4815
833.00390625 1.4210880000000001 0.941088 -0.48
833.66015625 1.467288 1.027731 -0.439557
834.33984375 1.4004429999999999 1.126901 -0.273542
835.00390625 1.518842 1.185522 -0.33332
835.65234375 1.4839470000000001 1.068947 -0.415
836.3046875 1.445927 0.908451 -0.537476
836.9921875 1.505201 0.881621 -0.62358
837.66015625 1.519128 0.950721 -0.568407
838.29296875 1.575436 1.106924 -0.468512
838.93359375 1.414205 0.97 -0.444205
839.59375 1.377008 0.991179 -0.385829
840.26953125 1.354523 0.964989 -0.389534
840.93359375 1.511612 1.039331 -0.472281
841.58984375 1.432121 0.950177 -0.481944
842.23828125 1.38385 0.96385 -0.42
842.8984375 1.363751 0.960104 -0.403647
843.58984375 1.325246 0.935246 -0.39
844.265625 1.482275 0.97898 -0.503295
844.93359375 1.432369 0.908631 -0.523738
845.5625 1.330781 0.865781 -0.465
846.23046875 1.3594629999999999 0.879921 -0.479542
846.89453125 1.333804 0.865298 -0.468506
847.57421875 1.434485 0.904583 -0.529902
848.23828125 1.312058 0.860469 -0.451589
848.875 1.263897 0.865 -0.398897
849.546875 1.252266 0.887017 -0.365249
850.19921875 1.365106 0.935926 -0.42918
850.87109375 1.314351 0.865132 -0.449219
851.53515625 1.24824 0.89324 -0.355
852.21484375 1.237571 0.869109 -0.368462
852.86328125 1.3368419999999999 0.911902 -0.42494
853.51953125 1.229582 0.814777 -0.414805
854.16796875 1.114889 0.751998 -0.362891
854.85546875 1.17443 0.814899 -0.359531
855.5390625 1.279524 0.859817 -0.419707
856.19921875 1.2647490000000001 0.830229 -0.43452
856.85546875 1.174607 0.844824 -0.329783
857.52734375 1.146484 0.852656 -0.293828
858.21484375 1.234899 0.872854 -0.362045
858.875 1.220357 0.825 -0.395357
859.5390625 1.165488 0.756626 -0.408862
860.19921875 1.13254 0.684691 -0.447849
860.8671875 1.244882 0.731322 -0.51356
861.51953125 1.203932 0.664921 -0.539011
862.18359375 1.14005 0.630863 -0.509187
862.87109375 1.15185 0.677241 -0.474609
863.53515625 1.218298 0.73528 -0.483018
864.1875 1.170048 0.630833 -0.539215
864.85546875 1.123071 0.614989 -0.508082
865.55078125 1.141242 0.619759 -0.521483
866.21875 1.239051 0.694051 -0.545
866.87109375 1.184191 0.709954 -0.474237
867.52734375 1.124056 0.719056 -0.405
868.21484375 1.162965 0.752965 -0.41
868.89453125 1.224656 0.789989 -0.434667
869.56640625 1.344418 0.889654 -0.454764
870.23046875 1.249487 0.794936 -0.454551
870.88671875 1.223586 0.800383 -0.423203
871.5546875 1.211422 0.796596 -0.414826
872.2265625 1.312143 0.899887 -0.412256
872.90625 1.290208 0.895208 -0.395
873.5625 1.248653 0.87561 -0.373043
874.2265625 1.232197 0.930616 -0.301581
874.88671875 1.2038470000000001 0.92373 -0.280117
875.55859375 1.265865 0.960865 -0.305
876.23828125 1.292963 0.946717 -0.346246
876.90625 1.218016 0.858016 -0.36
877.578125 1.2133470000000002 0.889391 -0.323956
878.25 1.261255 0.94 -0.321255
878.9140625 1.264617 0.924617 -0.34
879.59765625 1.2929140000000001 0.858522 -0.434392
880.28125 1.246223 0.834287 -0.411936
880.9765625 1.2212969999999999 0.816835 -0.404462
881.640625 1.3059129999999999 0.811641 -0.494272
882.3125 1.284061 0.764608 -0.519453
882.98046875 1.2446 0.799937 -0.444663
883.68359375 1.216705 0.753134 -0.463571
884.3828125 1.2936299999999998 0.804514 -0.489116
885.06640625 1.332091 0.797433 -0.534658
885.73046875 1.319123 0.829989 -0.489134
886.421875 1.293992 0.84402 -0.449972
887.1328125 1.265045 0.80977 -0.455275
887.82421875 1.413553 0.930129 -0.483424
888.484375 1.3748420000000001 0.899842 -0.475
889.15625 1.313446 0.894205 -0.419241
889.8515625 1.300417 0.896164 -0.404253
890.5390625 1.368024 0.923503 -0.444521
891.2265625 1.409144 0.935229 -0.473915
891.9140625 1.3842949999999998 0.944572 -0.439723
892.6015625 1.355147 0.937029 -0.418118
893.27734375 1.350273 0.960273 -0.39
893.98046875 1.485846 1.046355 -0.439491
894.67578125 1.436118 0.991118 -0.445
895.36328125 1.416971 1.022246 -0.394725
896.05078125 1.33648 0.99148 -0.345
896.7265625 1.277295 0.922804 -0.354491
897.40234375 1.343494 0.958494 -0.385
898.0859375 1.3544379999999998 1.099746 -0.254692
898.79296875 1.46376 1.21376 -0.25
899.4609375 1.539338 1.209653 -0.329685
900.13671875 1.372431 1.003244 -0.369187
900.796875 1.260171 0.910246 -0.349925
901.50390625 1.251739 0.860821 -0.390918
902.19140625 1.309953 0.884953 -0.425
902.8828125 1.41635 0.981357 -0.434993
903.546875 1.3349039999999999 0.889914 -0.44499
904.23046875 1.4247800000000002 0.90478 -0.52
904.90625 1.439981 0.922137 -0.517844
905.5859375 1.579145 1.07956 -0.499585
906.26953125 1.5345179999999998 0.989957 -0.544561
906.9375 1.370562 0.86125 -0.509312
907.61328125 1.3548550000000001 0.87495 -0.479905
908.3046875 1.374925 0.949925 -0.425
909.0078125 1.369807 0.949814 -0.419993
909.6875 1.368655 0.939375 -0.42928
910.33984375 1.4987549999999998 1.130213 -0.368542
911.0 1.478396 1.085 -0.393396
911.66796875 1.516718 1.291093 -0.225625
912.3515625 1.490917 1.227464 -0.263453
913.0234375 1.474084 1.089084 -0.385
913.6953125 1.441606 1.046006 -0.3956
914.37890625 1.511111 1.076417 -0.434694
915.03125 1.597939 1.255517 -0.342422
915.71484375 1.478168 1.055842 -0.422326
916.39453125 1.5108920000000001 1.004176 -0.506716
917.05859375 1.528815 0.923902 -0.604913
917.7109375 1.5443799999999999 0.944485 -0.599895
918.37109375 1.5917400000000002 1.030769 -0.560971
919.0390625 1.604175 1.124709 -0.479466
919.7109375 1.763506 1.19923 -0.564276
920.375 1.534862 0.945 -0.589862
921.01953125 1.48825 0.889819 -0.598431
921.6875 1.481058 0.91847 -0.562588
922.32421875 1.54995 1.079095 -0.470855
922.9921875 1.4780320000000002 1.0132 -0.464832
923.6484375 1.42882 1.01596 -0.41286
924.3125 1.455624 1.025517 -0.430107
924.953125 1.2992810000000001 0.944281 -0.355
925.59765625 1.4409399999999999 1.011081 -0.429859
926.10546875 1.710271 0.035014 -1.675257
926.91015625 1.5607840000000002 1.072766 -0.488018
927.37890625 0.742835 -0.065759 -0.808594
927.6640625 1.729382 0.044382 -1.685
927.8828125 1.8509250000000002 0.165925 -1.685
928.1953125 0.848316 -0.115498 -0.963814
928.875 1.334237 0.735 -0.599237
929.52734375 1.442688 0.817688 -0.625
930.19921875 1.351351 0.748093 -0.603258
930.859375 1.2915429999999999 0.741889 -0.549654
931.54296875 1.341307 0.836357 -0.50495
932.1875 1.455634 0.902333 -0.553301
932.83984375 1.414152 0.914152 -0.5
933.49609375 1.385533 0.895686 -0.489847
934.16796875 1.4632610000000001 1.005127 -0.458134
934.84375 1.435122 0.970625 -0.464497
935.5 1.3996870000000001 0.99 -0.409687
936.16796875 1.46665 1.032573 -0.434077
936.828125 1.458338 0.974918 -0.48342
937.515625 1.380513 0.952068 -0.428445
938.18359375 1.357754 0.962979 -0.394775
938.859375 1.33927 0.913704 -0.425566
939.52734375 1.333277 0.943277 -0.39
940.22265625 1.438811 1.035679 -0.403132
940.88671875 1.5495299999999999 1.13953 -0.41
941.56640625 1.313323 0.850871 -0.462452
942.2421875 1.3118910000000001 0.822593 -0.489298
942.921875 1.285969 0.786248 -0.499721
943.5859375 1.239802 0.744979 -0.494823
944.2734375 1.2319879999999999 0.711988 -0.52
944.9609375 1.439573 0.924583 -0.51499
945.625 1.286301 0.745 -0.541301
946.2578125 1.242899 0.747945 -0.494954
946.93359375 1.261766 0.793069 -0.468697
947.61328125 1.411578 0.946812 -0.464766
948.28125 1.4927420000000002 1.160273 -0.332469
948.94921875 1.345042 0.930289 -0.414753
949.6015625 1.303205 0.829375 -0.47383
950.27734375 1.260947 0.740947 -0.52
950.93359375 1.245733 0.702083 -0.54365
951.6171875 1.3406850000000001 0.795412 -0.545273
952.3046875 1.2066109999999999 0.711992 -0.494619
952.9921875 1.173114 0.685563 -0.487551
953.6484375 1.269904 0.744002 -0.525902
954.3046875 1.2891819999999998 0.704529 -0.584653
954.95703125 1.207209 0.707209 -0.5
955.64453125 0.984155 0.559866 -0.424289
956.328125 1.196126 0.717124 -0.479002
956.98046875 1.253714 0.744899 -0.508815
957.62890625 1.224118 0.689118 -0.535
958.2734375 1.177464 0.652464 -0.525
958.9609375 1.1642679999999999 0.72946 -0.434808
959.625 1.228641 0.765 -0.463641
960.28515625 1.351778 0.754779 -0.596999
960.9296875 1.173896 0.759052 -0.414844
961.578125 1.155285 0.802402 -0.352883
962.24609375 1.183774 0.894265 -0.289509
962.9296875 1.155032 0.850032 -0.305
963.609375 1.344001 0.959153 -0.384848
964.26953125 1.238562 0.869817 -0.368745
964.93359375 1.2858260000000001 0.883545 -0.402281
965.59375 1.25495 0.736179 -0.518771
966.265625 1.220489 0.633689 -0.5868
966.94140625 1.2539570000000002 0.674116 -0.579841
967.6171875 1.209178 0.746648 -0.46253
968.93359375 1.2813569999999999 0.71917 -0.562187
969.5859375 1.209356 0.629979 -0.579377
970.265625 1.2211940000000001 0.713701 -0.507493
970.9375 1.3417050000000001 0.72984 -0.611865
971.58984375 1.317788 0.687912 -0.629876
972.234375 1.2075960000000001 0.737993 -0.469603
972.89453125 1.217897 0.904764 -0.313133
973.5859375 1.22588 0.955 -0.27088
974.25390625 1.248593 1.031584 -0.217009
974.91015625 1.441612 1.247782 -0.19383
975.5703125 1.183045 0.939645 -0.2434
976.2421875 1.22131 0.928675 -0.292635
976.90234375 1.1702810000000001 0.815281 -0.355
977.578125 1.174414 0.767991 -0.406423
978.25 1.1913749999999999 0.72 -0.471375
978.90625 1.303522 0.799167 -0.504355
979.55078125 1.1971859999999999 0.663941 -0.533245
980.2109375 1.254641 0.744815 -0.509826
980.88671875 1.265018 0.799761 -0.465257
981.55078125 1.268141 0.869133 -0.399008
982.19921875 1.249478 0.8052 -0.444278
982.8359375 1.534042 1.079472 -0.45457
983.5 1.279912 0.78 -0.499912
984.1484375 1.259423 0.859423 -0.4
984.8125 1.210234 0.761803 -0.448431
985.48046875 1.31491 0.87991 -0.435
986.12890625 1.3399999999999999 0.835 -0.505
986.7734375 1.3904610000000002 0.774525 -0.615936
987.43359375 1.295843 0.774307 -0.521536
988.12890625 1.323034 0.84435 -0.478684
988.7890625 1.317815 0.818934 -0.498881
989.44140625 1.301513 0.784899 -0.516614
990.08984375 1.263504 0.742707 -0.520797
990.7734375 1.300851 0.759334 -0.541517
991.421875 1.512205 0.872205 -0.64
992.08203125 1.2484790000000001 0.524295 -0.724184
992.734375 1.312894 0.577894 -0.735
993.390625 1.336077 0.637889 -0.698188
994.01953125 1.284814 0.649963 -0.634851
994.6953125 1.285771 0.785771 -0.5
995.36328125 1.302257 0.877446 -0.424811
996.01953125 1.199689 0.809931 -0.389758
996.65234375 1.177413 0.877413 -0.3
997.30078125 1.185708 0.8518 -0.333908
997.97265625 1.191156 0.887356 -0.3038
998.625 1.291437 0.9 -0.391437
999.28125 1.208917 0.783917 -0.425
999.9453125 1.212027 0.816131 -0.395896
1000.60546875 1.19451 0.824944 -0.369566
1001.2421875 1.3304909999999999 0.888014 -0.442477
1001.89453125 1.3787500000000001 0.849735 -0.529015
1002.5625 1.370355 0.828846 -0.541509
1003.2109375 1.41514 0.731683 -0.683457
1003.8671875 1.344122 0.782973 -0.561149
1004.51953125 1.3483239999999999 0.703364 -0.64496
1005.171875 1.479193 0.814305 -0.664888
1005.8125 1.320678 0.658906 -0.661772
1006.48046875 1.344936 0.764936 -0.58
1007.1640625 1.357169 0.797772 -0.559397
1007.82421875 1.383765 0.919421 -0.464344
1008.46875 1.39031 0.760543 -0.629767
1009.13671875 1.309906 0.824961 -0.484945
1009.83984375 1.326467 0.85164 -0.474827
1010.51171875 1.333589 0.836226 -0.497363
1011.16796875 1.4500229999999998 0.833815 -0.616208
1011.83203125 1.408728 0.826062 -0.582666
1012.5078125 1.319598 0.849612 -0.469986
1013.1953125 1.334945 0.877158 -0.457787
1013.875 1.361123 0.835 -0.526123
1014.55078125 1.434754 0.811324 -0.62343
1015.22265625 1.375241 0.800359 -0.574882
1015.8984375 1.3487719999999999 0.830557 -0.518215
1016.59375 1.431161 0.889308 -0.541853
1017.28125 1.463305 0.883235 -0.58007
1017.94921875 1.352623 0.848685 -0.503938
1018.62890625 1.3581590000000001 0.883947 -0.474212
1019.30859375 1.38479 0.90479 -0.48
1019.99609375 1.445476 0.869405 -0.576071
1020.6796875 1.393343 0.854984 -0.538359
1021.375 1.39 0.945 -0.445
1022.0625 1.406096 1.014246 -0.39185
1022.74609375 1.4182769999999998 1.038277 -0.38
1023.4296875 1.512013 1.065046 -0.446967
1024.14453125 1.449741 1.034956 -0.414785
1024.828125 1.382266 1.020465 -0.361801
1025.5078125 1.4352960000000001 0.992321 -0.442975
1026.19140625 1.391012 0.91403 -0.476982
1026.87890625 1.467075 0.850407 -0.616668
1027.5546875 1.4020419999999998 0.83576 -0.566282
1028.25 1.394491 0.855 -0.539491
1028.9375 1.39941 0.869947 -0.529463
1029.625 1.454856 0.855 -0.599856
1030.28515625 1.4298790000000001 0.81359 -0.616289
1030.98046875 1.356433 0.831345 -0.525088
1031.69140625 1.338375 0.84 -0.498375
1032.38671875 1.362238 0.847944 -0.514294
1033.05859375 1.4209239999999999 0.830741 -0.590183
1033.75 1.408614 0.88 -0.528614
1034.44140625 1.398781 0.899066 -0.499715
1035.1484375 1.4015680000000001 0.893039 -0.508529
1035.86328125 1.459511 0.852496 -0.607015
1036.546875 1.512777 0.848125 -0.664652
1037.22265625 1.3676819999999998 0.852223 -0.515459
1037.93359375 1.3550740000000001 0.871712 -0.483362
1038.65234375 1.445538 0.946399 -0.499139
1039.3359375 1.466751 0.912506 -0.554245
1040.01171875 1.433003 0.940887 -0.492116
1040.69921875 1.31429 0.9 -0.41429
1041.390625 1.366441 0.939264 -0.427177
1042.07421875 1.449022 0.901204 -0.547818
1042.765625 1.307155 0.875715 -0.43144
1043.44921875 1.349177 0.98026 -0.368917
1044.125 1.3899270000000001 1.08 -0.309927
1044.79296875 1.383208 0.96481 -0.418398
1045.4921875 1.358966 0.984177 -0.374789
1046.1796875 1.354935 0.973945 -0.38099
1046.87109375 1.242898 0.834956 -0.407942
1047.5390625 1.372503 0.811646 -0.560857
1048.22265625 1.348205 0.814104 -0.534101
1048.8984375 1.212987 0.747148 -0.465839
1049.5859375 1.339025 0.809137 -0.529888
1050.27734375 1.369418 0.809418 -0.56
1050.953125 1.325528 0.76846 -0.557068
1051.609375 1.2205840000000001 0.764028 -0.456556
1052.30078125 1.241279 0.775481 -0.465798
1053.0 1.264971 0.73 -0.534971
1053.67578125 1.32946 0.735 -0.59446
1054.3359375 1.2047590000000001 0.734777 -0.469982
1055.015625 1.216218 0.752323 -0.463895
1055.69921875 1.174909 0.717217 -0.457692
1056.390625 1.2629389999999998 0.724262 -0.538677
1057.08984375 1.225124 0.733718 -0.491406
1057.765625 1.200872 0.777422 -0.42345
1058.45703125 1.246693 0.752172 -0.494521
1059.14453125 1.248953 0.7348 -0.514153
1059.85546875 1.319934 0.814934 -0.505
1060.55078125 1.2447 0.816022 -0.428678
1061.2421875 1.2073 0.819738 -0.387562
1061.9296875 1.253468 0.808453 -0.445015
1062.62109375 1.268483 0.775628 -0.492855
1063.30859375 1.144564 0.709657 -0.434907
1064.015625 1.109264 0.643232 -0.466032
1064.71875 1.191366 0.646211 -0.545155
1065.421875 1.258479 0.653849 -0.60463
1066.09375 1.2660529999999999 0.628537 -0.637516
1066.8046875 1.15857 0.638281 -0.520289
1067.515625 1.208426 0.690838 -0.517588
1068.22265625 1.221959 0.691101 -0.530858
1068.90234375 1.197089 0.644025 -0.553064
1069.58984375 1.253847 0.655213 -0.598634
1070.28125 1.147919 0.660785 -0.487134
1070.984375 1.17585 0.687658 -0.488192
1071.703125 1.2198820000000001 0.717583 -0.502299
1072.39453125 1.229983 0.709983 -0.52
1073.0703125 1.250632 0.671495 -0.579137
1073.765625 1.158557 0.655905 -0.502652
1074.484375 1.146881 0.673811 -0.47307
1075.1796875 1.087342 0.63007 -0.457272
1075.8671875 1.207171 0.683148 -0.524023
1076.55078125 1.180413 0.62071 -0.559703
1077.25 1.144954 0.635 -0.509954
1077.94921875 1.190113 0.732515 -0.457598
1078.6640625 1.203309 0.749194 -0.454115
1079.36328125 1.260307 0.755501 -0.504806
1080.05859375 1.307949 0.734179 -0.57377
1080.74609375 1.190207 0.752 -0.438207
1081.47265625 1.274067 0.822383 -0.451684
1082.1796875 1.215854 0.776553 -0.439301
1082.88671875 1.242296 0.763558 -0.478738
1083.578125 1.2177289999999998 0.725335 -0.492394
1084.28515625 1.220946 0.761095 -0.459851
1084.98828125 1.200423 0.762165 -0.438258
1085.703125 1.264657 0.776736 -0.487921
1086.4140625 1.306541 0.789017 -0.517524
1087.109375 1.332727 0.779241 -0.553486
1087.796875 1.235842 0.785 -0.450842
1088.51953125 1.2235449999999999 0.8039 -0.419645
1089.234375 1.317267 0.853001 -0.464266
1089.93359375 1.372715 0.834556 -0.538159
1090.62109375 1.249039 0.767341 -0.481698
1091.3125 1.2561419999999999 0.812923 -0.443219
1092.01171875 1.264992 0.822542 -0.44245
1092.71484375 1.3012489999999999 0.852965 -0.448284
1093.42578125 1.303194 0.806568 -0.496626
1094.11328125 1.2523819999999999 0.811255 -0.441127
1094.80078125 1.15705 0.778061 -0.378989
1095.5078125 0.998546 0.663845 -0.334701
1096.23046875 1.184953 0.744953 -0.44
1096.921875 1.2430729999999999 0.753359 -0.489714
1097.59765625 1.154673 0.744944 -0.409729
1098.2890625 1.1298460000000001 0.759846 -0.37
1098.98828125 1.195111 0.781265 -0.413846
1099.69140625 1.1631010000000002 0.718566 -0.444535
1100.39453125 1.219625 0.759856 -0.459769
1101.08203125 1.30293 0.84004 -0.46289
1101.7734375 1.31886 0.845762 -0.473098
1102.4609375 1.344826 0.834844 -0.509982
1103.17578125 1.371256 0.817311 -0.553945
1103.87109375 1.339235 0.813219 -0.526016
1104.5625 1.299029 0.805919 -0.49311
1105.25390625 1.369164 0.8092 -0.559964
1105.94921875 1.406231 0.844007 -0.562224
1106.63671875 1.422694 0.856498 -0.566196
1107.3359375 1.317659 0.853206 -0.464453
1108.0546875 1.3508499999999999 0.862007 -0.488843
1108.75390625 1.397171 0.89818 -0.498991
1109.4375 1.398098 0.829858 -0.56824
1110.14453125 1.459539 0.914875 -0.544664
1110.859375 1.370632 0.874342 -0.49629
1111.56640625 1.362755 0.848281 -0.514474
1112.25390625 1.4209070000000001 0.875907 -0.545
1112.94140625 1.4300380000000001 0.855689 -0.574349
1113.6328125 1.4215360000000001 0.878632 -0.542904
1114.3359375 1.359085 0.869191 -0.489894
1115.0546875 1.438096 0.906544 -0.531552
1115.75390625 1.421803 0.856 -0.565803
1116.4375 1.445583 0.843548 -0.602035
1117.14453125 1.408791 0.849795 -0.558996
1117.86328125 1.405304 0.8424 -0.562904
1118.56640625 1.400681 0.864592 -0.536089
1119.25390625 1.500925 0.900931 -0.599994
1119.95703125 1.459036 0.872149 -0.586887
1120.66015625 1.4274580000000001 0.905 -0.522458
1121.375 1.419891 0.94 -0.479891
1122.08984375 1.4368919999999998 0.927966 -0.508926
1122.7890625 1.519364 0.954541 -0.564823
1123.484375 1.464917 0.849917 -0.615
1124.1875 1.442586 0.946786 -0.4958
1124.9140625 1.444175 0.949668 -0.494507
1125.6171875 1.442197 0.930298 -0.511899
1126.30859375 1.512913 0.962823 -0.55009
1127.0 1.5848339999999999 0.985 -0.599834
1127.703125 1.461463 0.968419 -0.493044
1128.41015625 1.413576 0.942261 -0.471315
1129.125 1.499917 0.975 -0.524917
1129.828125 1.538414 0.969918 -0.568496
1130.52734375 1.537756 0.929865 -0.607891
1131.21875 1.378052 0.8907 -0.487352
1131.9609375 1.4209749999999999 0.904979 -0.515996
1132.68359375 1.379813 0.84 -0.539813
1133.40234375 1.5019200000000001 0.907529 -0.594391
1134.09375 1.543487 0.889321 -0.654166
1134.8046875 1.390285 0.837647 -0.552638
1135.5078125 1.354238 0.821348 -0.53289
1136.23046875 1.404938 0.849938 -0.555
1136.9375 1.4129559999999999 0.83971 -0.573246
1137.6328125 1.4570509999999999 0.827051 -0.63
1138.32421875 1.367186 0.798142 -0.569044
1139.05078125 1.289927 0.780626 -0.509301
1139.7734375 1.3682569999999998 0.826101 -0.542156
1140.484375 1.361369 0.82325 -0.538119
1141.1875 1.3998650000000001 0.823731 -0.576134
1141.89453125 1.414658 0.849963 -0.564695
1142.60546875 1.345 0.86 -0.485
1143.328125 1.3639510000000001 0.875 -0.488951
1144.05078125 1.339424 0.821889 -0.517535
1144.765625 1.376124 0.8353 -0.540824
1145.4609375 1.369643 0.854682 -0.514961
1146.1796875 1.324829 0.88335 -0.441479
1146.90234375 1.3728310000000001 0.878541 -0.49429
1147.60546875 1.3798059999999999 0.884806 -0.495
1148.3046875 1.4424480000000002 0.888942 -0.553506
1148.99609375 1.375239 0.826369 -0.54887
1149.68359375 1.323901 0.847828 -0.476073
1150.38671875 1.2991409999999999 0.85686 -0.442281
1151.09375 1.289872 0.798409 -0.491463
1151.796875 1.3296459999999999 0.796248 -0.533398
1152.484375 1.283037 0.771775 -0.511262
1153.1953125 1.2375289999999999 0.773469 -0.46406
1153.91015625 1.298815 0.808099 -0.490716
1154.62109375 1.241563 0.771891 -0.469672
1155.30859375 1.3539050000000001 0.824608 -0.529297
1156.01171875 1.254005 0.789747 -0.464258
1156.70703125 1.244607 0.766315 -0.478292
1157.421875 1.215036 0.752087 -0.462949
1158.14453125 1.275492 0.760573 -0.514919
1158.84375 1.339669 0.791188 -0.548481
1159.53515625 1.228528 0.7214 -0.507128
1160.25 1.21998 0.715 -0.50498
1160.97265625 1.249387 0.712703 -0.536684
1161.67578125 1.2421039999999999 0.712401 -0.529703
1162.34765625 1.2683179999999998 0.708649 -0.559669
1163.046875 1.214092 0.714139 -0.499953
1163.74609375 1.233739 0.743212 -0.490527
1164.45703125 1.228855 0.728221 -0.500634
1165.18359375 1.292589 0.779256 -0.513333
1165.88671875 1.2707009999999999 0.732151 -0.53855
1166.58984375 1.2555939999999999 0.73231 -0.523284
1167.30078125 1.178175 0.712902 -0.465273
1168.046875 1.217948 0.734916 -0.483032
1168.75390625 1.191116 0.726167 -0.464949
1169.45703125 1.202006 0.686429 -0.515577
1170.15625 1.206197 0.663499 -0.542698
1170.875 1.2249729999999999 0.7 -0.524973
1171.5859375 1.1497389999999998 0.654805 -0.494934
1172.3125 1.188822 0.686214 -0.502608
1173.01171875 1.1875879999999999 0.71385 -0.473738
1173.7109375 1.254108 0.70917 -0.544938
1174.40625 1.193483 0.713935 -0.479548
1175.13671875 1.157578 0.733867 -0.423711
1175.84765625 1.183974 0.731251 -0.452723
1176.55078125 1.209524 0.679587 -0.529937
1177.25390625 1.249625 0.671284 -0.578341
1177.96484375 1.2376619999999998 0.654195 -0.583467
1178.6796875 1.15913 0.680521 -0.478609
1179.40625 1.13408 0.676058 -0.458022
1180.1328125 1.217988 0.734158 -0.48383
1180.84765625 1.228027 0.676384 -0.551643
1181.546875 1.277204 0.688159 -0.589045
1182.27734375 1.198585 0.714218 -0.484367
1182.9921875 1.22878 0.742922 -0.485858
1183.6953125 1.232485 0.739645 -0.49284
1184.3984375 1.291875 0.750242 -0.541633
1185.09765625 1.3250959999999998 0.737996 -0.5871
1185.79296875 1.1992479999999999 0.693534 -0.505714
1186.515625 1.228216 0.709271 -0.518945
1187.22265625 1.288565 0.758998 -0.529567
1187.92578125 1.317169 0.764717 -0.552452
1188.625 1.299881 0.82 -0.479881
1189.34765625 1.208605 0.753936 -0.454669
1190.0625 1.271337 0.807831 -0.463506
1190.78125 1.307385 0.829506 -0.477879
1191.48046875 1.3399100000000002 0.82991 -0.51
1192.1953125 1.315446 0.835089 -0.480357
1192.89453125 1.3297180000000002 0.849933 -0.479785
1193.6171875 1.2825090000000001 0.804173 -0.478336
1194.33203125 1.277951 0.794539 -0.483412
1195.0390625 1.2193930000000002 0.744793 -0.4746
1195.73046875 1.2948650000000002 0.789865 -0.505
1196.44921875 1.1620219999999999 0.767359 -0.394663
1197.171875 1.203085 0.780195 -0.42289
1197.87890625 1.186208 0.748613 -0.437595
1198.578125 1.2268789999999998 0.748002 -0.478877
1199.27734375 1.26048 0.771875 -0.488605
1199.984375 1.17357 0.729126 -0.444444
1200.4765625 1.5115120000000002 -0.102345 -1.613857
1201.41015625 1.318022 0.854897 -0.463125
1201.9140625 1.326737 0.865587 -0.46115
1202.765625 1.326948 0.84466 -0.482288
1203.4921875 1.32626 0.805701 -0.520559
1204.23046875 1.354877 0.859877 -0.495
1204.94140625 1.349534 0.854578 -0.494956
1205.6328125 1.325974 0.838261 -0.487713
1206.328125 1.371118 0.859733 -0.511385
1207.02734375 1.3893140000000002 0.855406 -0.533908
1207.74609375 1.343114 0.855883 -0.487231
1208.4609375 1.339376 0.874447 -0.464929
1209.16015625 1.341167 0.876267 -0.4649
1209.859375 1.374825 0.89131 -0.483515
1210.56640625 1.469125 0.919312 -0.549813
1211.3046875 1.377237 0.883413 -0.493824
1212.015625 1.404839 0.890089 -0.51475
1212.71875 1.354097 0.863824 -0.490273
1213.4296875 1.346449 0.860523 -0.485926
1214.15234375 1.4451049999999999 0.939572 -0.505533
1214.875 1.429937 0.915 -0.514937
1215.6015625 1.4006 0.929423 -0.471177
1216.3203125 1.403732 0.913606 -0.490126
1217.03515625 1.429001 0.934001 -0.495
1217.74609375 1.462437 0.944672 -0.517765
1218.48046875 1.4685190000000001 0.923519 -0.545
1219.19921875 1.386927 0.941296 -0.445631
1219.8984375 1.342811 0.893125 -0.449686
1220.60546875 1.414837 0.924837 -0.49
1221.32421875 1.454825 0.920519 -0.534306
1222.02734375 1.431638 0.846326 -0.585312
1222.74609375 1.426961 0.911209 -0.515752
1223.44921875 1.425916 0.899591 -0.526325
1224.16015625 1.4073440000000002 0.903215 -0.504129
1224.8671875 1.4324029999999999 0.913712 -0.518691
1225.59765625 1.448721 0.933916 -0.514805
1226.30859375 1.398794 0.924243 -0.474551
1227.01953125 1.416791 0.909385 -0.507406
1227.7265625 1.3882940000000001 0.89426 -0.494034
1228.44921875 1.388329 0.938226 -0.450103
1229.1640625 1.448864 0.979437 -0.469427
1229.8828125 1.447426 0.915604 -0.531822
1230.59765625 1.437458 0.952421 -0.485037
1231.30859375 1.391974 0.91376 -0.478214
1232.015625 1.433421 0.934732 -0.498689
1232.7578125 1.462289 0.922562 -0.539727
1233.4765625 1.4618 0.894942 -0.566858
1234.18359375 1.502242 0.918232 -0.58401
1234.890625 1.419967 0.872756 -0.547211
1235.61328125 1.367065 0.842456 -0.524609
1236.33203125 1.403511 0.871563 -0.531948
1237.0625 1.397829 0.876538 -0.521291
1237.76953125 1.489498 0.949866 -0.539632
1238.46875 1.4278089999999999 0.878346 -0.549463
1239.17578125 1.362161 0.899586 -0.462575
1239.921875 1.3741240000000001 0.889617 -0.484507
1240.6328125 1.393544 0.888675 -0.504869
1241.3359375 1.439262 0.884333 -0.554929
1242.04296875 1.355998 0.86015 -0.495848
1242.765625 1.356848 0.877567 -0.479281
1243.48046875 1.339845 0.859845 -0.48
1244.21484375 1.312354 0.823077 -0.489277
1244.9296875 1.4138009999999999 0.822909 -0.590892
1245.640625 1.423621 0.865715 -0.557906
1246.3515625 1.263263 0.804171 -0.459092
1247.09765625 1.382597 0.879099 -0.503498
1247.80859375 1.321988 0.845864 -0.476124
1248.5234375 1.366018 0.80797 -0.558048
1249.234375 1.443662 0.79518 -0.648482
1249.9453125 1.437223 0.664494 -0.772729
1250.66015625 1.3526310000000001 0.778069 -0.574562
1251.3984375 1.324617 0.842488 -0.482129
1252.1328125 1.361456 0.89173 -0.469726
1252.86328125 1.309821 0.87 -0.439821
1253.58984375 1.281307 0.836321 -0.444986
1254.33984375 1.390996 0.878022 -0.512974
1255.0703125 1.3215780000000001 0.862272 -0.459306
1255.79296875 1.30922 0.848673 -0.460547
1256.515625 1.306292 0.828963 -0.477329
1257.24609375 1.335986 0.838031 -0.497955
1257.98046875 1.299989 0.799989 -0.5
1258.71875 1.275138 0.765 -0.510138
1259.44140625 1.3194089999999998 0.79443 -0.524979
1260.1640625 1.2635020000000001 0.779356 -0.484146
1260.8984375 1.27249 0.797983 -0.474507
1261.65234375 1.269758 0.812666 -0.457092
1262.37890625 1.316776 0.805192 -0.511584
1263.08984375 1.2455530000000001 0.800714 -0.444839
1263.8125 1.239011 0.809028 -0.429983
1264.55078125 1.245095 0.823591 -0.421504
1265.2890625 1.213861 0.779338 -0.434523
1266.03515625 1.247335 0.790383 -0.456952
1266.76171875 1.266751 0.785032 -0.481719
1267.47265625 1.271908 0.778916 -0.492992
1268.2109375 1.1961140000000001 0.731126 -0.464988
1268.94921875 1.247454 0.783972 -0.463482
1269.67578125 1.260688 0.756459 -0.504229
1270.37890625 1.292881 0.802218 -0.490663
1271.09765625 1.173797 0.761481 -0.412316
1271.81640625 1.221007 0.734953 -0.486054
1272.5390625 1.2844 0.684725 -0.599675
1273.27734375 1.303139 0.703667 -0.599472
1273.984375 1.212763 0.74367 -0.469093
1274.69921875 1.176467 0.732092 -0.444375
1275.4296875 1.236181 0.766734 -0.469447
1276.18359375 1.3229 0.81917 -0.50373
1276.9140625 1.234769 0.799877 -0.434892
1277.6484375 1.2075960000000001 0.783089 -0.424507
1278.37890625 1.224558 0.761025 -0.463533
1279.10546875 1.239982 0.779982 -0.46
1279.8515625 1.253636 0.891078 -0.362558
1280.59375 1.225518 0.958523 -0.266995
1281.328125 1.244036 1.039917 -0.204119
1282.0390625 1.18756 0.902611 -0.284949
1282.7890625 1.314553 0.869727 -0.444826
1283.53125 1.230226 0.802857 -0.427369
1284.27734375 1.2198250000000002 0.811409 -0.408416
1284.99609375 1.193485 0.823186 -0.370299
1285.73828125 1.229837 0.850572 -0.379265
1286.46484375 1.345086 0.829152 -0.515934
1287.2109375 1.28456 0.77464 -0.50992
1287.94921875 1.277513 0.758207 -0.519306
1288.6875 1.293242 0.751395 -0.541847
1289.4140625 1.263462 0.747611 -0.515851
1290.16796875 1.344201 0.814069 -0.530132
1290.8984375 1.336072 0.819491 -0.516581
1291.61328125 1.288211 0.781255 -0.506956
1292.33984375 1.273416 0.795089 -0.478327
1293.06640625 1.30572 0.819666 -0.486054
1293.78125 1.287522 0.790918 -0.496604
1294.5078125 1.121107 0.751139 -0.369968
1295.22265625 1.220064 0.817341 -0.402723
1295.9453125 1.127067 0.737702 -0.389365
1296.66015625 1.182814 0.758285 -0.424529
1297.40234375 1.194887 0.761685 -0.433202
1298.12890625 1.219664 0.771831 -0.447833
1298.84765625 1.187694 0.729238 -0.458456
1299.578125 1.2004709999999998 0.751613 -0.448858
1300.32421875 1.356927 0.84334 -0.513587
1301.0546875 1.373134 0.841385 -0.531749
1301.796875 1.387654 0.884728 -0.502926
1302.5234375 1.322556 0.872556 -0.45
1303.25 1.314988 0.905 -0.409988
1303.9765625 1.372135 0.969 -0.403135
1304.71875 1.369384 0.938068 -0.431316
1305.44140625 1.351959 0.97 -0.381959
1306.14453125 1.359837 0.965297 -0.39454
1306.86328125 1.372516 0.982516 -0.39
1307.5859375 1.339299 0.944352 -0.394947
1308.3125 1.384783 0.944783 -0.44
1309.04296875 1.412097 0.988416 -0.423681
1309.765625 1.385763 0.977109 -0.408654
1310.4765625 1.362525 0.881716 -0.480809
1311.19921875 1.312607 0.820806 -0.491801
1311.94921875 1.383912 0.839591 -0.544321
1312.66796875 1.447484 0.873812 -0.573672
1313.375 1.404919 0.885 -0.519919
1314.078125 1.4058060000000001 0.913481 -0.492325
1314.8046875 1.38008 0.882757 -0.497323
1315.52734375 1.391445 0.892294 -0.499151
1316.25390625 1.429075 0.921297 -0.507778
1316.96484375 1.417671 0.933546 -0.484125
1317.671875 1.4054280000000001 0.932246 -0.473182
1318.37890625 1.392769 0.942769 -0.45
1319.1171875 1.4590489999999998 1.002414 -0.456635
1319.8203125 1.457824 1.015062 -0.442762
1320.53125 1.3932579999999999 0.955662 -0.437596
1321.23828125 1.37641 0.977272 -0.399138
1321.9609375 1.3733309999999999 0.983443 -0.389888
1322.68359375 1.427407 1.018818 -0.408589
1323.40234375 1.512426 1.022904 -0.489522
1324.12109375 1.424239 0.973382 -0.450857
1324.828125 1.348496 0.91 -0.438496
1325.54296875 1.430317 0.946428 -0.483889
1326.26953125 1.464597 0.944855 -0.519742
1326.98828125 1.429185 0.942723 -0.486462
1327.69140625 1.333281 0.913633 -0.419648
1328.40234375 1.3960789999999998 0.916353 -0.479726
1329.1171875 1.471395 0.959195 -0.5122
1329.82421875 1.455553 0.974087 -0.481466
1330.27734375 1.553108 -0.060225 -1.613333
1331.2265625 1.404014 0.9558 -0.448214
1331.9375 1.331845 0.877069 -0.454776
1332.6484375 1.4360870000000001 0.929589 -0.506498
1333.37890625 1.460756 0.891408 -0.569348
1334.08984375 1.4280750000000002 0.89924 -0.528835
1334.80078125 1.360514 0.851047 -0.509467
1335.5078125 1.298692 0.781663 -0.517029
1336.23828125 1.371838 0.824748 -0.54709
1336.9453125 1.379619 0.871486 -0.508133
1337.671875 1.3248389999999999 0.845 -0.479839
1338.3828125 1.351035 0.871262 -0.479773
1339.09765625 1.409267 0.932009 -0.477258
1339.80078125 1.42272 0.944588 -0.478132
1340.54296875 1.311144 0.871795 -0.439349
1341.2578125 1.2940610000000001 0.889108 -0.404953
1341.96875 1.376192 0.916283 -0.459909
1342.66796875 1.379226 0.89788 -0.481346
1343.05078125 1.4953910000000001 -0.12 -1.615391
1344.08203125 1.340414 0.904751 -0.435663
1344.80859375 1.352157 0.868653 -0.483504
1345.5234375 1.386008 0.856008 -0.53
1346.2265625 1.4472260000000001 0.88495 -0.562276
1346.93359375 1.347245 0.840038 -0.507207
1347.6640625 1.384596 0.859906 -0.52469
1348.3828125 1.342216 0.847346 -0.49487
1349.0859375 1.3938510000000002 0.843963 -0.549888
1349.7890625 1.449162 0.874908 -0.574254
1350.5 1.399877 0.865 -0.534877
1351.203125 1.3349410000000002 0.862322 -0.472619
1351.921875 1.349223 0.884382 -0.464841
1352.6328125 1.405869 0.916996 -0.488873
1353.34375 1.382201 0.864706 -0.517495
1354.0390625 1.344182 0.909067 -0.435115
1354.76953125 1.2838120000000002 0.824235 -0.459577
1355.48828125 1.296509 0.821696 -0.474813
1356.21484375 1.3711769999999999 0.861305 -0.509872
1356.921875 1.409723 0.889825 -0.519898
1357.6484375 1.30585 0.822305 -0.483545
1358.3671875 1.356248 0.887936 -0.468312
1359.11328125 1.315318 0.877245 -0.438073
1359.84375 1.333047 0.854318 -0.478729
1360.57421875 1.4142489999999999 0.894582 -0.519667
1361.29296875 1.347867 0.848867 -0.499
1362.03515625 1.334169 0.871375 -0.462794
1362.76953125 1.330953 0.811096 -0.519857
1363.48828125 1.300263 0.811358 -0.488905
1364.20703125 1.337374 0.839844 -0.49753
1364.9296875 1.33208 0.859956 -0.472124
1365.65234375 1.298191 0.848685 -0.449506
1366.37890625 1.28391 0.823615 -0.460295
1367.1015625 1.318484 0.81737 -0.501114
1367.5546875 1.513574 -0.095555 -1.609129
1368.515625 1.271544 0.853811 -0.417733
1369.26171875 1.263531 0.813877 -0.449654
1369.984375 1.299674 0.805922 -0.493752
1370.68359375 1.330119 0.800861 -0.529258
1371.3984375 1.307937 0.803369 -0.504568
1372.12109375 1.296211 0.799028 -0.497183
1372.83984375 1.304227 0.800213 -0.504014
1373.57421875 1.267179 0.767999 -0.49918
1374.2890625 1.3191169999999999 0.7897 -0.529417
1375.00390625 1.343869 0.819708 -0.524161
1375.71484375 1.273962 0.813112 -0.46085
1376.4609375 1.249283 0.809411 -0.439872
1377.1796875 1.249419 0.78 -0.469419
1377.88671875 1.361477 0.839196 -0.522281
1378.60546875 1.284919 0.824919 -0.46
1379.32421875 1.275265 0.843041 -0.432224
1380.05078125 1.280653 0.853172 -0.427481
1380.78125 1.328212 0.865938 -0.462274
1381.50390625 1.313689 0.824041 -0.489648
1382.21484375 1.299116 0.825 -0.474116
1382.92578125 1.16334 0.70143 -0.46191
1383.671875 1.251318 0.727406 -0.523912
1384.40234375 1.259784 0.731734 -0.52805
1385.1171875 1.3503349999999998 0.7887 -0.561635
1385.828125 1.279118 0.792362 -0.486756
1386.546875 1.28267 0.834272 -0.448398
1387.26953125 1.2097790000000002 0.769931 -0.439848
1388.0 1.23029 0.785 -0.44529
1388.71484375 1.339871 0.820647 -0.519224
1389.42578125 1.291887 0.8118 -0.480087
1390.12890625 1.261516 0.794474 -0.467042
1390.875 1.314932 0.835 -0.479932
1391.5859375 1.3843670000000001 0.874472 -0.509895
1392.30859375 1.312634 0.834106 -0.478528
1393.01171875 1.313958 0.828886 -0.485072
1393.73828125 1.205098 0.753502 -0.451596
1394.45703125 1.14893 0.696064 -0.452866
1395.18359375 1.23453 0.719725 -0.514805
1395.90625 1.093658 0.674687 -0.418971
1396.62109375 1.027849 0.621306 -0.406543
1397.3359375 1.099276 0.664396 -0.43488
1398.08203125 1.148909 0.658426 -0.490483
1398.8046875 1.1803599999999999 0.684661 -0.495699
1399.5234375 1.2950750000000002 0.758943 -0.536132
1400.25 1.314964 0.77 -0.544964
1400.98828125 1.3201399999999999 0.758191 -0.561949
1401.7265625 1.350352 0.759196 -0.591156
1402.47265625 1.354911 0.792383 -0.562528
1403.2109375 1.27637 0.761153 -0.515217
1403.94921875 1.3137219999999998 0.75447 -0.559252
1404.69921875 1.3680219999999998 0.769585 -0.598437
1405.45703125 1.412878 0.783455 -0.629423
1406.19921875 1.371153 0.805229 -0.565924
1406.93359375 1.382683 0.814256 -0.568427
1407.67578125 1.334395 0.811829 -0.522566
1408.421875 1.3723960000000002 0.784506 -0.58789
1409.16796875 1.386543 0.782092 -0.604451
1409.93359375 1.381264 0.793575 -0.587689
1410.6796875 1.3710499999999999 0.804487 -0.566563
1411.41015625 1.338994 0.737577 -0.601417
1412.1640625 1.444521 0.804768 -0.639753
1412.91796875 1.38276 0.776093 -0.606667
1413.65625 1.359255 0.781925 -0.57733
1414.375 1.409974 0.805 -0.604974
1415.1171875 1.3474409999999999 0.778317 -0.569124
1415.84765625 1.4363100000000002 0.807529 -0.628781
1416.58984375 1.397027 0.805098 -0.591929
1417.33203125 1.411104 0.802861 -0.608243
1418.0703125 1.42176 0.829502 -0.592258
1418.79296875 1.3403749999999999 0.756428 -0.583947
1419.54296875 1.389914 0.778514 -0.6114
1420.28515625 1.4296820000000001 0.787648 -0.642034
1421.01171875 1.435803 0.813635 -0.622168
1421.734375 1.400973 0.801856 -0.599117
1422.46484375 1.396303 0.775405 -0.620898
1423.1875 1.440493 0.780169 -0.660324
1423.921875 1.455 0.8 -0.655
1424.640625 1.418148 0.806641 -0.611507
1425.359375 1.4004919999999998 0.809577 -0.590915
1426.06640625 1.434458 0.824458 -0.61
1426.8046875 1.422031 0.80756 -0.614471
1427.51953125 1.504324 0.844815 -0.659509
1428.23828125 1.45513 0.845621 -0.609509
1428.94140625 1.4583249999999999 0.878421 -0.579904
1429.40234375 2.1895070000000003 0.015 -2.174507
1429.6328125 2.487159 0.312652 -2.174507
1430.375 1.439594 0.86 -0.579594
1430.73828125 1.638946 -0.196054 -1.835
1431.828125 1.397187 0.876413 -0.520774
1432.55078125 1.441865 0.831651 -0.610214
1433.2578125 1.427417 0.839814 -0.587603
1433.98828125 1.363244 0.761562 -0.601682
1434.70703125 1.293893 0.714942 -0.578951
1435.41796875 1.4072 0.823867 -0.583333
1436.1171875 1.5066899999999999 0.882504 -0.624186
1436.828125 1.45366 0.909918 -0.543742
1437.53125 1.332773 0.834809 -0.497964
1438.2578125 1.349696 0.841793 -0.507903
1438.9765625 1.375435 0.859262 -0.516173
1439.6953125 1.337888 0.824978 -0.51291
1440.4140625 1.36803 0.86291 -0.50512
1441.15625 1.383131 0.885192 -0.497939
1441.890625 1.340829 0.884628 -0.456201
1442.6171875 1.397829 0.926557 -0.471272
1443.3515625 1.4130120000000002 0.888382 -0.52463
1444.08984375 1.469252 0.920615 -0.548637
1444.82421875 1.399696 0.925761 -0.473935
1445.578125 1.348244 0.903915 -0.444329
1446.3046875 1.29182 0.855303 -0.436517
1447.03125 1.357351 0.86 -0.497351
1447.7578125 1.381182 0.888619 -0.492563
1448.515625 1.296887 0.862706 -0.434181
1449.2421875 1.272369 0.8537 -0.418669
1449.94921875 1.31335 0.837532 -0.475818
1450.66796875 1.319768 0.841806 -0.477962
1451.390625 1.373872 0.85849 -0.515382
1452.125 1.364862 0.87 -0.494862
1452.8671875 1.283097 0.823464 -0.459633
1453.59375 1.270551 0.796689 -0.473862
1454.30859375 1.307021 0.838167 -0.468854
1455.05078125 1.322088 0.797628 -0.52446
1455.80859375 1.296452 0.807442 -0.48901
1456.2890625 1.585444 -0.049556 -1.635
1457.2890625 1.303827 0.864598 -0.439229
1458.01953125 1.3148900000000001 0.829976 -0.484914
1458.7578125 1.336694 0.824368 -0.512326
1459.4921875 1.280111 0.840111 -0.44
1460.2578125 1.272311 0.825 -0.447311
1460.7421875 1.556743 -0.064539 -1.621282
1461.5546875 1.4135060000000002 -0.001245 -1.414751
1461.8359375 2.0840810000000003 0.66933 -1.414751
1462.1015625 2.132657 1.395514 -0.737143
1462.46484375 1.389361 -0.225639 -1.615
1462.734375 2.008184 0.613418 -1.394766
1463.04296875 1.872171 0.315749 -1.556422
1463.26953125 1.9675120000000001 0.414964 -1.552548
1463.56640625 1.87 0.415 -1.455
1463.859375 0.352314 0.347314 -0.0050
1464.16015625 1.947267 0.507267 -1.44
1464.44140625 1.849228 0.439766 -1.409462
1464.73828125 1.895459 0.415 -1.480459
1465.29296875 1.2262870000000001 0.705151 -0.521136
1465.95703125 0.859244 -0.150729 -1.009973
1466.609375 1.488042 -0.091958 -1.58
1467.3203125 1.423851 -0.041149 -1.465
1467.984375 1.365458 -0.134542 -1.5
1468.671875 1.4138519999999999 -0.145299 -1.559151
1469.3125 1.378561 -0.246429 -1.62499
1470.203125 1.368186 -0.246814 -1.615
1470.99609375 1.3446310000000001 -0.175369 -1.52
1471.58203125 1.325 -0.225 -1.55
1472.36328125 1.326093 -0.226864 -1.552957
1473.0859375 1.348852 -0.220159 -1.569011
1473.6015625 1.381234 -0.220514 -1.601748
1473.87890625 1.987288 0.35286 -1.634428
1474.71484375 1.236074 0.66779 -0.568284
1475.24609375 1.217391 0.718115 -0.499276
1476.09375 1.217759 0.718019 -0.49974
1476.71484375 1.441612 -0.027927 -1.469539
1477.24609375 1.431722 -0.115934 -1.547656
1477.51171875 1.9849999999999999 0.47 -1.515
1478.29296875 1.204961 0.68051 -0.524451
1479.01171875 1.278276 0.718276 -0.56
1479.7421875 1.308147 0.7937 -0.514447
1480.48046875 1.314937 0.784937 -0.53
1481.22265625 1.34696 0.797917 -0.549043
1481.96484375 1.250922 0.7714 -0.479522
1482.703125 1.266884 0.795793 -0.471091
1483.4296875 1.242302 0.777129 -0.465173
1483.88671875 1.429387 -0.100613 -1.53
1484.91796875 1.384261 0.874505 -0.509756
1485.6484375 1.353393 0.86456 -0.488833
1486.36328125 1.312526 0.823364 -0.489162
1487.1015625 1.301177 0.814467 -0.48671
1487.828125 1.278198 0.779301 -0.498897
1488.56640625 1.3241619999999998 0.769447 -0.554715
1489.2890625 1.351832 0.793421 -0.558411
1490.0078125 1.315657 0.81 -0.505657
1490.7265625 1.304256 0.798434 -0.505822
1491.484375 1.3211089999999999 0.807016 -0.514093
1492.21875 1.2963330000000002 0.764271 -0.532062
1492.92578125 1.383335 0.822363 -0.560972
1493.6484375 1.2124540000000001 0.762947 -0.449507
1494.375 1.164382 0.715 -0.449382
1495.10546875 1.184879 0.724879 -0.46
1495.83203125 1.2763499999999999 0.781829 -0.494521
1496.54296875 1.252735 0.766974 -0.485761
1497.25390625 1.219365 0.771869 -0.447496
1497.96484375 1.1447379999999998 0.721752 -0.422986
1498.7109375 1.15479 0.749839 -0.404951
1499.4296875 1.323463 0.83829 -0.485173
1500.13671875 1.290507 0.821377 -0.46913
1500.859375 1.313126 0.858493 -0.454633
1501.59375 1.291522 0.854223 -0.437299
1502.328125 1.314146 0.874828 -0.439318
1503.078125 1.338377 0.859071 -0.479306
1503.8046875 1.344196 0.854739 -0.489457
1504.5390625 1.34397 0.90988 -0.43409
1505.28125 1.316859 0.871756 -0.445103
1506.04296875 1.276856 0.852218 -0.424638
1506.78125 1.3215240000000001 0.822779 -0.498745
1507.49609375 1.438132 0.849565 -0.588567
1508.22265625 1.382327 0.839873 -0.542454
1508.94921875 1.340585 0.861654 -0.478931
1509.68359375 1.300873 0.878246 -0.422627
1510.42578125 1.461046 0.972172 -0.488874
1511.14453125 1.362127 0.936544 -0.425583
1511.859375 1.398758 0.9704 -0.428358
1512.59765625 1.383805 0.923998 -0.459807
1513.34765625 1.328996 0.895238 -0.433758
1514.0859375 1.409753 0.864785 -0.544968
1514.79296875 1.354654 0.859221 -0.495433
1515.515625 1.35633 0.897627 -0.458703
1516.25390625 1.369085 0.88922 -0.479865
1516.9921875 1.387809 0.89568 -0.492129
1517.7421875 1.425753 0.871658 -0.554095
1518.4609375 1.454617 0.909648 -0.544969
1519.17578125 1.326968 0.857498 -0.46947
1519.91796875 1.3332169999999999 0.869284 -0.463933
1520.66015625 1.3901430000000001 0.898718 -0.491425
1521.390625 1.379686 0.880971 -0.498715
1522.1015625 1.448858 0.925665 -0.523193
1522.83984375 1.41541 0.919281 -0.496129
1523.56640625 1.413654 0.918748 -0.494906
1524.3203125 1.3643969999999999 0.894493 -0.469904
1525.06640625 1.443912 0.938912 -0.505
1525.81640625 1.4557769999999999 0.941708 -0.514069
1526.53515625 1.435736 0.922836 -0.5129
1527.296875 1.407094 0.968021 -0.439073
1528.05859375 1.325329 0.889953 -0.435376
1528.80078125 1.402201 0.909399 -0.492802
1529.546875 1.456464 0.882073 -0.574391
1530.2890625 1.3960240000000002 0.891132 -0.504892
1531.03515625 1.394484 0.92 -0.474484
1531.796875 1.357168 0.882216 -0.474952
1532.54296875 1.394038 0.872001 -0.522037
1533.28515625 1.404143 0.885538 -0.518605
1534.0234375 1.400176 0.871645 -0.528531
1534.796875 1.3200379999999998 0.862234 -0.457804
1535.55078125 1.370372 0.903644 -0.466728
1536.28125 1.348071 0.893445 -0.454626
1537.03125 1.3573469999999999 0.863 -0.494347
1537.76953125 1.4304679999999999 0.870575 -0.559893
1538.515625 1.348603 0.859619 -0.488984
1539.2890625 1.352454 0.869362 -0.483092
1540.02734375 1.310421 0.849726 -0.460695
1540.76171875 1.383031 0.852959 -0.530072
1541.51171875 1.437578 0.871232 -0.566346
1542.25390625 1.394463 0.837622 -0.556841
1542.984375 1.363167 0.802214 -0.560953
1543.703125 1.29806 0.771349 -0.526711
1544.4296875 1.353399 0.798928 -0.554471
1545.14453125 1.41977 0.849907 -0.569863
1545.875 1.359891 0.835 -0.524891
1546.59765625 1.333866 0.835488 -0.498378
1547.3203125 1.353723 0.83935 -0.514373
1548.0390625 1.323001 0.820587 -0.502414
1548.78125 1.411794 0.868286 -0.543508
1549.51953125 1.399522 0.88989 -0.509632
1550.25 1.334905 0.84 -0.494905
1550.984375 1.347079 0.856977 -0.490102
1551.734375 1.345658 0.855898 -0.48976
1552.4765625 1.362067 0.862937 -0.49913
1553.2265625 1.302756 0.840598 -0.462158
1553.96484375 1.3102800000000001 0.84528 -0.465
1554.70703125 1.306968 0.826334 -0.480634
1555.4375 1.321305 0.816842 -0.504463
1556.19921875 1.408019 0.90835 -0.499669
1556.9296875 1.329442 0.882129 -0.447313
1557.65234375 1.328526 0.876407 -0.452119
1558.3671875 1.310587 0.843458 -0.467129
1559.09765625 1.356235 0.88143 -0.474805
1559.828125 1.3887010000000002 0.863701 -0.525
1560.578125 1.299682 0.88217 -0.417512
1561.296875 1.334283 0.874382 -0.459901
1562.015625 1.2491780000000001 0.789319 -0.459859
1562.75 1.324943 0.845 -0.479943
1563.5 1.4498790000000001 0.87 -0.579879
1564.23828125 1.371797 0.899219 -0.472578
1564.94921875 1.302489 0.867675 -0.434814
1565.67578125 1.314894 0.857363 -0.457531
1566.40625 1.394874 0.908137 -0.486737
1567.1484375 1.330366 0.812959 -0.517407
1567.89453125 1.40332 0.879766 -0.523554
1568.625 1.314375 0.85 -0.464375
1569.33984375 1.26562 0.812293 -0.453327
1570.0859375 1.254943 0.844955 -0.409988
1570.82421875 1.387008 0.871276 -0.515732
1571.5625 1.3959920000000001 0.910887 -0.485105
1572.28515625 1.164318 0.80448 -0.359838
1573.01953125 1.273398 0.879197 -0.394201
1573.7578125 1.332075 0.893381 -0.438694
1574.50390625 1.307744 0.866672 -0.441072
1575.25390625 1.371121 0.913223 -0.457898
1575.99609375 1.387137 0.936066 -0.451071
1576.7265625 1.276806 0.876806 -0.4
1577.48828125 1.24035 0.863739 -0.376611
1578.234375 1.227827 0.838484 -0.389343
1578.98046875 1.2948629999999999 0.894863 -0.4
1579.71484375 1.358166 0.913932 -0.444234
1580.46875 1.3984809999999999 0.945329 -0.453152
1581.19921875 1.286998 0.873754 -0.413244
1581.94921875 1.3446500000000001 0.905344 -0.439306
1582.68359375 1.3195130000000002 0.873167 -0.446346
1583.41796875 1.361254 0.869587 -0.491667
1584.140625 1.37121 0.893477 -0.477733
1584.8984375 1.3254540000000001 0.881931 -0.443523
1585.63671875 1.3289819999999999 0.882841 -0.446141
1586.3515625 1.342968 0.883473 -0.459495
1587.08203125 1.380264 0.88463 -0.495634
1587.80859375 1.454767 0.924954 -0.529813
1588.55859375 1.3564180000000001 0.937938 -0.41848
1589.3046875 1.348168 0.924639 -0.423529
1590.03125 1.34424 0.937503 -0.406737
1590.75390625 1.376789 0.939146 -0.437643
1591.4921875 1.374732 0.92 -0.454732
1592.25390625 1.368084 0.945186 -0.422898
1592.984375 1.308109 0.922219 -0.38589
1593.703125 1.179692 0.82 -0.359692
1594.4296875 1.241184 0.861011 -0.380173
1595.1640625 1.274043 0.846619 -0.427424
1595.90234375 1.281704 0.847432 -0.434272
1596.6484375 1.2302359999999999 0.856586 -0.37365
1597.3828125 1.2439939999999998 0.864609 -0.379385
1598.1015625 1.157773 0.81292 -0.344853
1598.8515625 1.230786 0.861663 -0.369123
1599.609375 1.375086 0.946604 -0.428482
1600.3515625 1.443899 1.000741 -0.443158
1601.078125 1.357393 0.981951 -0.375442
1601.8203125 1.3173819999999998 0.959301 -0.358081
1602.55078125 1.2272500000000002 0.877399 -0.349851
1603.296875 1.3416860000000002 0.947443 -0.394243
1604.046875 1.331136 0.91 -0.421136
1604.77734375 1.3122120000000002 0.929941 -0.382271
1605.5 1.319912 0.935 -0.384912
1606.2421875 1.361336 0.923444 -0.437892
1606.97265625 1.408122 0.893785 -0.514337
1607.69921875 1.361194 0.943538 -0.417656
1608.42578125 1.364201 0.892372 -0.471829
1609.15625 1.345305 0.880305 -0.465
1609.88671875 1.4144070000000002 0.909749 -0.504658
1610.62109375 1.4287619999999999 0.900419 -0.528343
1611.35546875 1.384826 0.909826 -0.475
1612.08984375 1.357805 0.90868 -0.449125
1612.81640625 1.306189 0.876784 -0.429405
1613.56640625 1.3793009999999999 0.90943 -0.469871
1614.29296875 1.416127 0.905229 -0.510898
1615.01953125 1.404947 0.909995 -0.494952
1615.73828125 1.396601 0.91709 -0.479511
1616.4765625 1.3644189999999998 0.869659 -0.49476
1617.1953125 1.474429 0.965217 -0.509212
1617.9296875 1.416377 0.987256 -0.429121
1618.6484375 1.342825 0.969007 -0.373818
1619.37109375 1.353625 0.969361 -0.384264
1620.08984375 1.376168 0.975 -0.401168
1620.83203125 1.378759 0.951464 -0.427295
1621.5625 1.395962 0.962754 -0.433208
1622.26953125 1.424389 0.959977 -0.464412
1622.99609375 1.369847 0.936306 -0.433541
1623.73046875 1.449869 0.924869 -0.525
1624.46484375 1.453416 0.954171 -0.499245
1625.20703125 1.3236919999999999 0.879639 -0.444053
1625.9296875 1.344212 0.887363 -0.456849
1626.65234375 1.350682 0.874574 -0.476108
1627.37890625 1.3976790000000001 0.886088 -0.511591
1628.1328125 1.445408 0.905996 -0.539412
1628.8671875 1.389578 0.914186 -0.475392
1629.58203125 1.365485 0.936167 -0.429318
1630.3046875 1.371369 0.867183 -0.504186
1631.03515625 1.427388 0.860954 -0.566434
1631.76953125 1.406309 0.856309 -0.55
1632.5234375 1.322691 0.842739 -0.479952
1633.25390625 1.312918 0.846476 -0.466442
1633.9765625 1.354617 0.835536 -0.519081
1634.7265625 1.2893210000000002 0.764321 -0.525
1635.484375 1.3509 0.77501 -0.57589
1636.23828125 1.401834 0.83268 -0.569154
1636.96484375 1.3397640000000002 0.798317 -0.541447
1637.69921875 1.321145 0.774381 -0.546764
1638.43359375 1.39191 0.823238 -0.568672
1639.17578125 1.390414 0.828794 -0.56162
1639.9140625 1.3790339999999999 0.834957 -0.544077
1640.6484375 1.352384 0.802488 -0.549896
1641.359375 1.283536 0.777751 -0.505785
1642.10546875 1.35488 0.81488 -0.54
1642.83203125 1.330315 0.806329 -0.523986
1643.55859375 1.277399 0.799795 -0.477604
1644.28125 1.311633 0.82993 -0.481703
1645.01171875 1.37074 0.844909 -0.525831
1645.74609375 1.336538 0.793135 -0.543403
1646.484375 1.322695 0.797695 -0.525
1647.22265625 1.272387 0.754254 -0.518133
1647.9609375 1.304481 0.754492 -0.549989
1648.703125 1.340908 0.772732 -0.568176
1649.46875 1.3327779999999998 0.758033 -0.574745
1650.2109375 1.330186 0.749901 -0.580285
1650.94140625 1.24949 0.714511 -0.534979
1651.4921875 1.4949999999999999 -0.175 -1.67
1652.4140625 1.308473 0.788582 -0.519891
1653.15625 1.342856 0.760526 -0.58233
1653.90625 1.3224930000000001 0.754595 -0.567898
1654.625 1.349877 0.78 -0.569877
1655.3515625 1.303138 0.735115 -0.568023
1656.0859375 1.277403 0.732591 -0.544812
1656.8515625 1.3268620000000002 0.777391 -0.549471
1657.5859375 1.404669 0.799674 -0.604995
1658.30859375 1.291524 0.743575 -0.547949
1659.05078125 1.296581 0.722699 -0.573882
1659.78515625 1.259846 0.669851 -0.589995
1660.54296875 1.3127149999999999 0.713321 -0.599394
1661.29296875 1.356336 0.734663 -0.621673
1662.03125 1.326607 0.749038 -0.577569
1662.75390625 1.305568 0.732813 -0.572755
1663.50390625 1.236221 0.713996 -0.522225
1664.25390625 1.352209 0.756306 -0.595903
1664.984375 1.3366440000000002 0.792124 -0.54452
1665.703125 1.269476 0.795123 -0.474353
1666.4296875 1.277758 0.793311 -0.484447
1667.1640625 1.271654 0.79913 -0.472524
1667.90625 1.288457 0.794884 -0.493573
1668.640625 1.328897 0.82263 -0.506267
1669.37890625 1.268379 0.804167 -0.464212
1670.109375 1.240679 0.809295 -0.431384
1670.875 1.324946 0.86 -0.464946
1671.61328125 1.356169 0.869258 -0.486911
1672.35546875 1.330843 0.824995 -0.505848
1673.08984375 1.324708 0.855474 -0.469234
1673.84375 1.298997 0.79931 -0.499687
1674.58984375 1.314731 0.775489 -0.539242
1675.34375 1.317157 0.765461 -0.551696
1676.07421875 1.3532899999999999 0.801559 -0.551731
1676.8046875 1.371261 0.8177 -0.553561
1677.5390625 1.324176 0.823321 -0.500855
1678.29296875 1.341297 0.846441 -0.494856
1679.03125 1.3606880000000001 0.865 -0.495688
1679.75 1.394369 0.875 -0.519369
1680.4921875 1.342378 0.857651 -0.484727
1681.21875 1.303669 0.812537 -0.491132
1681.96875 1.324835 0.800173 -0.524662
1682.30859375 1.516171 -0.128829 -1.645
1682.578125 2.185853 0.540853 -1.645
1683.44140625 1.464633 0.934654 -0.529979
1684.1640625 1.413951 0.874675 -0.539276
1684.68359375 1.505242 -0.128779 -1.634021
1685.63671875 1.359661 0.910054 -0.449607
1686.36328125 1.3845420000000002 0.865155 -0.519387
1687.07421875 1.472088 0.927088 -0.545
1687.7890625 1.418714 0.89446 -0.524254
1688.50390625 1.400215 0.905 -0.495215
1689.23046875 1.386856 0.905853 -0.481003
1689.6796875 1.539131 -0.06444 -1.603571
1690.671875 1.50708 0.999729 -0.507351
1691.3828125 1.402261 0.92317 -0.479091
1692.12109375 1.374828 0.92723 -0.447598
1692.86328125 1.375991 0.886385 -0.489606
1693.58984375 1.233545 0.782695 -0.45085
1694.30078125 1.37268 0.84768 -0.525
1695.0234375 1.325789 0.873847 -0.451942
1695.7421875 1.292266 0.835162 -0.457104
1696.484375 1.253668 0.813715 -0.439953
1697.22265625 1.356208 0.833754 -0.522454
1697.94921875 1.311089 0.773194 -0.537895
1698.65625 1.224275 0.776362 -0.447913
1699.3984375 1.311001 0.845186 -0.465815
1700.13671875 1.367413 0.872759 -0.494654
1700.8671875 1.35517 0.854188 -0.500982
1701.5859375 1.3990749999999998 0.857208 -0.541867
1702.3046875 1.383823 0.89726 -0.486563
1703.02734375 1.2825280000000001 0.85643 -0.426098
1703.7578125 1.28222 0.839548 -0.442672
1704.5 1.31439 0.86 -0.45439
1705.23046875 1.384918 0.924918 -0.46
1705.94140625 1.398533 0.89381 -0.504723
1706.68359375 1.297531 0.833882 -0.463649
1707.41796875 1.32206 0.836435 -0.485625
1708.15234375 1.362533 0.863243 -0.49929
1708.875 1.374921 0.85 -0.524921
1709.59765625 1.352847 0.869207 -0.48364
1710.31640625 1.329608 0.894652 -0.434956
1711.05859375 1.366227 0.928158 -0.438069
1711.53515625 1.549164 -0.043517 -1.592681
1712.515625 1.395137 0.91617 -0.478967
1713.2265625 1.3683999999999998 0.879446 -0.488954
1713.96875 1.311096 0.867252 -0.443844
1714.69140625 1.3668690000000001 0.884847 -0.482022
1715.4140625 1.378309 0.884246 -0.494063
1716.125 1.388912 0.885 -0.503912
1716.85546875 1.4348930000000002 0.894893 -0.54
1717.5859375 1.3947 0.839748 -0.554952
1718.31640625 1.364184 0.849307 -0.514877
1719.0546875 1.365669 0.833346 -0.532323
1719.7890625 1.3659 0.83614 -0.52976
1720.52734375 1.4302839999999999 0.886519 -0.543765
1721.27734375 1.409632 0.866251 -0.543381
1722.01953125 1.3848120000000002 0.874989 -0.509823
1722.75 1.3550499999999999 0.875 -0.48005
1723.48046875 1.3349609999999998 0.849961 -0.485
1724.2265625 1.37494 0.860101 -0.514839
1724.9609375 1.390666 0.874875 -0.515791
1725.703125 1.333053 0.859176 -0.473877
1726.4296875 1.3373659999999998 0.843471 -0.493895
1727.16015625 1.363204 0.843863 -0.519341
1727.8984375 1.404968 0.87302 -0.531948
1728.65625 1.411812 0.855059 -0.556753
1729.39453125 1.399518 0.874934 -0.524584
1730.125 1.344916 0.825 -0.519916
1730.8671875 1.3302360000000002 0.824428 -0.505808
1731.6015625 1.3845480000000001 0.862947 -0.521601
1732.359375 1.4050319999999998 0.867234 -0.537798
1733.11328125 1.325425 0.848127 -0.477298
1733.85546875 1.329804 0.834804 -0.495
1734.58203125 1.272199 0.777149 -0.49505
1735.33203125 1.389408 0.811361 -0.578047
1736.0859375 1.379371 0.804468 -0.574903
1736.828125 1.328643 0.799918 -0.528725
1737.55078125 1.190273 0.74148 -0.448793
1738.28515625 1.206931 0.748932 -0.457999
1739.015625 1.270309 0.785117 -0.485192
1739.75390625 1.324892 0.818885 -0.506007
1740.48828125 1.290513 0.79552 -0.494993
1741.21484375 1.254828 0.775613 -0.479215
1741.94140625 1.247801 0.755867 -0.491934
1742.69921875 1.332173 0.809673 -0.5225
1743.421875 1.3214139999999999 0.822425 -0.498989
1744.15234375 1.296204 0.806802 -0.489402
1744.875 1.298591 0.785 -0.513591
1745.61328125 1.306485 0.773493 -0.532992
1746.3515625 1.306454 0.824375 -0.482079
1747.08984375 1.2968380000000002 0.835142 -0.461696
1747.8203125 1.31303 0.882971 -0.430059
1748.55078125 1.307607 0.864008 -0.443599
1749.28125 1.297714 0.852278 -0.445436
1750.03515625 1.358362 0.865641 -0.492721
1750.7578125 1.332329 0.848652 -0.483677
1751.4765625 1.294034 0.844908 -0.449126
1752.20703125 1.273879 0.828879 -0.445
1752.9375 1.264728 0.811544 -0.453184
1753.67578125 1.2882449999999999 0.849725 -0.43852
1754.41015625 1.4145539999999999 0.891654 -0.5229
1755.13671875 1.3124580000000001 0.831304 -0.481154
1755.859375 1.3081990000000001 0.843686 -0.464513
1756.60546875 1.339928 0.849928 -0.49
1757.3515625 1.351079 0.83786 -0.513219
1758.08203125 1.406511 0.864705 -0.541806
1758.80078125 1.315294 0.831246 -0.484048
1759.53125 1.306632 0.818103 -0.488529
1760.2578125 1.275817 0.794081 -0.481736
1760.9921875 1.37173 0.88568 -0.48605
1761.73046875 1.364909 0.869909 -0.495
1762.44921875 1.345514 0.864584 -0.48093
1763.1640625 1.270946 0.826126 -0.44482
1763.8984375 1.25133 0.7926 -0.45873
1764.64453125 1.405157 0.850298 -0.554859
1765.3671875 1.367561 0.871868 -0.495693
1766.078125 1.369549 0.913203 -0.456346
1766.80859375 1.2873329999999998 0.866991 -0.420342
1767.5390625 1.303818 0.889412 -0.414406
1768.2890625 1.389527 0.919852 -0.469675
1769.0234375 1.33763 0.895719 -0.441911
1769.76171875 1.321383 0.917125 -0.404258
1770.4921875 1.2986119999999999 0.867389 -0.431223
1771.25 1.329138 0.885 -0.444138
1771.98046875 1.434868 0.929868 -0.505
1772.71484375 1.38525 0.88537 -0.49988
1773.4296875 1.343008 0.929165 -0.413843
1774.16015625 1.362717 0.922717 -0.44
1774.88671875 1.403449 0.951168 -0.452281
1775.62109375 1.37777 0.901816 -0.475954
1776.34375 1.253546 0.823546 -0.43
1777.0625 1.073038 0.700841 -0.372197
1777.78125 1.155658 0.686056 -0.469602
1778.53515625 1.3441290000000001 0.80644 -0.537689
1779.27734375 1.402209 0.802484 -0.599725
1780.0078125 1.3675009999999999 0.824788 -0.542713
1780.7421875 1.32071 0.78418 -0.53653
1781.48828125 1.364495 0.812878 -0.551617
1782.2421875 1.423219 0.857169 -0.56605
1782.9921875 1.493303 0.881621 -0.611682
1783.734375 1.4484620000000001 0.915093 -0.533369
1784.46875 1.412162 0.927692 -0.48447
1785.21484375 1.378467 0.869014 -0.509453
1785.9765625 1.404064 0.862926 -0.541138
1786.7109375 1.428949 0.854068 -0.574881
1787.43359375 1.472278 0.898973 -0.573305
1788.1640625 1.382851 0.898939 -0.483912
1788.89453125 1.414866 0.924977 -0.489889
1789.64453125 1.4295710000000001 0.924902 -0.504669
1790.38671875 1.44864 0.945761 -0.502879
1791.125 1.419981 0.935 -0.484981
1791.859375 1.3864779999999999 0.92708 -0.459398
1792.62109375 1.369846 0.898921 -0.470925
1793.37890625 1.337908 0.866317 -0.471591
1794.1171875 1.354515 0.876659 -0.477856
1794.84375 1.344165 0.906663 -0.437502
1795.58984375 1.318924 0.898732 -0.420192
1796.328125 1.293334 0.868208 -0.425126
1797.07421875 1.295723 0.820129 -0.475594
1797.8046875 1.286157 0.809459 -0.476698
1798.53515625 1.271167 0.821267 -0.4499
1799.265625 1.4061620000000001 0.898926 -0.507236
1800.0234375 1.374171 0.869618 -0.504553
1800.75390625 1.431556 0.876484 -0.555072
1801.48046875 1.409199 0.849199 -0.56
1802.20703125 1.3393899999999999 0.796464 -0.542926
1802.9453125 1.376948 0.842587 -0.534361
1803.6875 1.3444980000000002 0.806301 -0.538197
1804.43359375 1.4741279999999999 0.844954 -0.629174
