1 
211 
424 
640 
851 
1068 
1280 
1496 
1712 
1925 
2140 
2357 
2565 
2779 
2992 
3210 
3424 
3634 
3853 
4071 
4279 
4496 
4709 
4925 
5140 
5347 
5563 
5779 
5990 
6203 
6415 
6632 
6842 
7053 
7269 
7481 
7693 
7910 
8122 
8339 
8550 
8760 
8980 
9196 
9406 
9624 
9836 
10054 
10267 
10480 
10702 
10915 
11124 
11339 
11550 
11759 
11968 
12178 
12392 
12605 
12744 
12993 
13213 
13434 
13653 
13871 
14096 
14315 
14525 
14736 
14955 
15170 
15379 
15594 
15809 
16019 
16232 
16448 
16667 
16884 
17097 
17319 
17537 
17750 
17967 
18184 
18402 
18619 
18836 
19055 
19274 
19490 
19705 
19927 
20143 
20355 
20575 
20791 
21001 
21214 
21424 
21638 
21850 
22055 
22275 
22494 
22704 
22918 
23129 
23344 
23556 
23765 
23981 
24193 
24401 
24613 
24825 
25045 
25263 
25479 
25702 
25921 
26136 
26354 
26575 
26795 
27012 
27233 
27452 
27668 
27888 
28104 
28324 
28541 
28756 
28978 
29192 
29403 
29623 
29838 
30054 
30266 
30477 
30696 
30911 
31122 
31337 
31555 
31773 
31986 
32200 
32420 
32637 
32849 
33060 
33273 
33488 
33698 
33909 
34128 
34342 
34556 
34768 
34985 
35204 
35418 
35635 
35852 
36064 
36276 
36490 
36705 
36921 
37135 
37351 
37570 
37782 
37999 
38219 
38437 
38649 
38860 
39080 
39297 
39507 
39719 
39935 
40153 
40365 
40578 
40799 
41014 
41226 
41442 
41657 
41871 
42085 
42298 
42511 
42723 
42933 
43149 
43368 
43581 
43795 
44018 
44234 
44447 
44659 
44875 
45096 
45305 
45516 
45736 
45950 
46161 
46373 
46587 
46805 
47018 
47232 
47453 
47665 
47876 
48088 
48303 
48518 
48729 
48944 
49161 
49373 
49586 
49801 
50016 
50230 
50443 
50660 
50872 
51081 
51295 
51508 
51723 
51934 
52143 
52366 
52584 
52794 
53011 
53226 
53446 
53660 
53868 
54091 
54310 
54522 
54738 
54954 
55176 
55391 
55606 
55827 
56047 
56260 
56478 
56698 
56914 
57131 
57351 
57575 
57797 
58020 
58240 
58464 
58678 
58890 
59118 
59337 
59555 
59776 
59994 
60221 
60444 
60665 
60892 
61115 
61339 
61566 
61800 
62029 
62257 
62495 
62723 
62944 
63168 
63395 
63621 
63842 
64068 
64290 
64507 
64727 
64943 
65166 
65383 
65603 
65829 
66051 
66271 
66490 
66712 
66935 
67152 
67374 
67596 
67814 
68039 
68260 
68483 
68706 
68930 
69157 
69380 
69604 
69830 
70067 
70299 
70533 
70782 
71016 
71248 
71482 
71715 
71949 
72174 
72410 
72636 
72858 
73081 
73302 
73527 
73747 
73966 
74189 
74408 
74621 
74842 
75066 
75283 
75501 
75730 
75955 
76176 
76395 
76619 
76846 
77065 
77289 
77518 
77741 
77963 
78186 
78406 
78623 
78837 
79053 
79273 
79484 
79702 
79921 
80143 
80361 
80574 
80792 
81013 
81226 
81436 
81578 
81830 
82051 
82270 
82467 
82574 
82803 
83032 
83246 
83464 
83685 
83901 
84127 
84349 
84568 
84788 
85002 
85219 
85432 
85566 
85824 
86054 
86267 
86482 
86697 
86912 
87124 
87336 
87551 
87763 
87972 
88183 
88397 
88610 
88819 
89034 
89251 
89468 
89689 
89915 
90152 
90380 
90603 
90835 
91057 
91274 
91499 
91723 
91944 
92163 
92390 
92618 
92841 
93064 
93289 
93519 
93747 
93985 
94230 
94466 
94702 
94932 
95167 
95399 
95629 
95858 
96084 
96312 
96538 
96769 
96996 
97219 
97450 
97673 
97890 
98116 
98339 
98559 
98780 
99005 
99229 
99454 
99679 
99900 
100129 
100353 
100575 
100805 
101027 
101248 
101470 
101688 
101909 
102123 
102336 
102555 
102691 
102932 
103153 
103372 
103591 
103801 
104007 
104218 
104422 
104568 
104719 
104832 
105064 
105272 
105429 
105534 
105632 
105791 
106022 
106243 
106382 
106482 
106580 
106690 
106899 
107140 
107269 
107375 
107473 
107762 
107995 
108226 
108414 
108680 
108913 
109155 
109385 
109607 
109835 
110064 
110290 
110430 
110532 
110698 
110974 
111216 
111454 
111691 
111930 
112165 
112403 
112600 
112874 
113111 
113344 
113576 
113799 
114027 
114257 
114480 
114713 
114939 
115168 
115389 
115607 
115830 
116048 
116259 
116480 
116704 
116929 
117156 
117385 
117612 
117841 
118071 
118299 
118533 
118761 
118991 
119221 
119442 
119671 
119895 
120125 
120354 
120580 
120819 
121052 
121287 
121526 
121760 
121993 
122218 
122453 
122682 
122903 
123134 
123374 
123605 
123833 
124071 
124308 
124540 
124770 
125000 
125234 
125463 
125696 
125935 
126163 
126401 
126637 
126875 
127109 
127343 
127587 
127826 
128070 
128309 
128548 
128782 
129018 
129261 
129500 
129741 
129983 
130225 
130456 
130693 
130934 
131170 
131403 
131634 
131872 
132101 
132330 
132570 
132799 
133034 
133267 
133505 
133734 
133965 
134204 
134429 
134651 
134885 
135125 
135365 
135602 
135845 
136086 
136324 
136564 
136805 
137043 
137274 
137515 
137745 
137977 
138210 
138446 
138677 
138907 
139147 
139384 
139615 
139852 
140087 
140322 
140556 
140797 
141029 
141255 
141483 
141724 
141955 
142181 
142352 
142618 
142856 
143082 
143311 
143544 
143771 
144002 
144235 
144464 
144695 
144926 
145159 
145391 
145620 
145857 
146088 
146317 
146551 
146783 
147006 
147231 
147465 
147696 
147925 
148157 
148396 
148636 
148872 
149118 
149359 
149595 
149828 
150066 
150305 
150536 
150775 
151015 
151247 
151481 
151719 
151957 
152194 
152437 
152677 
152911 
153149 
153388 
153623 
153860 
154102 
154339 
154574 
154810 
155048 
155286 
155517 
155756 
155994 
156221 
156452 
156677 
156911 
157132 
157354 
157585 
157809 
158035 
158253 
158485 
158706 
158926 
159153 
159293 
159541 
159757 
159976 
160193 
160340 
160582 
160807 
161025 
161239 
161455 
161680 
161906 
162121 
162254 
162356 
162582 
162812 
163038 
163184 
163451 
163681 
163909 
164139 
164364 
164591 
164823 
164959 
165062 
165170 
165295 
165474 
165749 
165982 
166104 
166207 
166312 
166551 
166807 
167041 
167281 
167523 
167754 
167994 
168230 
168473 
168719 
168963 
169206 
169448 
169694 
169934 
170177 
170413 
170649 
170886 
171123 
171374 
171617 
171858 
172101 
172348 
172594 
172838 
173085 
173333 
173580 
173823 
174079 
174324 
174561 
174804 
175049 
175299 
175536 
175779 
176024 
176267 
176511 
176758 
177002 
177247 
177494 
177738 
177984 
178235 
178486 
178730 
178978 
179227 
179467 
179712 
179957 
180204 
180443 
180688 
180932 
181170 
181410 
181656 
181896 
182136 
182382 
182633 
182877 
183125 
183382 
183625 
183864 
184115 
184355 
184590 
184820 
185060 
185288 
185520 
185759 
185984 
186217 
186451 
186685 
186917 
187149 
187387 
187619 
187843 
188075 
188312 
188543 
188772 
189013 
189249 
189476 
189703 
189945 
190182 
190417 
190668 
190916 
191154 
191396 
191638 
191881 
192118 
192361 
192592 
192821 
193057 
193296 
193537 
193780 
194029 
194274 
194513 
194759 
195006 
195247 
195483 
195730 
195967 
196200 
196436 
196677 
196917 
197149 
197393 
197628 
197865 
198102 
198337 
198572 
198806 
199051 
199288 
199521 
199755 
199993 
200229 
200463 
200701 
200940 
201174 
201401 
201637 
201872 
202097 
202329 
202563 
202799 
203033 
203276 
203523 
203758 
204006 
204245 
204474 
204711 
204953 
205187 
205418 
205663 
205907 
206141 
206381 
206623 
206866 
207105 
207351 
207590 
207824 
208057 
208292 
208520 
208742 
208980 
209209 
209438 
209673 
209908 
210141 
210369 
210511 
210775 
211009 
211238 
211468 
211703 
211939 
212176 
212337 
212600 
212845 
213081 
213313 
213482 
213738 
213976 
214203 
214424 
214649 
214887 
215127 
215351 
215586 
215820 
216054 
216292 
216530 
216696 
216967 
217209 
217446 
217677 
217892 
218141 
218376 
218608 
218740 
218845 
219017 
219270 
219517 
219760 
220004 
220148 
220416 
220672 
220915 
221154 
221401 
221652 
221898 
222136 
222385 
222627 
222864 
223107 
223355 
223600 
223848 
224103 
224354 
224605 
224854 
225101 
225341 
225594 
225842 
226084 
226327 
226575 
226822 
227060 
227308 
227547 
227786 
228029 
228274 
228516 
228755 
228994 
229230 
229466 
229703 
229939 
230169 
230396 
230636 
230867 
231095 
231333 
231581 
231817 
232049 
232291 
232524 
232764 
232998 
233236 
233471 
233625 
233905 
234154 
234392 
234633 
234872 
235106 
235344 
235589 
235834 
236070 
236307 
236556 
236792 
237026 
237172 
237447 
237689 
237927 
238166 
238402 
238633 
238876 
239109 
239334 
239568 
239810 
240047 
240278 
240521 
240762 
241001 
241238 
241486 
241733 
241981 
242230 
242483 
242731 
242985 
243249 
243512 
243781 
244040 
244292 
244551 
244807 
245060 
245300 
245552 
245808 
246047 
246293 
246543 
246782 
247021 
247262 
247502 
247739 
247986 
248240 
248488 
248748 
249011 
249269 
249532 
249799 
250065 
250323 
250589 
250843 
251092 
251342 
251590 
251836 
252081 
252323 
252560 
252803 
253042 
253279 
253519 
253771 
254020 
254266 
254511 
254765 
255014 
255252 
255502 
255740 
255979 
256220 
256462 
256637 
256899 
257148 
257387 
257615 
257851 
258095 
258329 
258563 
258801 
259044 
259283 
259519 
259660 
259769 
260035 
260282 
260527 
260762 
260904 
261179 
261424 
261665 
261899 
262145 
262385 
262622 
262861 
263106 
263355 
263600 
263853 
264102 
264351 
264602 
264854 
265100 
265351 
265604 
265849 
266104 
266360 
266621 
266873 
267132 
267378 
267617 
267861 
268110 
268357 
268599 
268856 
269101 
269341 
269587 
269829 
270066 
270300 
270541 
270777 
271019 
271263 
271514 
271756 
272006 
272257 
272502 
272748 
272992 
273240 
273487 
273746 
273999 
274246 
274505 
274766 
275015 
275262 
275510 
275752 
275997 
276239 
276481 
276719 
276959 
277197 
277440 
277679 
277916 
278154 
278364 
278614 
278849 
279077 
279306 
279445 
279546 
279809 
280037 
280275 
280494 
280734 
280968 
281199 
281343 
281492 
281760 
282007 
282240 
282395 
282505 
282769 
283020 
283255 
283492 
283741 
283980 
284218 
284353 
284461 
284730 
284972 
285208 
285445 
285680 
285918 
286151 
286385 
286619 
286865 
287104 
287330 
287554 
287782 
288018 
288243 
288462 
288702 
288931 
289160 
289389 
289624 
289859 
290090 
290332 
290569 
290805 
291046 
291295 
291535 
291780 
292027 
292269 
292502 
292749 
293002 
293242 
293482 
293729 
293968 
294206 
294439 
294680 
294910 
295140 
295378 
295609 
295840 
296071 
296265 
296377 
296624 
296873 
297115 
297344 
297586 
297828 
298065 
298297 
298537 
298782 
299018 
299253 
299492 
299735 
299968 
300211 
300454 
300691 
300930 
301168 
301402 
301627 
301864 
302094 
302318 
302549 
302786 
303024 
303262 
303506 
303752 
303994 
304232 
304478 
304718 
304954 
305199 
305433 
305663 
305895 
306132 
306370 
306600 
306840 
307077 
307309 
307551 
307795 
308037 
308276 
308524 
308765 
309004 
309246 
309487 
309719 
309948 
310185 
310417 
310603 
310864 
311102 
311336 
311477 
311743 
311991 
312229 
312471 
312705 
312945 
313175 
313405 
313638 
313860 
314080 
314228 
314478 
314699 
314921 
315080 
315189 
315433 
315661 
315893 
316030 
316135 
316236 
316362 
316611 
316857 
317035 
317170 
317410 
317675 
317921 
318060 
318158 
318384 
318630 
318865 
319101 
319333 
319564 
319790 
319945 
320056 
320322 
320565 
320809 
321051 
321295 
321536 
321778 
322018 
322253 
322489 
322737 
322971 
323142 
323421 
323658 
323884 
324084 
324323 
324552 
324773 
324995 
325213 
325425 
325640 
325840 
325964 
326202 
326444 
326684 
326919 
327153 
327395 
327631 
327863 
328091 
328326 
328556 
328786 
329019 
329251 
329486 
329713 
329946 
330179 
330397 
330625 
330852 
331078 
331304 
331527 
331759 
331989 
332213 
332439 
332598 
332866 
333102 
333340 
333569 
333794 
334024 
334248 
334477 
334703 
334932 
335167 
335392 
335623 
335855 
336093 
336323 
336550 
336793 
337026 
337260 
337496 
337745 
337980 
338214 
338454 
338688 
338927 
339167 
339410 
339648 
339885 
340132 
340367 
340597 
340826 
341059 
341289 
341520 
341755 
341987 
342220 
342457 
342702 
342935 
343168 
343408 
343648 
343882 
344118 
344356 
344585 
344816 
345052 
345283 
345518 
345747 
345988 
346218 
346451 
346690 
346916 
347055 
347306 
347537 
347762 
347980 
348215 
348451 
348676 
348906 
349138 
349369 
349594 
349825 
350059 
350289 
350518 
350748 
350981 
351210 
351446 
351680 
351906 
352139 
352371 
352600 
352825 
353053 
353285 
353514 
353740 
353970 
354204 
354432 
354656 
354889 
355115 
355338 
355563 
355785 
355999 
356213 
356427 
356644 
356861 
357081 
357304 
357518 
357760 
357984 
358221 
358449 
358672 
358901 
359130 
359358 
359584 
359816 
360049 
360277 
360505 
360732 
360955 
361171 
361390 
361614 
361832 
362049 
362269 
362496 
362722 
362943 
363175 
363412 
363550 
363665 
363881 
364168 
364417 
364652 
364894 
365129 
365360 
365589 
365820 
366045 
366271 
366511 
366738 
366962 
367195 
367430 
367656 
367879 
368111 
368334 
368552 
368687 
368934 
369159 
369373 
369584 
369804 
370018 
370224 
370437 
370657 
370877 
371092 
371312 
371531 
371747 
371964 
372180 
372397 
372607 
372815 
373034 
373246 
373453 
373666 
373878 
374101 
374321 
374542 
374773 
374996 
375217 
375444 
375675 
375897 
376120 
376349 
376573 
376794 
377014 
377239 
377467 
377688 
377911 
378135 
378351 
378568 
378782 
379006 
379222 
379431 
379650 
379868 
380082 
380301 
380463 
380724 
380947 
381165 
381390 
381612 
381828 
382048 
382277 
382501 
382725 
382953 
383178 
383400 
383626 
383854 
384080 
384303 
384530 
384762 
384985 
385214 
385443 
385673 
385898 
386119 
386355 
386580 
386794 
387013 
387237 
387458 
387677 
387903 
388130 
388353 
388576 
388800 
389028 
389248 
389467 
389691 
389909 
390127 
390349 
390576 
390796 
391015 
391245 
391470 
391690 
391915 
392141 
392366 
392586 
392810 
393034 
393251 
393465 
393678 
393893 
394099 
394233 
394479 
394688 
394899 
395030 
395277 
395502 
395722 
395938 
396166 
396392 
396608 
396771 
396898 
397160 
397404 
397632 
397870 
398101 
398325 
398547 
398768 
398983 
399196 
399417 
399638 
399861 
400083 
400304 
400528 
400752 
400973 
401201 
401420 
401642 
401863 
402086 
402307 
402525 
402752 
402974 
403192 
403418 
403644 
403871 
404092 
404313 
404540 
404765 
404982 
405204 
405435 
405659 
405880 
406114 
406343 
406569 
406797 
407022 
407250 
407473 
407701 
407928 
408150 
408377 
408600 
408830 
409051 
409267 
409493 
409715 
409936 
410158 
410384 
410603 
410821 
411050 
411273 
411490 
411709 
411929 
412155 
412372 
412597 
412830 
413052 
413280 
413508 
413734 
413960 
414181 
414411 
414639 
414864 
415091 
415324 
415553 
415778 
416011 
416236 
416455 
416681 
416909 
417132 
417351 
417581 
417806 
418027 
418251 
418474 
418698 
418921 
419146 
419371 
419590 
419811 
420033 
420259 
420479 
420698 
420923 
421144 
421362 
421576 
421797 
422025 
422239 
422461 
422685 
422901 
423124 
423342 
423562 
423783 
424001 
424227 
424448 
424671 
424901 
425127 
425352 
425580 
425807 
426037 
426264 
426489 
426716 
426944 
427138 
427390 
427625 
427852 
428075 
428299 
428528 
428750 
428966 
429200 
429429 
429652 
429878 
430106 
430342 
430566 
430791 
431025 
431254 
431479 
431705 
431938 
432163 
432387 
432614 
432833 
433053 
433272 
433502 
433726 
433947 
434179 
434402 
434535 
434796 
435023 
435247 
435469 
435693 
435918 
436135 
436353 
436578 
436806 
437027 
437253 
437489 
437713 
437934 
438153 
438381 
438607 
438826 
439055 
439284 
439511 
439736 
439961 
440191 
440420 
440654 
440888 
441112 
441342 
441568 
441791 
442012 
442238 
442462 
442686 
442913 
443141 
443377 
443606 
443829 
444061 
444285 
444507 
444731 
444961 
445184 
445404 
445632 
445855 
446071 
446293 
446514 
446740 
446963 
447183 
447410 
447633 
447857 
448081 
448311 
448538 
448763 
449000 
449225 
449449 
449673 
449896 
450122 
450339 
450558 
450778 
450992 
451212 
451430 
451656 
451878 
452098 
452329 
452556 
452691 
452956 
453191 
453422 
453651 
453888 
454116 
454336 
454562 
454783 
455012 
455233 
455452 
455680 
455904 
456127 
456349 
456580 
456808 
457031 
457262 
457394 
457650 
457883 
458113 
458345 
458575 
458806 
459037 
459181 
459441 
459683 
459920 
460142 
460364 
460592 
460812 
461029 
461250 
461475 
461697 
461914 
462142 
