4.10546875 1.711814 1.209916 -0.501898
4.8359375 1.7094870000000002 1.204978 -0.504509
5.59765625 1.757047 1.203207 -0.55384
6.3515625 1.827934 1.270808 -0.557126
7.08203125 1.740224 1.202871 -0.537353
7.78515625 1.71054 1.235361 -0.475179
8.4765625 1.740466 1.305536 -0.43493
9.171875 1.716499 1.258951 -0.457548
9.8984375 1.700034 1.233964 -0.46607
10.65234375 1.715693 1.234531 -0.481162
11.39453125 1.754883 1.229883 -0.525
12.140625 1.716283 1.151283 -0.565
12.875 1.704614 1.165 -0.539614
13.61328125 1.690055 1.185139 -0.504916
14.31640625 1.669944 1.159952 -0.509992
15.01953125 1.674816 1.189921 -0.484895
15.44921875 2.408683 1.760701 -0.647982
16.44921875 1.746337 1.206856 -0.539481
17.20703125 1.713203 1.172422 -0.540781
17.96875 1.750801 1.201076 -0.549725
18.7109375 1.7444220000000001 1.209637 -0.534785
19.4296875 1.669854 1.145586 -0.524268
20.12890625 1.7223600000000001 1.192611 -0.529749
20.84765625 1.712276 1.187987 -0.524289
21.57421875 1.7176339999999999 1.222634 -0.495
22.0078125 2.484103 1.776564 -0.707539
23.02734375 1.76058 1.222767 -0.537813
23.78515625 1.768562 1.173562 -0.595
24.5234375 1.6489530000000001 1.15396 -0.494993
25.2578125 1.713049 1.263163 -0.449886
25.96875 1.800874 1.334005 -0.466869
26.6640625 1.780577 1.260577 -0.52
27.34765625 1.690312 1.190897 -0.499415
28.0703125 1.79071 1.237819 -0.552891
28.83203125 1.7880479999999999 1.223048 -0.565
29.5703125 1.6769429999999999 1.194052 -0.482891
30.30078125 1.716243 1.254853 -0.46139
31.0234375 1.717216 1.262707 -0.454509
31.73046875 1.699477 1.309623 -0.389854
32.4296875 1.772351 1.333083 -0.439268
33.140625 1.757488 1.338467 -0.419021
33.8515625 1.710092 1.322558 -0.387534
34.58203125 1.6176620000000002 1.287662 -0.33
35.0703125 2.3421719999999997 1.957172 -0.385
36.078125 1.798996 1.40216 -0.396836
36.8125 1.765898 1.340898 -0.425
37.51953125 1.7583680000000002 1.309797 -0.448571
38.20703125 1.7414640000000001 1.231792 -0.509672
38.90234375 1.7340149999999999 1.202945 -0.53107
39.58984375 1.652623 1.20027 -0.452353
40.32421875 1.7284629999999999 1.264557 -0.463906
41.07421875 1.796208 1.261336 -0.534872
41.8125 1.672444 1.312187 -0.360257
42.53125 1.706084 1.266103 -0.439981
43.26171875 1.752421 1.257421 -0.495
43.98046875 1.7913640000000002 1.309843 -0.481521
44.67578125 1.71243 1.19743 -0.515
45.375 1.7162570000000001 1.27 -0.446257
46.08203125 1.714672 1.274672 -0.44
46.8125 1.760878 1.340878 -0.42
47.57421875 1.724858 1.257846 -0.467012
48.328125 1.782924 1.223705 -0.559219
49.0546875 1.724602 1.209602 -0.515
49.765625 1.743654 1.248686 -0.494968
50.46484375 1.732588 1.217764 -0.514824
51.18359375 1.664114 1.159694 -0.50442
51.89453125 1.763622 1.264925 -0.498697
52.62890625 1.6892639999999999 1.202629 -0.486635
53.3671875 1.768004 1.288004 -0.48
54.12109375 1.690378 1.235511 -0.454867
54.8515625 1.732188 1.258358 -0.47383
55.578125 1.722565 1.248877 -0.473688
56.28125 1.703404 1.217095 -0.486309
56.984375 1.671897 1.162721 -0.509176
57.67578125 1.650067 1.080067 -0.57
58.41796875 1.7314189999999998 1.234916 -0.496503
58.89453125 2.475308 1.785557 -0.689751
59.93359375 1.663209 1.308209 -0.355
60.66015625 1.944596 1.294813 -0.649783
61.390625 1.72701 1.158642 -0.568368
62.08203125 1.78534 1.275526 -0.509814
62.78515625 1.7399559999999998 1.194526 -0.54543
63.49609375 1.7070370000000001 1.093112 -0.613925
64.20703125 1.659239 0.926506 -0.732733
64.9296875 1.663041 1.064006 -0.599035
65.66796875 1.715 1.175 -0.54
66.43359375 1.771274 1.194771 -0.576503
67.16796875 1.813582 1.224793 -0.588789
67.859375 1.8364660000000002 1.327895 -0.508571
68.546875 1.7552910000000002 1.203157 -0.552134
69.0078125 2.458254 1.862561 -0.595693
69.9765625 1.744175 1.314486 -0.429689
70.7265625 1.7118740000000001 1.262026 -0.449848
71.4765625 1.747612 1.282859 -0.464753
72.21484375 1.843081 1.348679 -0.494402
72.92578125 1.649564 1.229564 -0.42
73.65625 1.7785890000000002 1.35786 -0.420729
74.36328125 1.795 1.29 -0.505
75.0546875 1.686036 1.156865 -0.529171
75.75390625 1.748158 1.233158 -0.515
76.46875 1.682203 1.20745 -0.474753
77.20703125 1.76201 1.314946 -0.447064
77.9609375 1.824662 1.294813 -0.529849
78.70703125 1.7179609999999998 1.182961 -0.535
79.4140625 1.739867 1.279867 -0.46
80.09765625 1.737105 1.273569 -0.463536
80.80078125 1.630616 1.205616 -0.425
81.5234375 1.620116 1.075663 -0.544453
82.234375 1.629191 1.159343 -0.469848
82.96875 1.5699079999999999 1.059661 -0.510247
83.7109375 1.6516380000000002 1.129769 -0.521869
84.4453125 1.682145 1.192155 -0.48999
85.16796875 1.7985600000000002 1.189475 -0.609085
85.87890625 1.661214 0.988686 -0.672528
86.5703125 1.7428499999999998 1.331014 -0.411836
87.265625 1.698144 1.213686 -0.484458
87.96875 1.741126 1.251126 -0.49
88.70703125 1.755713 1.196672 -0.559041
89.46484375 1.753714 1.17377 -0.579944
90.2109375 1.714811 1.139979 -0.574832
90.9296875 1.731675 1.196675 -0.535
91.625 1.744877 1.27 -0.474877
92.31640625 1.86172 1.324154 -0.537566
93.02734375 1.753937 1.268945 -0.484992
93.74609375 1.691283 1.247101 -0.444182
94.47265625 1.776453 1.338251 -0.438202
95.203125 1.7987870000000001 1.353787 -0.445
95.94921875 1.766537 1.323858 -0.442679
96.71484375 1.66503 1.33003 -0.335
97.43359375 1.791669 1.409787 -0.381882
98.11328125 1.786476 1.366476 -0.42
98.80859375 1.840713 1.358147 -0.482566
99.52734375 1.7641749999999998 1.269175 -0.495
100.2578125 1.7346560000000002 1.219802 -0.514854
101.015625 1.688763 1.228826 -0.459937
101.75390625 1.65944 1.194737 -0.464703
102.203125 2.527484 1.855 -0.672484
103.1953125 1.744585 1.340011 -0.404574
103.921875 1.723201 1.253201 -0.47
104.625 1.76 1.28 -0.48
105.31640625 1.7730460000000001 1.31943 -0.453616
106.015625 1.636053 1.206319 -0.429734
106.75 1.7650000000000001 1.29 -0.475
107.4765625 1.7477269999999998 1.262727 -0.485
108.21875 1.77927 1.232974 -0.546296
108.95703125 1.7707519999999999 1.271899 -0.498853
109.65625 1.6608359999999998 1.091492 -0.569344
110.33203125 1.723821 1.143848 -0.579973
111.04296875 1.714098 1.219098 -0.495
111.75 1.8646289999999999 1.28 -0.584629
112.46484375 1.660377 1.192025 -0.468352
113.1796875 1.787888 1.278865 -0.509023
113.9140625 1.824955 1.304955 -0.52
114.64453125 1.688373 1.274868 -0.413505
115.3515625 1.6762920000000001 1.324348 -0.351944
116.05859375 1.748994 1.308994 -0.44
116.73828125 1.70308 1.215546 -0.487534
117.42578125 1.777206 1.248358 -0.528848
118.12109375 1.817553 1.262705 -0.554848
118.8671875 1.7094589999999998 1.214098 -0.495361
119.60546875 1.769764 1.244932 -0.524832
120.3359375 1.800701 1.264615 -0.536086
121.03515625 1.7545070000000003 1.199507 -0.555
121.71875 1.7431480000000001 1.23 -0.513148
122.390625 1.76287 1.224651 -0.538219
123.08984375 1.6706569999999998 1.145657 -0.525
123.796875 1.721129 1.186126 -0.535003
124.48828125 1.744785 1.200032 -0.544753
125.20703125 1.745434 1.206581 -0.538853
125.94140625 1.747354 1.225851 -0.521503
126.6875 1.758587 1.203587 -0.555
127.12109375 2.495167 1.797723 -0.697444
128.05859375 1.785272 1.269952 -0.51532
128.73828125 1.7072180000000001 1.232288 -0.47493
129.42578125 1.725946 1.262336 -0.46361
130.12109375 1.703587 1.213587 -0.49
130.8515625 1.736227 1.22896 -0.507267
131.5859375 1.794388 1.25942 -0.534968
132.31640625 1.84384 1.273869 -0.569971
133.01953125 1.770791 1.215791 -0.555
133.72265625 1.8058619999999999 1.245974 -0.559888
134.42578125 1.7943090000000002 1.266745 -0.527564
135.1171875 1.776323 1.279811 -0.496512
135.80078125 1.7857660000000002 1.240766 -0.545
136.51171875 1.814368 1.231929 -0.582439
137.25 1.71923 1.2 -0.51923
137.9921875 1.786702 1.246949 -0.539753
138.7265625 1.828344 1.231957 -0.596387
139.4375 1.8595830000000002 1.260625 -0.598958
140.1328125 1.7750309999999998 1.20735 -0.567681
140.80859375 1.7944839999999997 1.214484 -0.58
141.5234375 1.7791480000000002 1.244598 -0.53455
142.2421875 1.8057630000000002 1.264998 -0.540765
142.9765625 1.752871 1.232871 -0.52
143.7109375 1.7745799999999998 1.21058 -0.564
144.44921875 1.79954 1.273656 -0.525884
145.15625 1.797555 1.248871 -0.548684
145.8671875 1.802003 1.243875 -0.558128
146.578125 1.743863 1.213882 -0.529981
147.27734375 1.8021280000000002 1.242987 -0.559141
147.9765625 1.7982559999999999 1.240108 -0.558148
148.71484375 1.76791 1.24291 -0.525
149.484375 1.795075 1.2507 -0.544375
150.21484375 1.729065 1.227769 -0.501296
150.921875 1.817164 1.273141 -0.544023
151.6328125 1.736475 1.196643 -0.539832
152.32421875 1.774539 1.254571 -0.519968
153.02734375 1.727131 1.243115 -0.484016
153.74609375 1.797142 1.283158 -0.513984
154.46484375 1.806819 1.313671 -0.493148
155.19921875 1.8153920000000001 1.304322 -0.51107
155.94140625 1.7941409999999998 1.284366 -0.509775
156.703125 1.8237050000000001 1.388705 -0.435
157.40625 1.773816 1.234087 -0.539729
158.10546875 1.6693609999999999 1.164946 -0.504415
158.7890625 1.7560820000000001 1.231082 -0.525
159.20703125 2.617592 1.835 -0.782592
160.18359375 1.7493500000000002 1.214652 -0.534698
160.9453125 1.776119 1.23251 -0.543609
161.69140625 1.7790179999999998 1.264382 -0.514636
162.421875 1.7703090000000001 1.252544 -0.517765
163.13671875 1.80098 1.284148 -0.516832
163.84375 1.774136 1.242072 -0.532064
164.55078125 1.810484 1.242332 -0.568152
165.2578125 1.759372 1.224802 -0.53457
165.94921875 1.7830119999999998 1.218022 -0.56499
166.671875 1.776117 1.178118 -0.597999
167.4140625 1.758361 1.161556 -0.596805
168.17578125 1.711031 1.171945 -0.539086
168.91015625 1.780059 1.235059 -0.545
169.61328125 1.803585 1.278779 -0.524806
170.3046875 1.751394 1.262308 -0.489086
170.99609375 1.7398090000000002 1.244809 -0.495
171.71875 1.7910519999999999 1.305 -0.486052
172.4453125 1.792542 1.294365 -0.498177
173.19140625 1.756361 1.247403 -0.508958
173.9140625 1.798292 1.269648 -0.528644
174.65625 1.750197 1.290744 -0.459453
175.359375 1.775468 1.22854 -0.546928
176.0625 1.7955860000000001 1.245586 -0.55
176.76171875 1.694041 1.174153 -0.519888
177.4609375 1.550284 1.154832 -0.395452
178.15234375 1.751394 1.311408 -0.439986
178.88671875 1.7646099999999998 1.28354 -0.48107
179.6484375 1.7397969999999998 1.264854 -0.474943
180.37890625 1.7250510000000001 1.242124 -0.482927
181.07421875 1.72499 1.205 -0.51999
181.76953125 1.747351 1.199874 -0.547477
182.45703125 1.7437610000000001 1.208761 -0.535
183.1484375 1.7214770000000001 1.131702 -0.589775
183.85546875 1.814721 1.199908 -0.614813
184.56640625 1.679336 1.164145 -0.515191
185.29296875 1.7875360000000002 1.222614 -0.564922
185.74609375 2.516292 1.811558 -0.704734
186.7421875 1.82968 1.194804 -0.634876
187.4609375 1.722531 1.119459 -0.603072
188.15234375 1.7703039999999999 1.254869 -0.515435
188.828125 1.7143030000000001 1.282731 -0.431572
189.51171875 1.803597 1.351878 -0.451719
190.20703125 1.820804 1.344586 -0.476218
190.9453125 1.858562 1.362649 -0.495913
191.69140625 1.8940229999999998 1.305 -0.589023
192.4140625 1.739385 1.184385 -0.555
193.1171875 1.731477 1.166477 -0.565
193.80859375 1.79596 1.162103 -0.633857
194.51953125 1.763433 1.179862 -0.583571
195.19921875 1.790937 1.265947 -0.52499
195.8984375 1.901551 1.356577 -0.544974
196.609375 1.813078 1.229238 -0.58384
197.3515625 1.811451 1.228277 -0.583174
198.0859375 1.869164 1.319951 -0.549213
198.828125 1.7921310000000001 1.337131 -0.455
199.53125 1.853365 1.40367 -0.449695
200.21875 1.853002 1.302946 -0.550056
200.90625 1.837278 1.299321 -0.537957
201.34765625 2.644854 1.958794 -0.68606
202.34765625 1.7175259999999999 1.243696 -0.47383
203.1015625 1.761613 1.237859 -0.523754
203.828125 1.852499 1.279073 -0.573426
204.5625 1.7256310000000001 1.185658 -0.539973
205.28125 1.7761609999999999 1.281178 -0.494983
205.99609375 1.765724 1.311688 -0.454036
206.38671875 2.53634 1.883406 -0.652934
207.3828125 1.790715 1.300715 -0.49
208.1015625 1.779558 1.252024 -0.527534
208.83984375 1.804135 1.29935 -0.504785
209.609375 1.7214779999999998 1.301602 -0.419876
210.3515625 1.769899 1.315 -0.454899
211.0625 1.768164 1.32 -0.448164
211.75390625 1.868023 1.345062 -0.522961
212.453125 1.779858 1.248208 -0.53165
213.15625 1.7982930000000001 1.218674 -0.579619
213.87890625 1.846812 1.281119 -0.565693
214.6015625 1.758772 1.206272 -0.5525
215.3515625 1.817266 1.323512 -0.493754
216.078125 1.81213 1.307989 -0.504141
216.8203125 1.820076 1.250485 -0.569591
217.53125 1.822722 1.32276 -0.499962
218.22265625 1.67994 1.274557 -0.405383
218.91015625 1.732689 1.267863 -0.464826
219.6171875 1.799079 1.239149 -0.55993
220.3203125 1.712075 1.197544 -0.514531
221.0625 1.7074190000000002 1.182419 -0.525
221.8203125 1.6526640000000001 1.147721 -0.504943
222.5546875 1.620185 1.032306 -0.587879
223.24609375 1.65991 1.167675 -0.492235
223.953125 1.733657 1.198882 -0.534775
224.671875 1.736485 1.172177 -0.564308
225.359375 1.713765 1.198765 -0.515
226.05078125 1.7870599999999999 1.288444 -0.498616
226.78125 1.814556 1.279563 -0.534993
227.515625 1.727617 1.237495 -0.490122
228.25390625 1.72878 1.110026 -0.618754
228.9921875 1.819321 1.259632 -0.559689
229.69140625 1.753565 1.223798 -0.529767
230.37109375 1.798915 1.199109 -0.599806
231.05859375 1.8225040000000001 1.359644 -0.46286
231.7890625 1.81466 1.244979 -0.569681
232.5078125 1.783499 1.243675 -0.539824
233.25 1.814875 1.26 -0.554875
233.9765625 1.712267 1.295 -0.417267
234.69921875 1.729559 1.267525 -0.462034
235.40625 1.837949 1.317949 -0.52
236.12109375 1.699779 1.230597 -0.469182
236.82421875 1.8579849999999998 1.257985 -0.6
237.515625 1.751406 1.286406 -0.465
238.22265625 1.832457 1.329385 -0.503072
238.9765625 1.836448 1.315479 -0.520969
239.734375 1.854197 1.317172 -0.537025
240.46875 1.772017 1.127017 -0.645
241.16796875 1.735595 1.169672 -0.565923
241.86328125 1.697829 1.332953 -0.364876
242.546875 1.871124 1.418078 -0.453046
243.25390625 1.7002519999999999 1.221676 -0.478576
243.9765625 1.6447269999999998 1.315265 -0.329462
244.703125 1.7069130000000001 1.291012 -0.415901
245.45703125 1.613226 1.188207 -0.425019
246.1953125 1.712988 1.234945 -0.478043
246.94921875 1.672634 1.247634 -0.425
247.65625 1.816962 1.376962 -0.44
248.35546875 1.869244 1.264924 -0.60432
249.04296875 1.6832729999999998 1.048501 -0.634772
249.75390625 1.743813 1.263954 -0.479859
250.4765625 1.7600710000000002 1.280442 -0.479629
251.23046875 1.768383 1.169897 -0.598486
251.984375 1.743374 1.293374 -0.45
252.72265625 1.788961 1.439546 -0.349415
253.42578125 1.8023850000000001 1.412846 -0.389539
254.12890625 1.681066 1.231066 -0.45
254.84765625 1.83396 1.34939 -0.48457
255.5546875 1.902971 1.573083 -0.329888
256.26171875 2.095085 1.320085 -0.775
257.00390625 1.898502 1.381236 -0.517266
257.75390625 1.9654850000000001 1.403107 -0.562378
258.5 1.862266 1.35 -0.512266
259.25 1.860514 1.405 -0.455514
259.953125 1.7292939999999999 1.324447 -0.404847
260.6328125 2.017863 1.252963 -0.7649
261.34375 1.814531 1.314531 -0.5
262.09375 1.829834 1.403438 -0.426396
262.828125 1.7544039999999999 1.319578 -0.434826
263.56640625 1.953797 1.334206 -0.619591
264.3203125 1.841798 1.397523 -0.444275
265.0625 1.82 1.03 -0.79
265.77734375 1.7805870000000001 1.382389 -0.398198
266.48828125 1.715161 1.255 -0.460161
267.19140625 1.7304300000000001 1.28 -0.45043
267.90234375 1.799128 1.314175 -0.484953
268.62890625 1.644859 1.3 -0.344859
269.40234375 1.774242 1.319692 -0.45455
270.15625 1.7129029999999998 1.273796 -0.439107
270.89453125 1.733251 1.284345 -0.448906
271.6015625 1.8025730000000002 1.317573 -0.485
272.3046875 1.8429760000000002 1.363199 -0.479777
272.9921875 1.7488569999999999 1.224068 -0.524789
273.7265625 1.766596 1.212731 -0.553865
274.46875 1.8037269999999999 1.26125 -0.542477
275.21484375 1.789477 1.26284 -0.526637
275.953125 1.748936 1.19923 -0.549706
276.7109375 1.753774 1.224559 -0.529215
277.4453125 1.796707 1.246707 -0.55
278.15234375 1.762346 1.239338 -0.523008
278.83984375 1.772764 1.22503 -0.547734
279.54296875 1.83274 1.243635 -0.589105
280.2578125 1.7872309999999998 1.206295 -0.580936
281.01171875 1.699712 1.180177 -0.519535
281.77734375 1.839541 1.289541 -0.55
282.5 1.8283179999999999 1.285 -0.543318
283.21484375 1.77279 1.25 -0.52279
283.65234375 2.489338 1.843725 -0.645613
284.63671875 1.801464 1.337006 -0.464458
285.33203125 1.704701 1.263297 -0.441404
286.03515625 1.641676 1.288489 -0.353187
286.76171875 1.753959 1.293997 -0.459962
287.50390625 1.766705 1.297361 -0.469344
288.23046875 1.854873 1.261043 -0.59383
288.95703125 1.7563110000000002 1.204827 -0.551484
289.66015625 1.6258949999999999 1.175895 -0.45
290.3515625 1.758172 1.333817 -0.424355
291.03125 1.714516 1.324844 -0.389672
291.7421875 1.707636 1.260136 -0.4475
292.4765625 1.753514 1.218514 -0.535
293.21875 1.7404860000000002 1.185896 -0.55459
293.93359375 1.7639749999999998 1.173975 -0.59
294.66796875 1.709553 1.154553 -0.555
295.3828125 1.805368 1.135807 -0.669561
296.078125 1.677972 1.207972 -0.47
296.78125 1.7846510000000002 1.289651 -0.495
297.46875 1.746248 1.256757 -0.489491
298.17578125 1.781653 1.265892 -0.515761
298.8984375 1.793784 1.258798 -0.534986
299.65625 1.746504 1.1975 -0.549004
300.078125 2.4888339999999998 1.766965 -0.721869
301.09375 1.79916 1.304 -0.49516
301.79296875 1.77964 1.234973 -0.544667
302.484375 1.737046 1.213567 -0.523479
303.1640625 1.819973 1.269794 -0.550179
303.87890625 1.853767 1.257623 -0.596144
304.61328125 1.775624 1.218771 -0.556853
305.3515625 1.7959070000000001 1.201584 -0.594323
306.07421875 1.84 1.235 -0.605
306.8125 1.777037 1.202037 -0.575
307.5390625 1.81545 1.24661 -0.56884
308.23046875 1.824417 1.254955 -0.569462
308.90625 1.8264660000000001 1.266466 -0.56
309.6015625 1.657194 1.183936 -0.473258
310.30859375 1.8077640000000001 1.263306 -0.544458
311.04296875 1.802968 1.248605 -0.554363
311.796875 1.7598070000000001 1.199807 -0.56
312.51953125 1.734982 1.129982 -0.605
313.23046875 1.792275 1.154994 -0.637281
313.92578125 1.795623 1.160623 -0.635
314.63671875 1.730131 1.117778 -0.612353
315.328125 1.803877 1.198877 -0.605
316.03515625 1.827959 1.213206 -0.614753
316.76171875 1.751611 1.121649 -0.629962
317.5078125 1.7670029999999999 1.160757 -0.606246
318.2421875 1.810263 1.235757 -0.574506
318.98046875 1.799994 1.249994 -0.55
319.6875 1.753684 1.193684 -0.56
320.37890625 1.8043019999999999 1.234302 -0.57
321.05859375 1.8586179999999999 1.254897 -0.603721
321.76953125 1.724883 1.149989 -0.574894
322.51171875 1.769172 1.219198 -0.549974
323.26171875 1.830177 1.280177 -0.55
323.99609375 1.774725 1.26 -0.514725
324.72265625 1.7559840000000002 1.29845 -0.457534
325.43359375 1.828061 1.308061 -0.52
326.14453125 1.759935 1.224935 -0.535
326.8515625 1.7744339999999998 1.242799 -0.531635
327.546875 1.702862 1.183085 -0.519777
328.2578125 1.813172 1.29834 -0.514832
328.73046875 2.389578 1.819872 -0.569706
329.76171875 1.819818 1.305124 -0.514694
330.50390625 1.788186 1.328186 -0.46
331.21484375 1.726187 1.086328 -0.639859
331.90625 1.7861609999999999 1.091161 -0.695
332.6015625 1.7282410000000001 1.082773 -0.645468
333.171875 0.11085999999999996 -0.408988 -0.519848
334.0078125 1.814959 1.264114 -0.550845
334.7421875 1.782494 1.224366 -0.558128
335.48828125 1.801361 1.306361 -0.495
336.20703125 1.765438 1.261719 -0.503719
336.94921875 1.760437 1.278953 -0.481484
337.6640625 1.7672830000000002 1.259602 -0.507681
338.36328125 1.728475 1.238532 -0.489943
339.04296875 1.7353370000000001 1.270337 -0.465
339.75 1.746635 1.275 -0.471635
340.46484375 1.718723 1.244368 -0.474355
341.21484375 1.728669 1.245238 -0.483431
341.9765625 1.731158 1.252707 -0.478451
342.71484375 1.773777 1.353777 -0.42
343.41015625 1.7304059999999999 1.178922 -0.551484
344.109375 1.858304 1.398773 -0.459531
344.83203125 1.750771 1.263635 -0.487136
345.53125 1.703464 1.265363 -0.438101
346.234375 1.717435 1.292435 -0.425
346.97265625 1.6754099999999998 1.279988 -0.395422
347.7265625 1.764049 1.324587 -0.439462
348.46875 1.719047 1.244585 -0.474462
349.20703125 1.803608 1.323833 -0.479775
349.9140625 1.723652 1.304511 -0.419141
350.30859375 2.460981 1.869902 -0.591079
351.29296875 1.725454 1.300454 -0.425
352.0390625 1.759799 1.299799 -0.46
352.77734375 1.7155559999999999 1.304338 -0.411218
353.52734375 1.757043 1.323569 -0.433474
354.265625 1.788646 1.32756 -0.461086
354.9921875 1.7905570000000002 1.318413 -0.472144
355.6953125 1.698447 1.248775 -0.449672
356.4140625 1.72964 1.309754 -0.419886
357.125 1.749415 1.375 -0.374415
357.83203125 1.754838 1.33818 -0.416658
358.5546875 1.747279 1.29255 -0.454729
359.30859375 1.787452 1.334074 -0.453378
360.0703125 1.772079 1.272079 -0.5
360.80859375 1.8139659999999997 1.299694 -0.514272
361.5078125 1.710845 1.275 -0.435845
362.19921875 1.7157149999999999 1.275536 -0.440179
362.90234375 1.739697 1.304697 -0.435
363.609375 1.765358 1.285358 -0.48
364.3359375 1.7896640000000001 1.284664 -0.505
365.06640625 1.788197 1.274553 -0.513644
365.80859375 1.782461 1.292732 -0.489729
366.5390625 1.673921 1.199501 -0.47442
367.2734375 1.685808 1.230808 -0.455
367.96875 1.785351 1.316136 -0.469215
368.66015625 1.799229 1.30503 -0.494199
369.34375 1.738879 1.248879 -0.49
370.0625 1.761153 1.268684 -0.492469
370.79296875 1.672835 1.203082 -0.469753
371.546875 1.747328 1.253712 -0.493616
372.29296875 1.749217 1.27014 -0.479077
373.0234375 1.738319 1.280557 -0.457762
373.70703125 1.760646 1.248095 -0.512551
374.4140625 1.733679 1.228679 -0.505
375.12890625 1.7565469999999999 1.233166 -0.523381
375.83984375 1.726577 1.181904 -0.544673
376.55078125 1.749667 1.19 -0.559667
377.296875 1.7321419999999998 1.213901 -0.518241
378.04296875 1.727014 1.257014 -0.47
378.7890625 1.7390310000000002 1.239926 -0.499105
379.515625 1.7676949999999998 1.252727 -0.514968
380.21484375 1.74486 1.225407 -0.519453
380.90625 1.72274 1.20274 -0.52
381.609375 1.7340149999999999 1.184108 -0.549907
382.359375 1.8062140000000002 1.228714 -0.5775
383.1015625 1.7003050000000002 1.125663 -0.574642
383.84375 1.762354 1.217522 -0.544832
384.57421875 1.622084 1.124014 -0.49807
385.3125 1.777241 1.267241 -0.51
386.00390625 1.7004299999999999 1.189737 -0.510693
386.71875 1.748475 1.205072 -0.543403
387.42578125 1.703529 1.108529 -0.595
388.13671875 1.743512 1.128512 -0.615
388.87109375 1.77024 1.143132 -0.627108
389.64453125 1.724974 1.144974 -0.58
390.40234375 1.692618 1.127647 -0.564971
391.12890625 1.706368 1.136953 -0.569415
391.8359375 1.743528 1.145571 -0.597957
392.5234375 1.685988 1.126725 -0.559263
393.21875 1.713047 1.159672 -0.553375
393.953125 1.756271 1.234063 -0.522208
394.703125 1.7133150000000001 1.20336 -0.509955
395.4453125 1.7123080000000002 1.247308 -0.465
396.17578125 1.7662360000000001 1.231236 -0.535
396.92578125 1.77911 1.21911 -0.56
397.65234375 1.722119 1.207169 -0.51495
398.35546875 1.812989 1.324861 -0.488128
399.046875 1.735467 1.281104 -0.454363
399.75390625 1.7229809999999999 1.303127 -0.419854
400.484375 1.763541 1.338541 -0.425
401.24609375 1.6588530000000001 1.253954 -0.404899
402.0078125 1.740429 1.278163 -0.462266
402.73828125 1.772423 1.327493 -0.44493
403.45703125 1.6841249999999999 1.259672 -0.424453
404.15625 1.762073 1.342073 -0.42
404.8671875 1.734382 1.264442 -0.46994
405.578125 1.826284 1.333558 -0.492726
406.296875 1.758194 1.234578 -0.523616
407.02734375 1.6801979999999999 1.237472 -0.442726
407.77734375 1.6645590000000001 1.222137 -0.442422
408.19140625 2.385563 1.724707 -0.660856
409.2421875 1.7219419999999999 1.219442 -0.5025
409.953125 1.780903 1.221903 -0.559
410.6484375 1.7777120000000002 1.185359 -0.592353
411.33984375 1.747694 1.157835 -0.589859
412.0625 1.7248 1.151929 -0.572871
412.8125 1.7191199999999998 1.200076 -0.519044
413.56640625 1.776714 1.214346 -0.562368
414.28515625 1.754616 1.204626 -0.54999
415.00390625 1.736341 1.273193 -0.463148
415.703125 1.754916 1.264916 -0.49
416.40234375 1.75325 1.225 -0.52825
417.11328125 1.7606629999999999 1.234406 -0.526257
417.81640625 1.787361 1.224033 -0.563328
418.53125 1.759394 1.219844 -0.53955
419.26953125 1.804885 1.214885 -0.59
420.03515625 1.7949220000000001 1.195 -0.599922
420.7578125 1.7144849999999998 1.119541 -0.594944
421.453125 1.854809 1.224816 -0.629993
422.14453125 1.779148 1.174872 -0.604276
422.83984375 1.760179 1.145304 -0.614875
423.5390625 1.8865539999999998 1.244873 -0.641681
424.26171875 1.788759 1.159095 -0.629664
425.00390625 1.761018 1.161018 -0.6
425.74609375 1.862156 1.242403 -0.619753
426.47265625 1.813955 1.286028 -0.527927
427.2109375 1.763364 1.254926 -0.508438
427.92578125 1.815579 1.278209 -0.53737
428.625 1.875833 1.35 -0.525833
429.3203125 1.834593 1.242559 -0.592034
430.04296875 1.83138 1.203511 -0.627869
430.7734375 1.819791 1.231317 -0.588474
431.5390625 1.778613 1.214155 -0.564458
432.30078125 1.682285 1.192285 -0.49
433.015625 1.838141 1.259406 -0.578735
433.7109375 1.8004660000000001 1.189591 -0.610875
434.4140625 1.7934389999999998 1.224754 -0.568685
435.12890625 1.710268 1.163142 -0.547126
435.5703125 2.525 1.855 -0.67
436.5703125 1.742544 1.247544 -0.495
437.30859375 1.728504 1.22446 -0.504044
438.05078125 1.7065299999999999 1.21653 -0.49
438.7890625 1.804563 1.269563 -0.535
439.5078125 1.7795290000000001 1.284585 -0.494944
440.1953125 1.808392 1.345173 -0.463219
440.88671875 1.776432 1.18336 -0.593072
441.57421875 1.795086 1.225086 -0.57
442.30859375 1.781895 1.282818 -0.499077
443.046875 1.734693 1.264693 -0.47
443.7890625 1.74946 1.234954 -0.514506
444.51953125 1.8226339999999999 1.334981 -0.487653
445.2265625 1.7239209999999998 1.208991 -0.51493
445.91796875 1.758515 1.208515 -0.55
446.61328125 1.7821669999999998 1.257231 -0.524936
447.31640625 1.821711 1.283984 -0.537727
448.0234375 1.724791 1.182065 -0.542726
448.7421875 1.752216 1.276748 -0.475468
449.48828125 1.671786 1.106938 -0.564848
450.25 1.759642 1.21 -0.549642
450.97265625 1.777224 1.217663 -0.559561
451.65234375 1.685803 1.204866 -0.480937
452.33984375 1.778263 1.303351 -0.474912
453.03515625 1.772386 1.282386 -0.49
453.73828125 1.779648 1.294772 -0.484876
454.46875 1.769107 1.324107 -0.445
454.88671875 2.575847 1.978881 -0.596966
455.94921875 1.872185 1.442341 -0.429844
456.68359375 1.799694 1.339694 -0.46
457.4140625 1.787535 1.354732 -0.432803
458.1171875 1.7995940000000001 1.354594 -0.445
458.8125 1.789274 1.344545 -0.444729
459.50390625 1.766308 1.321308 -0.445
460.22265625 1.849328 1.409866 -0.439462
460.6875 2.442788 1.891786 -0.551002
461.7109375 1.79439 1.33482 -0.45957
462.4765625 1.756084 1.266702 -0.489382
463.19921875 1.773705 1.286869 -0.486836
463.88671875 1.756178 1.336178 -0.42
464.59375 1.792147 1.318537 -0.47361
465.30859375 1.7866469999999999 1.291647 -0.495
466.0234375 1.703475 1.230509 -0.472966
466.7421875 1.782642 1.288073 -0.494569
467.48828125 1.804014 1.27967 -0.524344
468.2265625 1.7977670000000001 1.237767 -0.56
468.96484375 1.765132 1.222779 -0.542353
469.6875 1.708587 1.203333 -0.505254
470.375 1.81 1.235 -0.575
471.0703125 1.80775 1.279422 -0.528328
471.78125 1.762727 1.247727 -0.515
472.5390625 1.770718 1.281042 -0.489676
473.28125 1.796154 1.269661 -0.526493
474.02734375 1.859464 1.289012 -0.570452
474.765625 1.7650000000000001 1.235 -0.53
475.48828125 1.797979 1.332979 -0.465
476.1875 1.811684 1.298676 -0.513008
476.89453125 1.836319 1.265 -0.571319
477.6015625 1.777145 1.272145 -0.505
478.32421875 1.7469919999999999 1.307915 -0.439077
479.05859375 1.802113 1.338578 -0.463535
479.80859375 1.7383380000000002 1.269897 -0.468441
480.5546875 1.791887 1.291887 -0.5
481.28125 1.713917 1.23596 -0.477957
481.96875 1.7863 1.2013 -0.585
482.66015625 1.675466 1.165509 -0.509957
483.14453125 2.066138 0.874994 -1.191144
484.08984375 1.764981 1.318112 -0.446869
484.83984375 1.7904360000000001 1.235436 -0.555
485.57421875 1.7541889999999998 1.182867 -0.571322
486.30859375 1.749054 1.214782 -0.534272
487.0234375 1.772033 1.312966 -0.459067
487.75 1.694848 1.265 -0.429848
488.44140625 1.784175 1.269233 -0.514942
489.12890625 1.66709 1.118639 -0.548451
489.82421875 1.753421 1.124647 -0.628774
490.55859375 1.8271739999999999 1.22353 -0.603644
491.30859375 1.768118 1.134074 -0.634044
492.05078125 1.833617 1.18233 -0.651287
492.78125 1.782117 1.207117 -0.575
493.4921875 1.6885470000000002 1.148659 -0.539888
494.171875 1.756751 1.184915 -0.571836
494.87890625 1.940269 1.351439 -0.58883
495.58984375 1.748061 1.192177 -0.555884
496.30078125 1.80255 1.26255 -0.54
497.01171875 1.683355 1.198529 -0.484826
497.75390625 1.791738 1.234471 -0.557267
498.48046875 1.818697 1.279943 -0.538754
499.203125 1.789336 1.273427 -0.515909
499.921875 1.835175 1.323085 -0.51209
500.6015625 1.793084 1.242881 -0.550203
501.28515625 1.7600379999999998 1.220292 -0.539746
502.00390625 1.842213 1.272157 -0.570056
502.76171875 1.776271 1.321318 -0.454953
503.49609375 1.881358 1.317718 -0.56364
504.2265625 1.76262 1.24398 -0.51864
504.95703125 1.806047 1.236066 -0.569981
505.6640625 1.793823 1.253831 -0.539992
506.35546875 1.8444790000000002 1.284825 -0.559654
507.06640625 1.723647 1.227366 -0.496281
507.7734375 1.7856329999999998 1.266414 -0.519219
508.5 1.759916 1.3 -0.459916
509.23046875 1.765674 1.284973 -0.480701
509.9921875 1.778985 1.299479 -0.479506
510.73828125 1.756813 1.275212 -0.481601
511.453125 1.7541030000000002 1.29912 -0.454983
512.14453125 1.731797 1.269965 -0.461832
512.8359375 1.77106 1.279778 -0.491282
513.53125 1.854622 1.295072 -0.55955
514.2734375 1.782409 1.266191 -0.516218
515.02734375 1.7839040000000002 1.288904 -0.495
515.76953125 1.804743 1.279849 -0.524894
516.50390625 1.8667099999999999 1.35171 -0.515
517.234375 1.814558 1.255728 -0.55883
517.95703125 1.796441 1.326441 -0.47
518.66015625 1.780381 1.350381 -0.43
519.3515625 1.823209 1.363337 -0.459872
520.0625 1.788958 1.345 -0.443958
520.8046875 1.6924620000000001 1.244234 -0.448228
521.55859375 1.727319 1.26 -0.467319
522.30859375 1.759595 1.243982 -0.515613
523.0234375 1.7678159999999998 1.227364 -0.540452
523.7265625 1.814826 1.232893 -0.581933
524.4140625 1.719055 1.199978 -0.519077
525.12890625 1.74002 1.275108 -0.464912
525.83203125 1.720611 1.257463 -0.463148
526.5546875 1.71 1.275 -0.435
527.28125 1.7971869999999999 1.331667 -0.46552
528.03125 1.768828 1.333828 -0.435
528.765625 1.730391 1.327425 -0.402966
529.48046875 1.8344589999999998 1.354949 -0.47951
530.18359375 1.805 1.355 -0.45
530.87890625 1.7067700000000001 1.272629 -0.434141
531.5703125 1.755176 1.301455 -0.453721
532.296875 1.7840509999999998 1.299051 -0.485
533.0546875 1.748555 1.239404 -0.509151
533.8046875 1.821354 1.287277 -0.534077
534.52734375 1.770119 1.288797 -0.481322
535.25390625 1.7330349999999999 1.278158 -0.454877
535.94921875 1.746292 1.289573 -0.456719
536.65234375 1.767895 1.347902 -0.419993
537.37109375 1.7499509999999998 1.355322 -0.394629
538.0859375 1.812439 1.379502 -0.432937
538.8203125 1.74716 1.298303 -0.448857
539.56640625 1.734783 1.275 -0.459783
540.33203125 1.6996449999999999 1.224672 -0.474973
541.0625 1.723129 1.234062 -0.489067
541.765625 1.7768450000000002 1.261845 -0.515
542.4609375 1.759286 1.274665 -0.484621
543.171875 1.7299769999999999 1.258141 -0.471836
543.87890625 1.7764010000000001 1.285155 -0.491246
544.63671875 1.764497 1.284722 -0.479775
545.38671875 1.80917 1.317338 -0.491832
546.12890625 1.740541 1.246676 -0.493865
546.859375 1.760534 1.240809 -0.519725
547.6015625 1.747913 1.188728 -0.559185
548.30859375 1.738124 1.178666 -0.559458
549.015625 1.724516 1.200438 -0.524078
549.72265625 1.790563 1.235993 -0.55457
550.453125 1.775 1.21 -0.565
550.9140625 2.4842530000000003 1.804253 -0.68
551.953125 1.611102 1.176112 -0.43499
552.703125 1.795509 1.323009 -0.4725
553.41015625 1.778623 1.20515 -0.573473
554.1015625 1.726483 1.109423 -0.61706
554.8046875 1.791124 1.278199 -0.512925
555.51953125 1.809662 1.079803 -0.729859
556.2265625 1.5700949999999998 1.040536 -0.529559
556.953125 1.799973 1.319214 -0.480759
557.6796875 1.7096839999999998 1.19318 -0.516504
558.4140625 1.7405 1.19056 -0.54994
559.140625 1.775401 1.23125 -0.544151
559.84375 1.7383819999999999 1.258382 -0.48
560.52734375 1.786375 1.258234 -0.528141
561.21875 1.754922 1.285781 -0.469141
561.9296875 1.814962 1.329962 -0.485
562.66796875 1.8181800000000001 1.28818 -0.53
563.41015625 1.7599939999999998 1.27015 -0.489844
564.15625 1.806462 1.341462 -0.465
564.87109375 1.771986 1.289932 -0.482054
565.578125 1.718416 1.269911 -0.448505
566.26953125 1.797618 1.339939 -0.457679
566.97265625 1.771102 1.326214 -0.444888
567.68359375 1.769832 1.269832 -0.5
568.4140625 1.804535 1.379583 -0.424952
569.13671875 1.7969819999999999 1.321982 -0.475
569.8828125 1.8027119999999999 1.249337 -0.553375
570.640625 1.729053 1.211576 -0.517477
571.36328125 1.749733 1.310044 -0.439689
572.04296875 1.755193 1.300526 -0.454667
572.7265625 1.762016 1.207641 -0.554375
573.43359375 1.693984 1.268984 -0.425
574.15625 1.822608 1.357625 -0.464983
574.91015625 1.797764 1.322764 -0.475
575.65625 1.793823 1.293852 -0.499971
576.390625 1.746482 1.253284 -0.493198
577.125 1.804785 1.29 -0.514785
577.859375 1.7883140000000002 1.258447 -0.529867
578.55859375 1.771218 1.244084 -0.527134
579.25 1.754936 1.225 -0.529936
579.96484375 1.757794 1.269357 -0.488437
580.71484375 1.801847 1.337748 -0.464099
581.46484375 1.739355 1.265 -0.474355
582.2265625 1.7514 1.261757 -0.489643
582.96484375 1.7736459999999998 1.298646 -0.475
583.67578125 1.7894990000000002 1.263738 -0.525761
584.3671875 1.849564 1.11 -0.739564
585.09375 1.855818 1.313207 -0.542611
585.8125 1.7106569999999999 1.266136 -0.444521
586.54296875 1.776596 1.201479 -0.575117
587.2890625 1.7037330000000002 1.269511 -0.434222
588.03125 1.78274 1.26274 -0.52
588.75390625 1.8086609999999999 1.243193 -0.565468
589.48046875 1.789115 1.209994 -0.579121
590.203125 1.813243 1.223253 -0.58999
590.890625 1.812127 1.199084 -0.613043
591.58203125 1.768729 1.157684 -0.611045
592.3203125 1.804519 1.229519 -0.575
593.08984375 1.7975919999999999 1.24776 -0.549832
593.84375 1.768805 1.198852 -0.569953
594.578125 1.757443 1.207443 -0.55
595.30078125 1.8381659999999997 1.250506 -0.58766
596.0078125 1.8619020000000002 1.273578 -0.588324
596.72265625 1.76831 1.213866 -0.554444
597.44921875 1.858584 1.33749 -0.521094
598.16015625 1.8599769999999998 1.334987 -0.52499
598.90234375 1.819696 1.279704 -0.539992
599.65625 1.782202 1.267209 -0.514993
600.42578125 1.849459 1.335 -0.514459
601.15625 1.834079 1.264079 -0.57
601.8671875 1.761792 1.222223 -0.539569
602.55859375 1.7787359999999999 1.273755 -0.504981
603.2734375 1.815 1.325 -0.49
603.98828125 1.8769040000000001 1.337529 -0.539375
604.734375 1.740265 1.259248 -0.481017
605.4921875 1.764806 1.28 -0.484806
606.2421875 1.843563 1.359733 -0.48383
606.9609375 1.622051 1.204655 -0.417396
607.68359375 1.75853 1.24853 -0.51
608.39453125 1.784214 1.234981 -0.549233
609.1015625 1.73462 1.205389 -0.529231
609.80078125 1.796595 1.217985 -0.57861
610.53125 1.81799 1.242079 -0.575911
611.28125 1.7160700000000002 1.172047 -0.544023
612.0390625 1.873909 1.304335 -0.569574
612.796875 1.8035489999999998 1.199701 -0.603848
613.515625 1.708533 1.158942 -0.549591
614.20703125 1.769148 1.204793 -0.564355
614.91796875 1.8207459999999998 1.203515 -0.617231
615.6484375 1.7339829999999998 1.123983 -0.61
616.37890625 1.7671519999999998 1.248954 -0.518198
617.1171875 1.7918589999999999 1.304733 -0.487126
617.86328125 1.754629 1.315 -0.439629
618.609375 1.7286299999999999 1.319253 -0.409377
619.3359375 1.8292789999999999 1.364342 -0.464937
620.0703125 1.797377 1.282167 -0.51521
620.765625 1.722855 1.193374 -0.529481
621.46875 1.777212 1.222754 -0.554458
622.19140625 1.8089629999999999 1.203963 -0.605
622.96875 1.8508660000000001 1.206012 -0.644854
623.71484375 1.74353 1.123777 -0.619753
624.4609375 1.7823069999999999 1.179954 -0.602353
625.18359375 1.7899509999999998 1.179951 -0.61
625.8984375 1.7346970000000002 1.198331 -0.536366
626.60546875 1.82695 1.319971 -0.506979
627.32421875 1.479704 0.989704 -0.49
628.04296875 2.271078 1.306852 -0.964226
628.78125 1.933116 1.291196 -0.64192
629.52734375 1.7474 1.264701 -0.482699
630.2890625 1.77766 1.154239 -0.623421
631.03125 2.384535 1.33816 -1.046375
631.76171875 0.975166 0.233696 -0.74147
632.4375 1.943687 1.257105 -0.686582
633.140625 1.8611529999999998 1.116153 -0.745
633.84375 1.82661 1.213 -0.61361
634.59375 1.804871 1.165259 -0.639612
635.35546875 1.804811 1.209875 -0.594936
636.10546875 1.8332519999999999 1.209948 -0.623304
636.83203125 1.739875 1.125 -0.614875
637.5625 1.823466 1.258466 -0.565
638.27734375 1.84823 1.287902 -0.560328
638.984375 1.777243 1.185743 -0.5915
639.6875 1.7618179999999999 1.214259 -0.547559
640.41015625 1.808644 1.288663 -0.519981
641.15625 1.844986 1.295 -0.549986
641.91796875 1.7544590000000002 1.215 -0.539459
642.39453125 2.539744 1.860285 -0.679459
643.39453125 1.8041260000000001 1.279911 -0.524215
644.1015625 1.799661 1.220317 -0.579344
644.796875 1.741024 1.203654 -0.53737
645.52734375 1.812383 1.262902 -0.549481
646.265625 1.793085 1.223447 -0.569638
647.0 1.7650000000000001 1.22 -0.545
647.74609375 1.773188 1.238248 -0.53494
648.5 1.809895 1.29 -0.519895
649.234375 1.7195799999999999 1.201129 -0.518451
649.953125 1.757116 1.238009 -0.519107
650.65625 1.817529 1.267556 -0.549973
651.36328125 1.742272 1.1996 -0.542672
652.07421875 1.769974 1.265 -0.504974
652.84765625 1.8018450000000001 1.276845 -0.525
653.60546875 1.7925520000000001 1.27488 -0.517672
654.35546875 1.769958 1.284958 -0.485
655.0859375 1.67917 1.305 -0.37417
655.80859375 1.812085 1.339206 -0.472879
656.50390625 1.760269 1.270269 -0.49
657.21875 1.7637299999999998 1.284023 -0.479707
657.94921875 1.756425 1.296482 -0.459943
658.69921875 1.822817 1.314282 -0.508535
659.44140625 1.805517 1.307958 -0.497559
660.20703125 1.599507 1.294507 -0.305
660.95703125 1.788425 1.343853 -0.444572
661.3515625 2.41868 1.866741 -0.551939
662.34765625 1.778184 1.32826 -0.449924
663.05078125 1.690111 1.238068 -0.452043
663.75390625 1.701138 1.356138 -0.345
664.484375 1.707961 1.247961 -0.46
665.2578125 1.788652 1.223764 -0.564888
666.0 1.856296 1.365 -0.491296
666.71484375 1.686946 1.247733 -0.439213
667.44140625 1.819337 1.26495 -0.554387
668.15625 1.757493 1.227522 -0.529971
668.85546875 1.779502 1.329837 -0.449665
669.546875 1.834105 1.289141 -0.544964
670.25390625 1.8050000000000002 1.28 -0.525
670.99609375 1.770909 1.305785 -0.465124
671.74609375 1.82826 1.369809 -0.458451
672.16796875 2.474953 1.866497 -0.608456
673.19921875 1.8100939999999999 1.343192 -0.466902
673.91015625 1.785466 1.315474 -0.469992
674.59765625 1.7949579999999998 1.301348 -0.49361
675.30078125 1.7737640000000001 1.272312 -0.501452
676.015625 1.7962500000000001 1.30125 -0.495
676.75390625 1.8486859999999998 1.343686 -0.505
677.48046875 1.759372 1.279619 -0.479753
678.2109375 1.8066559999999998 1.34475 -0.461906
678.93359375 1.790845 1.280845 -0.51
679.64453125 1.809978 1.26 -0.549978
680.34375 1.810922 1.280922 -0.53
681.03125 1.751282 1.23 -0.521282
681.7265625 1.8471030000000002 1.274985 -0.572118
682.453125 1.7831350000000001 1.235 -0.548135
683.21484375 1.7987069999999998 1.23027 -0.568437
683.95703125 1.707088 1.276204 -0.430884
684.67578125 1.8351959999999998 1.235196 -0.6
685.38671875 1.8019 1.1669 -0.635
686.09375 1.6967160000000001 1.188398 -0.508318
686.7890625 1.8624990000000001 1.252499 -0.61
687.4921875 1.8379400000000001 1.263004 -0.574936
688.203125 1.817035 1.212089 -0.604946
688.9375 1.7075179999999999 1.185682 -0.521836
689.671875 1.598887 1.138887 -0.46
690.4296875 1.6273719999999998 1.092372 -0.535
691.15625 1.811357 1.2725 -0.538857
691.8515625 1.7267700000000001 1.282045 -0.444725
692.53125 1.781364 1.271383 -0.509981
693.234375 1.756129 1.151129 -0.605
693.9296875 1.6967240000000001 1.141724 -0.555
694.67578125 1.797376 1.267376 -0.53
695.44140625 1.815627 1.294055 -0.521572
696.1796875 1.799226 1.289226 -0.51
696.89453125 1.7999999999999998 1.295 -0.505
697.60546875 1.804822 1.329882 -0.47494
698.328125 1.773243 1.333253 -0.43999
699.0234375 1.782767 1.322767 -0.46
699.70703125 1.774278 1.286727 -0.487551
700.4375 1.759652 1.290648 -0.469004
701.1796875 1.7571240000000001 1.223508 -0.533616
701.93359375 1.802123 1.244557 -0.557566
702.69140625 1.805482 1.216625 -0.588857
703.40234375 1.740847 1.166366 -0.574481
704.09375 1.787005 1.196591 -0.590414
704.80078125 1.8184479999999998 1.253448 -0.565
705.53125 1.7859219999999998 1.280922 -0.505
706.2578125 1.8245589999999998 1.319588 -0.504971
706.734375 2.480265 1.870513 -0.609752
707.75390625 1.802374 1.227434 -0.57494
708.5078125 1.70705 1.16705 -0.54
709.234375 1.7984810000000002 1.243481 -0.555
709.96484375 1.79249 1.253673 -0.538817
710.66015625 1.790193 1.291505 -0.498688
711.37109375 1.70452 1.135 -0.56952
712.09375 1.7279269999999998 1.17 -0.557927
712.859375 1.81125 1.22625 -0.585
713.625 1.7589260000000002 1.225 -0.533926
714.3828125 1.7702090000000001 1.206951 -0.563258
715.1171875 1.77609 1.21109 -0.565
715.83203125 1.742704 1.168223 -0.574481
716.5390625 1.7944369999999998 1.219952 -0.574485
717.265625 1.7740110000000002 1.229043 -0.544968
718.00390625 1.768209 1.196065 -0.572144
718.7578125 1.765897 1.190897 -0.575
719.5078125 1.755769 1.160807 -0.594962
720.2734375 1.7560639999999998 1.208337 -0.547727
721.03125 1.783457 1.247087 -0.53637
721.75 1.739344 1.21 -0.529344
722.453125 1.764905 1.264915 -0.49999
723.16015625 1.767097 1.26714 -0.499957
723.88671875 1.708983 1.234198 -0.474785
724.6484375 1.811902 1.277065 -0.534837
725.42578125 1.808495 1.185616 -0.622879
726.19140625 1.817103 1.198329 -0.618774
726.93359375 1.774074 1.209074 -0.565
727.66796875 1.756018 1.20318 -0.552838
728.40234375 1.768008 1.22 -0.548008
729.125 1.789749 1.27 -0.519749
729.828125 1.830456 1.298483 -0.531973
730.5703125 1.813367 1.273817 -0.53955
731.3359375 1.768303 1.245569 -0.522734
732.1015625 1.728472 1.254406 -0.474066
732.86328125 1.814722 1.334722 -0.48
733.58984375 1.7904950000000002 1.312839 -0.477656
734.28515625 1.7587700000000002 1.238777 -0.519993
735.00390625 1.7869350000000002 1.219254 -0.567681
735.74609375 1.822327 1.215 -0.607327
736.4765625 1.7585989999999998 1.221272 -0.537327
737.22265625 1.823584 1.273584 -0.55
737.9765625 1.809086 1.269086 -0.54
738.73046875 1.808086 1.294958 -0.513128
739.46484375 1.7911190000000001 1.301195 -0.489924
740.1953125 1.8371970000000002 1.318896 -0.518301
740.90234375 1.808831 1.288831 -0.52
741.609375 1.746891 1.269391 -0.4775
742.34375 1.834888 1.33 -0.504888
743.125 1.851578 1.34 -0.511578
743.875 1.795855 1.295 -0.500855
744.625 1.824945 1.335 -0.489945
745.35546875 1.810017 1.335559 -0.474458
746.06640625 1.7994080000000001 1.324834 -0.474574
746.76953125 1.7849270000000002 1.289927 -0.495
747.49609375 1.841005 1.326308 -0.514697
748.2265625 1.855467 1.327786 -0.527681
748.6796875 2.613816 1.954661 -0.659155
749.71484375 1.7547490000000001 1.272879 -0.48187
750.48828125 1.700361 1.17 -0.530361
751.21875 1.725892 1.230924 -0.494968
751.9375 1.793984 1.264048 -0.529936
752.62890625 1.801802 1.260785 -0.541017
753.328125 1.812492 1.254813 -0.557679
754.04296875 1.848641 1.309793 -0.538848
754.796875 1.834482 1.283427 -0.551055
755.5546875 1.8399869999999998 1.271378 -0.568609
756.296875 1.797544 1.263085 -0.534459
757.0234375 1.817148 1.296957 -0.520191
757.74609375 1.7993960000000002 1.274396 -0.525
758.46484375 1.843859 1.305421 -0.538438
759.17578125 1.822536 1.308953 -0.513583
759.8828125 1.833148 1.345 -0.488148
760.61328125 1.8583120000000002 1.353312 -0.505
761.3671875 1.7938830000000001 1.300446 -0.493437
762.1328125 1.796986 1.301986 -0.495
762.8828125 1.841605 1.346605 -0.495
763.59375 1.781691 1.29966 -0.482031
764.2890625 1.920172 1.169742 -0.75043
764.98828125 1.858608 1.401038 -0.45757
765.72265625 1.819833 1.675993 -0.14384
766.44921875 1.608052 1.142134 -0.465918
767.18359375 1.791963 1.334649 -0.457314
767.921875 1.923977 1.413977 -0.51
768.66796875 1.8971999999999998 1.203855 -0.693345
769.38671875 1.669606 1.16973 -0.499876
770.08984375 1.801908 1.203689 -0.598219
770.79296875 1.686021 1.201093 -0.484928
771.50390625 1.736722 1.216973 -0.519749
772.2109375 1.7024430000000002 1.166662 -0.535781
772.97265625 1.711054 1.142568 -0.568486
773.73046875 1.7322570000000002 1.169866 -0.562391
774.48046875 1.759443 1.219981 -0.539462
775.19921875 1.710783 1.168558 -0.542225
775.91015625 1.733636 1.213636 -0.52
776.59765625 1.740901 1.22 -0.520901
777.3125 1.737654 1.239826 -0.497828
778.05078125 1.756321 1.273561 -0.48276
778.78515625 1.739478 1.289507 -0.449971
779.51171875 1.754977 1.265009 -0.489968
780.265625 1.697924 1.164217 -0.533707
781.015625 1.7128360000000002 1.130605 -0.582231
781.71875 1.7082060000000001 1.093269 -0.614937
782.39453125 1.7341290000000003 1.154983 -0.579146
783.09375 1.78535 1.22689 -0.55846
783.79296875 1.7700619999999998 1.210087 -0.559975
784.52734375 1.7181220000000001 1.198136 -0.519986
785.28515625 1.798148 1.233206 -0.564942
786.01953125 1.7369409999999998 1.224877 -0.512064
786.75 1.739753 1.215 -0.524753
787.46484375 1.708967 1.193708 -0.515259
788.18359375 1.784316 1.244316 -0.54
788.8671875 1.7438859999999998 1.234511 -0.509375
789.56640625 1.732488 1.262488 -0.47
790.27734375 1.742373 1.252373 -0.49
791.015625 1.7823069999999999 1.241406 -0.540901
791.75 1.775 1.19 -0.585
792.4921875 1.715713 1.149815 -0.565898
793.2109375 1.756858 1.214591 -0.542267
793.91015625 1.707268 1.193081 -0.514187
794.59375 1.730742 1.151211 -0.579531
795.29296875 1.738501 1.167421 -0.57108
796.00390625 1.6942400000000002 1.206973 -0.487267
796.7421875 1.7378790000000002 1.288126 -0.449753
797.46484375 1.743497 1.315299 -0.428198
798.1953125 1.780303 1.39531 -0.384993
798.921875 1.756696 1.334203 -0.422493
799.6328125 1.7673480000000001 1.393976 -0.373372
800.33984375 1.707341 1.340631 -0.36671
801.0234375 1.712507 1.203356 -0.509151
801.71875 1.5619290000000001 1.066929 -0.495
802.42578125 1.5993339999999998 1.145355 -0.453979
803.18359375 1.5890680000000001 1.174681 -0.414387
803.9296875 1.820902 1.184226 -0.636676
804.66015625 1.664275 1.197791 -0.466484
805.35546875 1.614877 1.14 -0.474877
806.0546875 1.6336620000000002 1.157375 -0.476287
806.74609375 1.627634 1.12888 -0.498754
807.44921875 1.6278839999999999 1.127454 -0.50043
808.17578125 1.672569 1.190003 -0.482566
808.91015625 1.626906 1.1 -0.526906
809.63671875 1.6242860000000001 1.114286 -0.51
810.39453125 1.678308 1.174558 -0.50375
811.1328125 1.662512 1.173192 -0.48932
811.83984375 1.6128149999999999 1.149108 -0.463707
812.51171875 1.653492 1.178492 -0.475
813.2109375 1.704555 1.249946 -0.454609
813.91796875 1.6402679999999998 1.148696 -0.491572
814.6484375 1.613213 1.123994 -0.489219
815.40625 1.6693030000000002 1.139339 -0.529964
816.140625 1.677085 1.140436 -0.536649
816.859375 1.677133 1.218097 -0.459036
817.56640625 1.7730139999999999 1.229479 -0.543535
818.28515625 1.813206 1.038206 -0.775
818.97265625 1.6847539999999999 0.86 -0.824754
819.6640625 1.599641 0.744658 -0.854983
820.3828125 1.657174 0.908138 -0.749036
821.12109375 1.6180880000000002 1.018088 -0.6
821.84765625 1.596735 1.184866 -0.411869
822.58984375 1.642582 1.317723 -0.324859
823.30859375 1.6738490000000001 1.436479 -0.23737
823.7265625 2.509661 2.057384 -0.452277
824.67578125 1.4892539999999999 1.254573 -0.234681
825.390625 1.624157 1.265438 -0.358719
826.109375 1.689749 1.27 -0.419749
826.83984375 1.6497979999999999 1.163914 -0.485884
827.56640625 1.674282 1.061647 -0.612635
828.2890625 1.624764 1.014955 -0.609809
829.00390625 1.629188 1.059188 -0.57
829.71484375 1.650525 1.095525 -0.555
830.421875 1.654004 1.125 -0.529004
831.1015625 1.637669 1.117707 -0.519962
831.7890625 1.725254 1.110556 -0.614698
832.51171875 1.7236470000000002 1.044739 -0.678908
833.26953125 1.779899 1.074906 -0.704993
834.00390625 1.746131 1.116188 -0.629943
834.73046875 1.706951 1.164876 -0.542075
835.4296875 1.5587779999999998 1.063778 -0.495
836.12890625 1.7397010000000002 1.207249 -0.532452
836.8203125 1.774841 1.179851 -0.59499
837.53125 1.700918 1.066344 -0.634574
838.2421875 1.727639 1.189381 -0.538258
838.9765625 1.661675 1.05732 -0.604355
839.70703125 1.663238 1.038238 -0.625
840.4453125 1.683154 1.075 -0.608154
841.171875 1.7045309999999998 1.084531 -0.62
841.8671875 1.651087 1.034479 -0.616608
842.5390625 1.723283 1.069955 -0.653328
843.22265625 1.7667599999999999 1.107619 -0.659141
843.921875 1.699349 1.104349 -0.595
844.65625 1.782801 1.192818 -0.589983
845.3984375 1.783627 1.175843 -0.607784
846.125 1.7139820000000001 1.12 -0.593982
846.83984375 1.727677 1.03281 -0.694867
847.53515625 1.461212 1.051238 -0.409974
848.234375 1.811019 1.317598 -0.493421
848.91796875 2.047489 2.198739 0.15125
849.59765625 0.8792889999999998 2.439697 1.560408
851.73828125 0.814902 0.375 -0.439902
852.46484375 1.027824 0.108612 -0.919212
853.1796875 1.356735 -0.216055 -1.57279
853.8671875 1.481431 -0.671384 -2.152815
854.5234375 1.544375 -0.652955 -2.19733
855.20703125 1.5522989999999999 -0.211883 -1.764182
855.921875 1.5832970000000002 0.213297 -1.37
856.640625 1.709406 0.474406 -1.235
857.3515625 1.761007 1.291007 -0.47
858.0703125 1.7082039999999998 1.758924 0.05072
858.79296875 1.7950380000000001 1.766679 -0.028359
859.48828125 1.806797 1.16 -0.646797
860.1796875 1.6472769999999999 0.972283 -0.674994
860.85546875 1.538864 0.684114 -0.85475
861.53125 1.624946 1.002727 -0.622219
862.22265625 1.662985 1.212672 -0.450313
862.96484375 1.6699279999999999 1.571416 -0.098512
863.6953125 1.7252390000000002 1.543403 -0.181836
864.421875 1.700623 1.403255 -0.297368
865.1171875 1.8150650000000002 1.475896 -0.339169
865.5078125 2.950005 2.437941 -0.512064
866.46484375 1.931806 1.571904 -0.359902
867.15625 1.816099 1.504263 -0.311836
867.859375 1.6649999999999998 1.38 -0.285
868.5546875 1.813296 1.417535 -0.395761
869.265625 1.7828 1.377925 -0.404875
869.984375 1.675164 1.240988 -0.434176
870.71875 1.758758 1.429658 -0.3291
871.39453125 1.785232 1.395287 -0.389945
872.0625 1.8487829999999998 1.409706 -0.439077
872.71875 1.825517 1.601923 -0.223594
873.3828125 1.597296 1.020446 -0.57685
874.05078125 2.468423 1.794567 -0.673856
874.484375 1.0505200000000001 -0.239453 -1.289973
874.75390625 2.314418 1.505132 -0.809286
875.48046875 1.514898 1.089962 -0.424936
876.15625 1.6736520000000001 0.97207 -0.701582
876.84765625 1.9129669999999999 1.32845 -0.584517
877.51953125 1.8274369999999998 1.194937 -0.6325
878.18359375 1.753975 1.098975 -0.655
878.84765625 1.8706049999999999 0.730706 -1.139899
879.51171875 1.743635 0.65385 -1.089785
880.1875 1.812322 0.717328 -1.094994
880.88671875 1.8268270000000002 1.103072 -0.723755
881.59765625 1.806759 1.384418 -0.422341
882.31640625 1.6513630000000001 1.224749 -0.426614
883.02734375 1.787261 1.568115 -0.219146
883.70703125 1.561784 1.576456 0.014672
884.375 1.60993 1.85 0.24007
885.04296875 1.7502039999999999 1.747528 -0.002676
885.74609375 1.634439 1.814585 0.180146
886.44921875 1.618187 1.650941 0.032754
887.15625 1.710719 1.511238 -0.199481
887.859375 1.6605809999999999 1.275645 -0.384936
888.5859375 1.659923 1.169923 -0.49
889.28515625 1.636517 1.19766 -0.438857
889.96484375 1.710641 1.282985 -0.427656
890.6484375 1.6290300000000002 1.229062 -0.399968
891.33203125 1.667094 1.28061 -0.386484
892.01171875 1.674005 1.204129 -0.469876
892.734375 1.7230059999999998 1.113317 -0.609689
893.4765625 1.661581 1.050159 -0.611422
894.19921875 1.644358 1.137113 -0.507245
894.89453125 1.669885 1.149909 -0.519976
895.5859375 1.754079 1.24457 -0.509509
896.2734375 1.749063 1.219151 -0.529912
896.953125 1.7941099999999999 1.15411 -0.64
897.6484375 1.737111 1.191783 -0.545328
898.34765625 1.615402 1.06233 -0.553072
899.078125 1.594077 1.054483 -0.539594
899.80078125 1.6971239999999999 1.122124 -0.575
900.5390625 1.5937240000000001 1.049867 -0.543857
901.2578125 1.760877 1.147632 -0.613245
901.94921875 1.6252929999999999 1.042336 -0.582957
902.62109375 1.990962 0.901284 -1.089678
903.3203125 1.7944779999999998 1.194478 -0.6
904.01171875 1.7604099999999998 1.165749 -0.594661
904.7421875 1.64364 1.12 -0.52364
905.50390625 1.6823299999999999 1.1431 -0.53923
906.22265625 1.677476 1.112476 -0.565
906.93359375 1.663934 1.133934 -0.53
907.640625 1.7071720000000001 1.157172 -0.55
908.359375 1.6869839999999998 1.1679 -0.519084
909.046875 1.738901 1.238901 -0.5
909.74609375 1.7197250000000002 1.235 -0.484725
910.4609375 1.705788 1.206115 -0.499673
911.20703125 1.739894 1.178824 -0.56107
911.953125 1.651471 1.142404 -0.509067
912.6953125 1.706501 1.213775 -0.492726
913.4140625 1.7284819999999999 1.234708 -0.493774
914.109375 1.7059900000000001 1.179391 -0.526599
914.8046875 1.6817959999999998 1.176796 -0.505
915.5234375 1.711592 1.177739 -0.533853
916.25390625 1.710142 1.180954 -0.529188
917.0 1.69383 1.2 -0.49383
917.73828125 1.6685500000000002 1.223691 -0.444859
918.4765625 1.638428 1.223662 -0.414766
919.19921875 1.742338 1.317348 -0.42499
919.9140625 1.675922 1.248697 -0.427225
920.6171875 1.765803 1.321078 -0.444725
921.3125 1.744048 1.304048 -0.44
922.01953125 1.717081 1.229975 -0.487106
922.76171875 1.668832 1.236726 -0.432106
923.52734375 1.7513 1.286322 -0.464978
924.27734375 1.734388 1.252669 -0.481719
924.9921875 1.707848 1.177848 -0.53
925.69140625 1.699896 1.189896 -0.51
926.39453125 1.70781 1.234539 -0.473271
927.1015625 1.775 1.29 -0.485
927.8125 1.718906 1.230132 -0.488774
928.5390625 1.751214 1.244453 -0.506761
929.28125 1.737441 1.222441 -0.515
930.01953125 1.659429 1.209605 -0.449824
930.7734375 1.674957 1.24 -0.434957
931.4921875 1.776144 1.345 -0.431144
932.1875 1.730586 1.310833 -0.419753
932.875 1.6542109999999999 1.275 -0.379211
933.58984375 1.757051 1.337051 -0.42
934.3046875 1.790266 1.340266 -0.45
935.05859375 1.6871479999999999 1.269834 -0.417314
935.81640625 1.685683 1.258369 -0.427314
936.5625 1.734375 1.274375 -0.46
937.26953125 1.6748060000000002 1.149906 -0.5249
937.984375 1.6504699999999999 1.152942 -0.497528
938.6953125 1.6732049999999998 1.164299 -0.508906
939.3984375 1.7007370000000002 1.142665 -0.558072
940.1015625 1.653713 1.11896 -0.534753
940.83984375 1.725161 1.200458 -0.524703
941.58203125 1.68 1.19 -0.49
942.33203125 1.692336 1.203117 -0.489219
943.08203125 1.7033490000000002 1.16884 -0.534509
943.78125 1.642889 1.146317 -0.496572
944.46875 1.683767 1.198799 -0.484968
945.1796875 1.7012109999999998 1.206211 -0.495
945.9140625 1.685358 1.194955 -0.490403
946.6484375 1.718808 1.258964 -0.459844
947.3828125 1.7106759999999999 1.207528 -0.503148
948.140625 1.6905869999999998 1.141106 -0.549481
948.87109375 1.652905 1.134123 -0.518782
949.59765625 1.736163 1.181163 -0.555
950.31640625 1.7212669999999999 1.154764 -0.566503
951.0078125 1.656898 1.113724 -0.543174
951.7109375 1.759515 1.239515 -0.52
952.44140625 1.7042009999999999 1.209201 -0.495
953.20703125 1.681101 1.156847 -0.524254
953.94140625 1.61962 1.144663 -0.474957
954.6875 1.6927240000000001 1.254853 -0.437871
955.40625 1.68455 1.27 -0.41455
956.11328125 1.7941470000000002 1.327647 -0.4665
956.81640625 1.663117 1.17586 -0.487257
957.5390625 1.67012 1.202112 -0.468008
958.2734375 1.701025 1.2238 -0.477225
959.015625 1.6534440000000001 1.209229 -0.444215
959.765625 1.710009 1.263374 -0.446635
960.53125 1.673178 1.218472 -0.454706
961.2734375 1.665502 1.195268 -0.470234
961.99609375 1.699117 1.179117 -0.52
962.6875 1.694588 1.150658 -0.54393
963.40234375 1.695478 1.146371 -0.549107
964.12890625 1.63951 1.125 -0.51451
964.89453125 1.704707 1.210537 -0.49417
965.66015625 1.673474 1.124626 -0.548848
966.41796875 1.645296 1.04318 -0.602116
967.1484375 1.611035 1.076816 -0.534219
967.87890625 1.7740339999999999 1.249034 -0.525
968.60546875 1.659951 1.144951 -0.515
969.3203125 1.633986 1.121425 -0.512561
970.03125 1.7367819999999998 1.191037 -0.545745
970.76953125 1.644063 1.169912 -0.474151
971.5234375 1.7186430000000001 1.253643 -0.465
972.2734375 1.606052 1.153326 -0.452726
973.015625 1.71116 1.27616 -0.435
973.7265625 1.781103 1.336103 -0.445
974.421875 1.738915 1.233915 -0.505
975.1328125 1.69279 1.19827 -0.49452
975.875 1.724734 1.22 -0.504734
976.6171875 1.737097 1.189597 -0.5475
977.3515625 1.6252620000000002 1.088966 -0.536296
978.109375 1.815798 1.170798 -0.645
978.84765625 1.7437939999999998 1.313794 -0.43
979.578125 1.824706 1.268124 -0.556582
980.30859375 1.865595 1.428578 -0.437017
981.015625 1.71475 1.34 -0.37475
981.73046875 1.7243620000000002 1.329995 -0.394367
982.46484375 1.6363590000000001 1.121386 -0.514973
983.25 1.734188 1.17 -0.564188
983.9921875 1.6362290000000002 1.269085 -0.367144
984.7265625 1.630696 1.196545 -0.434151
985.453125 1.610603 1.179151 -0.431452
986.1640625 1.659376 1.194782 -0.464594
986.8828125 1.693133 1.209633 -0.4835
987.62109375 1.656226 1.206226 -0.45
988.36328125 1.734739 1.150085 -0.584654
989.125 1.5998320000000001 0.855 -0.744832
989.88671875 1.982946 1.354737 -0.628209
990.67578125 1.7165629999999998 1.221563 -0.495
991.41015625 1.6688999999999998 1.1764 -0.4925
992.12890625 1.7008809999999999 1.306034 -0.394847
992.84375 1.863076 0.964987 -0.898089
993.5703125 1.5429 1.033896 -0.509004
994.3125 1.7030020000000001 0.916952 -0.78605
995.07421875 1.641768 0.775 -0.866768
995.8203125 1.6824810000000001 1.072481 -0.61
996.5625 1.6056590000000002 1.2757 -0.329959
997.2890625 1.651992 1.174639 -0.477353
998.01171875 1.710026 1.260959 -0.449067
998.71484375 2.5867620000000002 1.607696 -0.979066
999.4296875 1.672098 1.282098 -0.39
1000.15234375 1.580832 1.123176 -0.457656
1000.90234375 1.7 1.2 -0.5
1001.65234375 1.6414279999999999 1.138877 -0.502551
1002.41015625 1.605332 1.110382 -0.49495
1003.14453125 1.834141 1.105 -0.729141
1003.8515625 1.671777 0.958272 -0.713505
1004.5390625 1.689387 1.225 -0.464387
1005.2578125 1.838187 1.299819 -0.538368
1005.984375 1.6837460000000002 1.029255 -0.654491
1006.734375 1.734938 1.207884 -0.527054
1007.47265625 1.4332610000000001 0.934243 -0.499018
1008.2109375 1.59976 1.17476 -0.425
1008.9453125 1.463956 1.184851 -0.279105
1009.6640625 1.691893 1.31485 -0.377043
1010.375 1.7598479999999999 1.17 -0.589848
1011.06640625 1.688815 1.284276 -0.404539
1011.7734375 1.642967 1.262967 -0.38
1012.4921875 1.7318449999999999 1.23068 -0.501165
1013.26953125 1.71997 1.40497 -0.315
1014.01953125 1.679938 1.289938 -0.39
1014.74609375 1.6991960000000002 1.184433 -0.514763
1015.453125 1.8022749999999998 1.392912 -0.409363
1016.16015625 1.713173 1.138173 -0.575
1016.8515625 1.714369 1.197263 -0.517106
1017.55859375 2.309869 1.334009 -0.97586
1018.27734375 1.711592 1.273584 -0.438008
1019.0078125 1.821836 1.433086 -0.38875
1019.734375 1.905983 1.337858 -0.568125
1020.48828125 1.843968 1.124058 -0.71991
1021.21875 2.0020819999999997 1.357109 -0.644973
1021.4765625 0.864832 0.104067 -0.760765
1021.91015625 1.812855 1.431996 -0.380859
1022.58984375 1.841501 1.02947 -0.812031
1023.28515625 1.639961 1.327729 -0.312232
1023.9765625 1.65096 1.024968 -0.625992
1024.7109375 1.591761 1.5 -0.091761
1025.4609375 1.6287220000000002 1.334615 -0.294107
1026.18359375 1.6008209999999998 0.944847 -0.655974
1026.88671875 1.925065 1.345087 -0.579978
1027.58984375 1.794891 1.342624 -0.452267
1028.296875 1.8095439999999998 1.239815 -0.569729
1028.96875 1.675272 1.211346 -0.463926
1029.6484375 1.9912519999999998 1.296614 -0.694638
1029.9375 1.735886 1.015886 -0.72
1030.3515625 1.6873879999999999 0.952423 -0.734965
1030.79296875 1.036202 0.606202 -0.43
1031.08203125 1.698667 1.166196 -0.532471
1031.59375 2.398401 1.299837 -1.098564
1032.53125 3.8379049999999997 0.906214 -2.931691
1033.234375 1.698051 1.38349 -0.314561
1033.91015625 1.732408 1.220758 -0.51165
1034.56640625 1.6532550000000001 1.228255 -0.425
1035.25 1.6383329999999998 1.18 -0.458333
1035.94921875 1.6954799999999999 1.279567 -0.415913
1036.65625 1.727327 1.286875 -0.440452
1037.359375 1.728491 1.263491 -0.465
1038.07421875 1.724983 1.28 -0.444983
1038.7734375 1.765632 1.271757 -0.493875
1039.47265625 1.7672150000000002 1.219715 -0.5475
1040.16015625 1.730629 1.245658 -0.484971
1040.828125 1.738991 1.243991 -0.495
1041.51171875 1.9015520000000001 1.300697 -0.600855
1042.203125 1.703046 1.139272 -0.563774
1042.9296875 1.706715 1.190211 -0.516504
1043.66015625 1.656784 1.28127 -0.375514
1044.38671875 1.716338 1.20705 -0.509288
1045.0703125 1.592105 0.922105 -0.67
1045.74609375 1.7329109999999999 1.288158 -0.444753
1046.4140625 1.752478 1.32493 -0.427548
1047.09765625 1.6408230000000001 1.246375 -0.394448
1047.7890625 1.7441619999999998 1.269162 -0.475
1048.4765625 1.738626 1.208348 -0.530278
1049.19140625 1.7395530000000001 1.189553 -0.55
1049.90234375 1.6690360000000002 1.174036 -0.495
1050.6328125 1.7444680000000001 1.229807 -0.514661
1051.32421875 1.720161 1.245 -0.475161
1051.9921875 1.705215 1.265 -0.440215
1052.65234375 1.80182 1.38182 -0.42
1053.32421875 1.7501600000000002 1.320947 -0.429213
1054.0078125 1.763231 1.303332 -0.459899
1054.72265625 1.694218 1.214218 -0.48
1055.453125 1.73049 1.207131 -0.523359
1056.16796875 1.725843 1.252844 -0.472999
1056.859375 1.696761 1.236761 -0.46
1057.5390625 1.6940790000000001 1.229931 -0.464148
1058.23046875 1.729936 1.299936 -0.43
1058.8984375 1.7203530000000002 1.263289 -0.457064
1059.55859375 1.651641 1.199395 -0.452246
1060.24609375 1.646566 1.167445 -0.479121
1060.9609375 1.8030279999999999 1.294384 -0.508644
1061.66796875 1.6730200000000002 1.346329 -0.326691
1062.3828125 1.7674219999999998 1.347454 -0.419968
1063.0859375 1.7064780000000002 1.169828 -0.53665
1063.7578125 1.6825679999999998 1.166715 -0.515853
1064.40625 1.748856 1.266305 -0.482551
1065.078125 2.0913880000000002 1.861388 -0.23
1065.45703125 0.26107199999999997 -0.60841 -0.869482
1065.7734375 1.762074 0.887558 -0.874516
1066.46875 1.941113 1.272321 -0.668792
1067.16015625 1.5577290000000001 0.957729 -0.6
1067.859375 1.8451579999999999 0.717949 -1.127209
1068.56640625 1.5589389999999999 1.253939 -0.305
1068.95703125 0.916174 -0.528365 -1.444539
1069.2421875 1.7831370000000002 1.788137 0.0050
1069.9140625 1.844462 1.369877 -0.474585
1070.578125 1.678569 1.113579 -0.56499
1071.23046875 1.709361 1.164399 -0.544962
1071.88671875 1.7133070000000001 1.205626 -0.507681
1072.5859375 1.6392760000000002 1.128778 -0.510498
1073.3203125 1.71779 1.215 -0.50279
1074.01953125 1.687229 1.174962 -0.512267
1074.703125 1.6871070000000001 1.17772 -0.509387
1075.37890625 1.62 1.08 -0.54
1076.05078125 1.703173 1.158173 -0.545
1076.70703125 1.7232530000000001 1.129507 -0.593746
1077.38671875 1.649633 1.173228 -0.476405
1077.9609375 0.571434 0.519062 -0.052372
1078.765625 1.677359 1.266379 -0.41098
1079.46484375 1.635907 1.204837 -0.43107
1080.1796875 1.60257 1.15257 -0.45
1080.890625 1.657852 1.189534 -0.468318
1081.5703125 1.6638009999999999 1.178801 -0.485
1082.21875 1.6229930000000001 1.148462 -0.474531
1082.8828125 1.631753 1.132184 -0.499569
1083.55859375 1.688945 1.178945 -0.51
1084.25390625 1.6485029999999998 1.153503 -0.495
1084.96875 1.6198199999999998 1.145139 -0.474681
1085.68359375 1.621137 1.128824 -0.492313
1086.3984375 1.616647 1.131673 -0.484974
1087.0859375 1.675179 1.209851 -0.465328
1087.76171875 1.593862 1.123862 -0.47
1088.44921875 1.678158 1.178472 -0.499686
1089.125 1.634876 1.125 -0.509876
1089.7890625 1.637775 1.124641 -0.513134
1090.47265625 1.6167259999999999 1.143757 -0.472969
1091.1953125 1.6683469999999998 1.152092 -0.516255
1091.921875 1.695971 1.169684 -0.526287
1092.63671875 1.5742599999999998 1.0531 -0.52116
1093.31640625 1.4523679999999999 1.094417 -0.357951
1093.99609375 1.6197380000000001 1.194738 -0.425
1094.65625 1.677855 1.137126 -0.540729
1095.34375 1.687157 1.187821 -0.499336
1096.0390625 1.698571 1.178997 -0.519574
1096.75390625 1.6888329999999998 1.104272 -0.584561
1097.44921875 1.696277 1.134268 -0.562009
1098.16015625 1.666565 1.187791 -0.478774
1098.859375 1.68587 1.185954 -0.499916
1099.5546875 1.745816 1.205055 -0.540761
1100.23828125 1.786937 1.280416 -0.506521
1100.90234375 1.743075 1.237884 -0.505191
1101.57421875 1.7436909999999999 1.252773 -0.490918
1102.26953125 1.7739159999999998 1.2949 -0.479016
1103.0078125 1.733315 1.238745 -0.49457
1103.7265625 1.662234 1.203976 -0.458258
1104.43359375 1.748593 1.298593 -0.45
1105.1328125 1.81102 1.396605 -0.414415
1105.81640625 1.804319 1.309326 -0.494993
1106.48046875 1.874083 1.379964 -0.494119
1106.87109375 0.638558 0.35861 -0.279948
1107.16796875 2.323944 0.590105 -1.733839
1107.87109375 1.744355 1.052083 -0.692272
1108.57421875 1.5928749999999998 1.142939 -0.449936
1109.28125 1.602953 1.138922 -0.464031
1110.01171875 1.6239029999999999 1.11321 -0.510693
1110.75 1.6566670000000001 1.155 -0.501667
1111.44140625 1.6447600000000002 1.09976 -0.545
1112.11328125 1.626009 1.041439 -0.58457
1112.796875 1.644578 1.089578 -0.555
1113.484375 1.6731029999999998 1.118159 -0.554944
1114.18359375 1.888121 1.174163 -0.713958
1114.921875 1.654363 0.98 -0.674363
1115.65234375 1.6676890000000002 1.162695 -0.504994
1116.37109375 1.650964 1.081018 -0.569946
1117.0703125 1.614751 1.064751 -0.55
1117.77734375 1.7439939999999998 1.14 -0.603994
1118.46875 1.662769 1.135455 -0.527314
1119.15625 1.59322 1.109339 -0.483881
1119.84375 1.665889 1.154159 -0.51173
1120.55078125 1.6807020000000001 1.140571 -0.540131
1121.28515625 1.7375889999999998 1.212589 -0.525
1122.03125 1.669409 1.159409 -0.51
1122.77734375 1.626099 1.118993 -0.507106
1123.46875 1.73 1.205 -0.525
1124.14453125 1.724856 1.15497 -0.569886
1124.828125 1.619885 1.129917 -0.489968
1125.54296875 1.6047230000000001 1.23995 -0.364773
1126.2421875 1.625357 1.395382 -0.229975
1126.96484375 1.6413790000000001 1.237691 -0.403688
1127.6875 1.7514159999999999 1.206087 -0.545329
1128.4140625 1.703497 1.224723 -0.478774
1129.11328125 1.5879020000000001 0.995693 -0.592209
1129.80859375 1.629952 1.109952 -0.52
1130.49609375 1.664707 1.159707 -0.505
1131.1796875 1.807099 1.261019 -0.54608
1131.8671875 1.809016 1.119397 -0.689619
1132.58203125 1.650609 1.232717 -0.417892
1133.33984375 1.714277 1.134979 -0.579298
1134.07421875 2.319838 1.58864 -0.731198
1134.765625 1.6046170000000002 1.264785 -0.339832
1135.453125 1.918298 1.373298 -0.545
1136.1328125 2.117662 1.317717 -0.799945
1136.8046875 1.54644 1.22644 -0.32
1137.4921875 1.760613 1.310613 -0.45
1138.171875 1.773613 1.271104 -0.502509
1138.890625 1.880854 1.399936 -0.480918
1139.59765625 1.8364690000000001 1.104664 -0.731805
1140.32421875 1.6225329999999998 1.054852 -0.567681
1141.0546875 1.6170080000000002 1.102008 -0.515
1141.73828125 2.161177 1.476237 -0.68494
1142.39453125 1.950158 1.120283 -0.829875
1143.0703125 2.109578 1.015017 -1.094561
1143.3515625 2.5481689999999997 0.264941 -2.283228
1143.75390625 2.1730519999999998 2.177151 0.004099
1144.46875 2.387332 1.054682 -1.33265
1145.20703125 1.448199 1.473523 0.025324
1145.921875 2.204447 0.669447 -1.535
1146.625 1.974254 1.53 -0.444254
1147.359375 0.05669299999999999 -0.438307 -0.495
1148.0078125 1.481232 1.153107 -0.328125
1148.6796875 1.544926 1.234926 -0.31
1149.3515625 1.810265 1.500265 -0.31
1150.0390625 1.6807020000000001 1.211556 -0.469146
1150.7578125 1.614865 1.214356 -0.400509
1151.4765625 1.653923 1.183923 -0.47
1152.21484375 1.6791870000000002 1.219378 -0.459809
1152.94140625 1.685393 1.237442 -0.447951
1153.62890625 1.6854339999999999 1.241034 -0.4444
1154.30078125 1.6294959999999998 1.200824 -0.428672
1155.0 1.7198950000000002 1.29 -0.429895
1155.7109375 1.689697 1.224697 -0.465
1156.41796875 1.644015 1.184015 -0.46
1157.13671875 1.67883 1.23883 -0.44
1157.87109375 1.718151 1.256178 -0.461973
1158.59765625 1.722802 1.297802 -0.425
1159.3125 1.662245 1.257882 -0.404363
1160.01171875 1.676777 1.236777 -0.44
1160.6953125 1.820421 1.211359 -0.609062
1161.3828125 1.628444 1.333991 -0.294453
1162.08203125 1.659521 1.05471 -0.604811
1162.82421875 1.7237740000000001 1.175 -0.548774
1163.5546875 1.695512 1.172283 -0.523229
1164.28515625 1.8438729999999999 1.088365 -0.755508
1164.98828125 1.6962639999999998 1.136475 -0.559789
1165.67578125 1.7257090000000002 1.260709 -0.465
1166.33984375 1.6827640000000001 1.177764 -0.505
1167.03515625 1.751012 1.181861 -0.569151
1167.73046875 1.743323 1.174216 -0.569107
1168.42578125 1.7499129999999998 1.197042 -0.552871
1169.13671875 1.715076 1.275244 -0.439832
1169.8671875 1.74058 1.327129 -0.413451
1170.60546875 1.770413 1.385575 -0.384838
1171.3046875 1.669193 1.208832 -0.460361
1171.98046875 1.604884 1.179884 -0.425
1172.65625 1.682852 1.192966 -0.489886
1173.34375 1.8553579999999998 1.237885 -0.617473
1174.0390625 1.634563 1.119882 -0.514681
1174.76171875 1.611853 1.146853 -0.465
1175.4921875 1.7257419999999999 1.430742 -0.295
1176.2109375 1.6690630000000002 1.37 -0.299063
1176.91015625 1.6436359999999999 1.203636 -0.44
1177.609375 1.7341289999999998 1.219229 -0.5149
1178.3046875 1.6600869999999999 1.125087 -0.535
1178.98828125 1.746741 1.094741 -0.652
1179.6484375 1.646375 0.876375 -0.77
1180.34375 1.64724 0.972391 -0.674849
1181.0625 1.5321099999999999 1.130658 -0.401452
1181.7890625 1.78285 1.24493 -0.53792
1182.5078125 1.828134 1.327672 -0.500462
1183.19921875 1.6039860000000001 1.198657 -0.405329
1183.875 1.70364 1.21 -0.49364
1184.53515625 1.5938890000000001 1.319339 -0.27455
1185.21875 1.609299 1.009661 -0.599638
1185.90625 1.639003 1.30596 -0.333043
1186.32421875 2.545235 1.95 -0.595235
1187.3046875 1.69303 1.277172 -0.415858
1188.0234375 1.764838 1.015 -0.749838
1188.71875 1.720407 1.105407 -0.615
1189.39453125 1.652825 0.985559 -0.667266
1190.078125 1.536599 0.912049 -0.62455
1190.73828125 1.73477 1.438758 -0.296012
1191.39453125 1.472842 1.570557 0.097715
1192.06640625 1.734745 0.919745 -0.815
1192.78515625 1.7840719999999999 1.527791 -0.256281
1193.48828125 2.060701 1.716272 -0.344429
1194.19140625 2.649777 0.624777 -2.025
1194.47265625 0.21394999999999997 0.544673 0.330723
1194.87890625 2.179572 1.605759 -0.573813
0.0 1.194795 -1.0 -2.194795
1195.52734375 1.672497 -0.857987 -2.530484
1195.828125 0.8506159999999999 1.16 0.309384
1196.10546875 3.100124 1.599968 -1.500156
1196.7421875 0.532537 0.342771 -0.189766
1197.52734375 1.664562 1.529562 -0.135
0.0 0.44386499999999995 -1.0 -1.443865
1198.1875 3.111562 1.314531 -1.797031
1198.87109375 1.568743 0.699343 -0.8694
1199.5625 1.486402 1.103824 -0.382578
1200.2734375 2.041021 0.847381 -1.19364
1200.9453125 2.1489979999999997 1.12224 -1.026758
1201.6015625 1.8645559999999999 1.193898 -0.670658
1202.23046875 1.400131 0.929622 -0.470509
1202.49609375 2.435033 0.63239 -1.802643
1202.86328125 2.449966 1.216312 -1.233654
1203.5234375 0.81694 0.902594 0.085654
1203.77734375 1.467619 1.082619 -0.385
1204.18359375 2.066996 1.394796 -0.6722
1204.52734375 2.4046529999999997 1.799653 -0.605
0.0 1.948125 -1.0 -2.948125
1206.06640625 0.45532700000000015 -0.617825 -1.073152
1206.640625 2.402369 1.753729 -0.64864
0.0 0.9796609999999999 -1.0 -1.979661
1207.97265625 5.549697 2.904809 -2.644888
1208.22265625 4.204888 1.56 -2.644888
1208.56640625 0.18887199999999993 -0.616665 -0.805537
1210.14453125 3.324917 2.534917 -0.79
0.0 0.5774170000000001 -1.0 -1.577417
1214.7890625 1.9010320000000003 -0.825112 -2.726144
1215.125 0.651404 0.085 -0.566404
1215.453125 2.5300000000000002 1.35 -1.18
1216.1171875 2.572848 0.507848 -2.065
1216.484375 3.573212 1.818359 -1.754853
1216.796875 1.510599 -0.125417 -1.636016
1217.0546875 1.0925500000000001 0.033576 -1.058974
1217.46875 2.317984 1.351618 -0.966366
1217.796875 0.806479 1.893257 1.086778
1218.16015625 2.020476 1.725476 -0.295
1218.36328125 0.48972600000000005 0.874148 0.384422
1218.82421875 1.953854 1.490001 -0.463853
0.0 1.06535 -1.0 -2.06535
1219.8984375 2.41601 0.89576 -1.52025
1220.1328125 1.8872360000000001 0.613701 -1.273535
1220.76171875 2.02142 0.723551 -1.297869
1221.31640625 0.6044870000000001 1.454487 0.85
1221.953125 0.174388 -0.175736 -0.350124
1222.69140625 3.0565729999999998 0.688281 -2.368292
1223.38671875 1.279821 -0.283709 -1.56353
1223.76953125 1.227562 0.909984 -0.317578
1224.0625 1.782386 1.639091 -0.143295
1224.27734375 1.2433830000000001 0.525 -0.718383
0.0 0.3331360000000001 -1.0 -1.333136
1225.078125 3.399817 1.869866 -1.529951
1225.34375 2.00338 1.633462 -0.369918
1226.29296875 3.444606 1.007431 -2.437175
1226.56640625 0.521454 -0.427667 -0.949121
1227.140625 2.6160330000000003 -0.194486 -2.810519
1227.90234375 2.95831 1.74751 -1.2108
1228.55859375 2.55417 2.479282 -0.074888
1229.21875 1.809917 1.011276 -0.798641
1230.00390625 0.932634 1.311463 0.378829
1230.33203125 1.20853 1.21353 0.0050
1230.59765625 1.571035 2.318606 0.747571
1231.2578125 2.157018 0.222106 -1.934912
0.0 1.168396 -1.0 -2.168396
1231.88671875 1.7362849999999999 1.266776 -0.469509
1232.5234375 2.69104 1.133311 -1.557729
1232.75390625 2.60771 0.459565 -2.148145
1233.171875 1.714608 1.509701 -0.204907
0.0 1.6247509999999998 -1.0 -2.624751
1233.88671875 2.897932 2.793046 -0.104886
1234.21484375 0.383259 -0.5 -0.883259
1235.17578125 1.857148 1.152849 -0.704299
1237.17578125 3.721601 2.237007 -1.484594
1237.84375 1.4565000000000001 0.7415 -0.715
1238.48046875 1.469935 0.914935 -0.555
1239.12109375 2.224433 1.374433 -0.85
1239.76171875 1.518954 0.439122 -1.079832
1240.4296875 1.5978489999999999 1.139978 -0.457871
1241.09375 1.5696809999999999 1.43 -0.139681
1241.78515625 1.7380619999999998 1.468673 -0.269389
1242.28125 0.747821 1.085313 0.337492
1243.0546875 2.5642300000000002 0.244428 -2.319802
1243.7734375 1.6795499999999999 1.387859 -0.291691
1244.25 2.537344 1.325 -1.212344
1244.65625 1.902685 0.199271 -1.703414
1245.05078125 1.825021 1.416271 -0.40875
1245.70703125 2.964495 0.564823 -2.399672
0.0 0.424806 -1.0 -1.424806
1246.7734375 0.317183 -0.167817 -0.485
1247.03125 2.4716940000000003 1.382174 -1.08952
1247.703125 1.561351 0.669132 -0.892219
1248.37109375 1.538792 0.849908 -0.688884
1249.03125 1.520767 0.9585 -0.562267
1249.68359375 1.656388 1.079728 -0.57666
1250.3828125 0.251352 -0.64 -0.891352
1250.63671875 3.825284 1.514002 -2.311282
1250.9375 1.512773 1.262773 -0.25
1251.56640625 2.039261 0.559494 -1.479767
1252.2265625 1.51395 1.121559 -0.392391
1252.90625 1.6563729999999999 1.137105 -0.519268
1253.5859375 1.5854009999999998 1.134672 -0.450729
1254.2578125 1.514591 1.109591 -0.405
1254.90625 1.5583079999999998 1.051283 -0.507025
1255.55078125 1.58839 1.043435 -0.544955
1256.1796875 1.612843 1.21946 -0.393383
1256.81640625 1.599045 1.284045 -0.315
1257.46484375 1.635014 1.333718 -0.301296
1258.109375 1.6462729999999999 1.291548 -0.354725
1258.78125 1.600544 1.111035 -0.489509
1259.45703125 1.616917 1.133457 -0.48346
1260.1484375 1.8265449999999999 1.551545 -0.275
1260.53125 0.10594599999999998 -0.340859 -0.446805
1260.828125 3.139829 1.919377 -1.220452
1261.484375 1.440878 1.373974 -0.066904
1262.10546875 1.658439 0.714988 -0.943451
1262.73828125 2.057973 0.092979 -1.964994
1263.375 1.815649 1.075 -0.740649
1264.04296875 1.656684 1.031959 -0.624725
1264.72265625 1.627812 1.033159 -0.594653
1265.40234375 1.658232 1.132695 -0.525537
1266.0859375 1.6549710000000002 1.164978 -0.489993
1266.73828125 1.628668 1.06 -0.568668
1267.39453125 1.6306880000000001 1.139995 -0.490693
1268.05078125 1.6441780000000001 1.224245 -0.419933
1268.53125 2.5725170000000004 1.493799 -1.078718
1269.30859375 1.5593149999999998 1.379344 -0.179971
0.0 2.294044 -1.0 -3.294044
1270.82421875 3.689075 1.452175 -2.2369
1271.30078125 1.6379709999999998 0.989571 -0.6484
1271.98046875 1.68487 0.709922 -0.974948
1272.6640625 1.883306 1.229552 -0.653754
1273.3125 1.66871 0.71871 -0.95
1273.9296875 1.71375 1.33875 -0.375
1274.5546875 1.655107 1.400152 -0.254955
1275.2109375 1.714826 0.984826 -0.73
1275.8515625 1.547687 0.792799 -0.754888
1276.50390625 1.6580780000000002 1.143135 -0.514943
1277.1640625 1.61983 1.57983 -0.04
1277.83203125 1.7573180000000002 1.347469 -0.409849
1278.48828125 1.68722 1.280322 -0.406898
1279.140625 1.6524800000000002 1.30248 -0.35
1279.78515625 1.602675 1.052787 -0.549888
1280.40234375 1.71131 1.027584 -0.683726
1281.015625 1.666671 1.209607 -0.457064
1281.6328125 1.6943769999999998 1.179377 -0.515
1282.296875 1.689881 0.939913 -0.749968
1282.9765625 1.704567 1.004792 -0.699775
1283.63671875 1.852261 1.132261 -0.72
1284.28515625 1.805332 1.180382 -0.62495
1284.9375 1.7146730000000001 1.444679 -0.269994
1285.57421875 1.801592 1.354019 -0.447573
1286.19140625 1.612392 1.334826 -0.277566
1286.89453125 0.11863900000000005 -0.900033 -1.018672
1287.2265625 2.7882249999999997 1.34822 -1.440005
1287.4609375 1.713495 1.619866 -0.093629
1287.87890625 2.8988140000000002 2.171685 -0.727129
1288.3515625 1.5815709999999998 0.575452 -1.006119
1288.75 1.76 1.105 -0.655
1289.42578125 1.6949999999999998 0.845 -0.85
1290.109375 1.76787 1.348408 -0.419462
1290.7578125 1.720627 1.151066 -0.569561
1291.40234375 1.820343 1.116398 -0.703945
1292.0234375 1.784776 1.108292 -0.676484
1292.63671875 1.631762 1.272028 -0.359734
1293.2578125 1.897559 1.457647 -0.439912
1293.90625 1.786355 1.213508 -0.572847
1294.5703125 1.8167980000000001 1.376961 -0.439837
1295.234375 1.815988 1.340988 -0.475
1295.91015625 1.96779 1.08779 -0.88
1296.5625 2.532013 1.295898 -1.236115
1297.21484375 1.913072 1.468072 -0.445
1297.859375 1.525844 0.588853 -0.936991
1298.48828125 1.736516 1.183881 -0.552635
1299.10546875 1.7589130000000002 1.088913 -0.67
1299.734375 1.660113 0.883426 -0.776687
1300.38671875 1.7389320000000001 1.358932 -0.38
1301.046875 1.84545 2.234678 0.389228
1301.73046875 1.461359 -0.603912 -2.065271
1302.02734375 2.6037179999999998 0.866003 -1.737715
1302.40625 1.698811 1.478917 -0.219894
1303.0546875 1.5301090000000002 0.419364 -1.110745
1303.68359375 1.3048440000000001 -0.75 -2.054844
0.0 0.9513210000000001 -1.0 -1.951321
1305.0546875 0.231267 -0.068041 -0.299308
1305.47265625 1.134554 2.249857 1.115303
1306.2421875 1.6332499999999999 2.315 0.68175
1306.53125 2.968876 2.358876 -0.61
1306.78125 2.235725 -0.592315 -2.82804
1307.453125 1.082385 0.596001 -0.486384
1308.23046875 1.877866 1.474912 -0.402954
1308.8984375 1.987882 1.186449 -0.801433
1309.546875 1.753466 1.089101 -0.664365
1310.11328125 0.662358 0.73247 0.070112
1310.46484375 0.28864500000000004 -0.961355 -1.25
1310.6953125 0.170155 0.12 -0.050155
1311.43359375 2.29552 1.23359 -1.06193
0.0 0.2239819999999999 -1.0 -1.223982
1312.0859375 1.575032 0.336028 -1.239004
1312.7265625 1.8308909999999998 2.52398 0.693089
1312.9453125 1.838352 2.923352 1.085
1313.515625 2.690327 -0.539173 -3.2295
1313.7265625 2.899975 -0.016495 -2.91647
1314.109375 2.538836 0.925656 -1.61318
1314.3515625 1.0609000000000002 -0.839867 -1.900767
1314.7734375 1.727017 1.094565 -0.632452
1315.4296875 2.167497 1.287995 -0.879502
1315.81640625 0.576223 -0.35 -0.926223
1316.15625 0.3053810000000001 -0.970111 -1.275492
1316.6796875 1.8824269999999999 1.282432 -0.599995
1317.203125 1.872271 0.271993 -1.600278
1317.98046875 1.7512689999999997 2.319921 0.568652
1318.24609375 0.739675 -0.92968 -1.669355
1318.640625 2.5321860000000003 1.56 -0.972186
1319.31640625 2.694268 2.45938 -0.234888
1319.71484375 0.536093 0.086319 -0.449774
1320.015625 2.607065 0.391129 -2.215936
1320.4609375 0.323104 0.652637 0.329533
1320.77734375 0.11068800000000001 -0.140347 -0.251035
1321.19921875 0.104877 0.641053 0.536176
1321.9609375 1.537166 1.509771 -0.027395
1322.59375 1.8582480000000001 0.638894 -1.219354
1322.8515625 1.002481 0.627722 -0.374759
1323.22265625 2.083478 1.139068 -0.94441
1323.9453125 2.005592 0.67 -1.335592
1324.1484375 3.078153 1.323828 -1.754325
1324.4375 0.742874 -0.165126 -0.908
1324.6875 0.5820949999999999 -0.946848 -1.528943
1325.2109375 2.048868 1.478015 -0.570853
1326.08984375 2.444976 0.14 -2.304976
1326.52734375 2.278397 0.864393 -1.414004
1326.8125 2.48939 1.638542 -0.850848
0.0 1.4724910000000002 -1.0 -2.472491
1327.55859375 2.093954 1.449683 -0.644271
1328.4765625 2.092415 1.512709 -0.579706
1329.1015625 1.4499790000000001 1.08644 -0.363539
1329.45703125 1.338953 0.641423 -0.69753
1329.828125 1.608387 1.094531 -0.513856
1330.41015625 2.151623 0.991623 -1.16
1331.01171875 0.327897 0.406963 0.079066
1331.7734375 2.346102 0.362914 -1.983188
1332.4609375 1.993257 1.189955 -0.803302
1333.10546875 1.931283 1.539987 -0.391296
1333.73828125 1.702207 1.717261 0.015054
1334.38671875 1.5779189999999998 1.45813 -0.119789
1335.046875 1.6386690000000002 1.022202 -0.616467
1335.6875 1.700728 0.950789 -0.749939
1336.36328125 1.587126 0.733758 -0.853368
1337.0390625 1.53951 0.949542 -0.589968
1337.71484375 1.654046 0.951386 -0.70266
1338.39453125 1.591578 0.879968 -0.71161
1339.15625 0.453723 -0.165 -0.618723
1339.3984375 1.470307 0.434296 -1.036011
1339.7265625 1.6106880000000001 0.876542 -0.734146
1340.359375 1.884308 1.365857 -0.518451
1341.00390625 1.6825489999999999 1.123135 -0.559414
1341.6484375 1.866683 1.157074 -0.709609
1342.32421875 1.8531499999999999 1.398512 -0.454638
1343.015625 1.7807119999999999 0.943359 -0.837353
1343.71484375 1.6893660000000001 1.154366 -0.535
1344.38671875 1.721905 1.539843 -0.182062
1345.04296875 1.793543 1.254769 -0.538774
1345.6953125 1.741811 1.352034 -0.389777
1346.34375 1.625281 0.970496 -0.654785
1346.98828125 2.1041499999999997 1.244734 -0.859416
1347.6328125 2.208152 0.214356 -1.993796
1348.296875 1.81339 1.984141 0.170751
1348.96484375 2.0247200000000003 0.809779 -1.214941
1349.6484375 1.474907 0.796688 -0.678219
1350.33984375 1.768221 0.947652 -0.820569
1351.0078125 1.6713840000000002 1.136422 -0.534962
1351.63671875 1.5723380000000002 1.047338 -0.525
1352.265625 1.5952199999999999 1.132768 -0.462452
1352.90625 1.6588129999999999 0.787563 -0.87125
1353.5390625 1.79974 1.069748 -0.729992
1354.19140625 1.6690520000000002 1.104427 -0.564625
1354.875 1.7343229999999998 1.345 -0.389323
1355.546875 1.710472 1.264816 -0.445656
1355.94921875 2.58389 2.002496 -0.581394
1356.859375 1.736401 1.424257 -0.312144
1357.53515625 1.76108 1.2 -0.56108
1358.1640625 1.714532 1.064846 -0.649686
1358.79296875 1.75991 1.08491 -0.675
1359.41015625 1.7649719999999998 1.069972 -0.695
1360.05859375 1.698779 1.114507 -0.584272
1360.71484375 1.744647 1.114859 -0.629788
1361.3984375 1.75236 1.238319 -0.514041
1361.81640625 2.4642980000000003 1.824065 -0.640233
1362.75390625 1.50652 0.887232 -0.619288
1363.40625 1.680714 0.935714 -0.745
1364.03125 1.774048 1.068115 -0.705933
1364.67578125 1.777282 1.099492 -0.67779
1365.31640625 1.739039 1.164891 -0.574148
1365.953125 1.724237 1.204256 -0.519981
1366.6015625 1.778066 1.27 -0.508066
1367.27734375 1.767206 1.234479 -0.532727
1367.94921875 1.781889 1.216889 -0.565
1368.61328125 1.8345930000000001 1.179739 -0.654854
1369.26953125 1.7839649999999998 1.180281 -0.603684
1369.91015625 1.794551 1.167969 -0.626582
1370.53515625 1.767098 1.181907 -0.585191
1371.15234375 1.779016 1.211099 -0.567917
1371.8046875 1.7810190000000001 1.241019 -0.54
1372.48046875 1.795786 1.304988 -0.490798
1373.1484375 1.7545039999999998 1.256044 -0.49846
1373.8203125 1.781168 1.242559 -0.538609
1374.4921875 1.7788240000000002 1.224018 -0.554806
1375.14453125 1.747139 1.259889 -0.48725
1375.76953125 1.714922 1.259951 -0.454971
1376.4140625 2.24 1.135 -1.105
1377.0625 1.637871 1.22 -0.417871
1377.69921875 1.878786 1.471921 -0.406865
1378.35546875 1.7278820000000001 1.194549 -0.533333
1379.02734375 1.75654 1.19654 -0.56
1379.72265625 1.7040920000000002 1.12 -0.584092
1380.40625 1.7142659999999998 1.194716 -0.51955
1381.0703125 1.7190180000000002 1.206984 -0.512034
1381.69921875 1.719598 1.194598 -0.525
1382.32421875 1.67812 1.15857 -0.51955
1382.95703125 1.719264 1.161911 -0.557353
1383.609375 1.762508 1.217855 -0.544653
1384.2734375 1.683331 1.213331 -0.47
1384.94140625 1.7054 1.223939 -0.481461
1385.6171875 1.701374 1.142106 -0.559268
1386.27734375 1.7497059999999998 1.150842 -0.598864
1386.953125 1.732516 1.084473 -0.648043
1387.61328125 1.681703 1.106725 -0.574978
1388.25 1.72 1.135 -0.585
1388.87109375 1.635797 1.000797 -0.635
1389.50390625 1.663044 1.0281 -0.634944
1390.16015625 1.74301 1.107097 -0.635913
1390.82421875 1.725254 1.120254 -0.605
1391.5078125 1.7247750000000002 1.149807 -0.574968
1392.1875 1.789516 1.130586 -0.65893
1392.84375 1.7015669999999998 1.098309 -0.603258
1393.48046875 1.7079779999999998 1.124896 -0.583082
1394.11328125 1.697722 1.187997 -0.509725
1394.76171875 1.6935060000000002 1.153582 -0.539924
1395.3984375 1.736542 1.183292 -0.55325
1396.046875 1.71739 1.158705 -0.558685
1396.703125 1.738276 1.218667 -0.519609
1397.37890625 1.7349999999999999 1.16 -0.575
1398.05078125 2.049207 1.255766 -0.793441
1398.71875 2.065877 1.371001 -0.694876
1399.37890625 2.1239999999999997 1.39 -0.734
1400.01171875 1.695613 1.232083 -0.46353
1400.640625 1.707039 1.234255 -0.472784
1401.26171875 1.694985 1.274985 -0.42
1401.9140625 1.774605 1.349605 -0.425
1402.58984375 1.694274 1.283028 -0.411246
1403.265625 1.707292 1.252292 -0.455
1403.921875 1.712202 1.202202 -0.51
1404.58203125 1.672712 1.222886 -0.449826
1405.2421875 1.720078 1.271996 -0.448082
1405.86328125 1.6813410000000002 1.266401 -0.41494
1406.5 1.718672 1.295 -0.423672
1407.14453125 1.71489 1.289995 -0.424895
1407.78125 1.687225 1.255 -0.432225
1408.421875 1.708141 1.233141 -0.475
1409.09375 1.667061 1.198737 -0.468324
1409.79296875 1.7179360000000001 1.245942 -0.471994
1410.44921875 1.7046649999999999 1.194694 -0.509971
1411.1015625 1.711941 1.166738 -0.545203
1411.7265625 1.714475 1.177573 -0.536902
1412.3515625 1.6746090000000002 1.14498 -0.529629
1412.97265625 1.7762829999999998 1.211371 -0.564912
1413.6171875 1.662884 1.147948 -0.514936
1414.28125 1.708906 1.198906 -0.51
1414.9375 1.712647 1.172647 -0.54
1415.60546875 1.6908349999999999 1.135835 -0.555
1416.265625 1.6934170000000002 1.173826 -0.519591
1416.93359375 1.691761 1.226507 -0.465254
1417.578125 1.6690040000000002 1.185 -0.484004
1418.2109375 1.685 1.185 -0.5
1418.82421875 1.731728 1.231728 -0.5
1419.453125 1.673822 1.169723 -0.504099
1420.1015625 1.699688 1.154688 -0.545
1420.7578125 1.717457 1.22762 -0.489837
1421.4375 1.662031 1.182187 -0.479844
1422.11328125 1.696713 1.181837 -0.514876
1422.765625 1.684469 1.156211 -0.528258
1423.3984375 1.6808040000000002 1.176295 -0.504509
1424.02734375 1.681266 1.238982 -0.442284
1424.671875 1.7760310000000001 1.239805 -0.536226
1425.296875 1.699474 1.134707 -0.564767
1425.94140625 1.6888040000000002 1.183804 -0.505
1426.58984375 1.68447 1.21447 -0.47
1427.25390625 1.7355960000000001 1.255174 -0.480422
1427.91796875 1.7297740000000001 1.169774 -0.56
1428.59375 1.710045 1.236377 -0.473668
1429.25390625 1.695 1.245 -0.45
1429.87890625 2.2862799999999996 1.814415 -0.471865
1430.50390625 1.837279 0.537279 -1.3
1431.125 1.877003 1.22 -0.657003
1431.765625 1.904497 1.371841 -0.532656
1432.43359375 1.7208169999999998 1.025817 -0.695
1433.1015625 1.681591 0.906591 -0.775
1433.75 1.607681 1.38 -0.227681
1434.40625 1.6190280000000001 1.394055 -0.224973
1435.0625 1.689595 1.259595 -0.43
1435.68359375 1.692466 1.369712 -0.322754
1436.32421875 1.699177 1.307134 -0.392043
1436.96484375 1.659626 1.210407 -0.449219
1437.59375 1.635783 1.307581 -0.328202
1438.2421875 1.711224 1.351348 -0.359876
1438.91015625 1.687488 1.242517 -0.444971
1439.61328125 1.644646 1.29973 -0.344916
1440.29296875 1.676491 1.367661 -0.30883
1440.95703125 1.6709559999999999 1.312511 -0.358445
1441.5859375 1.664574 1.284574 -0.38
1442.21875 1.7146569999999999 1.359872 -0.354785
1442.8515625 1.7130329999999998 1.333033 -0.38
1443.49609375 1.7242229999999998 1.301723 -0.4225
1444.16015625 1.723008 1.328964 -0.394044
1444.82421875 1.781163 1.301163 -0.48
1445.49609375 1.683166 1.243166 -0.44
1446.15625 1.712145 1.267174 -0.444971
1446.83203125 1.722905 1.168048 -0.554857
1447.4921875 1.7189899999999998 1.27249 -0.4465
1448.12109375 1.7493910000000001 1.284267 -0.465124
1448.73046875 1.7296960000000001 1.229943 -0.499753
1449.3671875 1.660639 1.209606 -0.451033
1450.0234375 1.69413 1.258349 -0.435781
1450.68359375 1.7047800000000002 1.23978 -0.465
1451.359375 1.660904 1.193513 -0.467391
1452.0546875 1.7224499999999998 1.202491 -0.519959
1452.72265625 1.686632 1.196632 -0.49
1453.359375 1.619255 1.184255 -0.435
1454.0 1.6704679999999998 1.265 -0.405468
1454.66015625 1.71285 1.25286 -0.45999
1455.296875 1.670862 1.199807 -0.471055
1455.94921875 1.645575 1.238807 -0.406768
1456.625 1.6749370000000001 1.195 -0.479937
1457.3125 1.749243 1.199259 -0.549984
1457.984375 1.6894230000000001 1.234423 -0.455
1458.671875 1.7121089999999999 1.31923 -0.392879
1459.3515625 1.744046 1.295121 -0.448925
1459.9921875 1.7469260000000002 1.251996 -0.49493
1460.625 1.7049999999999998 1.275 -0.43
1461.015625 2.523479 1.958811 -0.564668
1461.95703125 1.7085720000000002 1.348572 -0.36
1462.64453125 1.7201419999999998 1.289883 -0.430259
1463.3359375 1.663802 1.209587 -0.454215
1464.0234375 1.7321459999999997 1.207596 -0.52455
1464.69921875 1.666209 1.166728 -0.499481
1465.359375 1.6720789999999999 1.167617 -0.504462
1466.01953125 1.67568 1.211189 -0.464491
1466.69140625 1.680333 1.149675 -0.530658
1467.33984375 1.689306 1.184531 -0.504775
1468.0 1.659594 1.195 -0.464594
1468.6875 1.727087 1.163646 -0.563441
1469.40625 1.722435 1.172562 -0.549873
1470.1015625 1.691379 1.221503 -0.469876
1470.79296875 1.6843409999999999 1.194419 -0.489922
1471.44921875 1.72334 1.21879 -0.50455
1472.10546875 1.6969940000000001 1.21994 -0.477054
1472.75390625 1.697134 1.209126 -0.488008
1473.42578125 1.708936 1.199573 -0.509363
1474.11328125 1.6991489999999998 1.16936 -0.529789
1474.80078125 1.707003 1.192628 -0.514375
1475.5 1.7012459999999998 1.17 -0.531246
1476.19140625 1.7076090000000002 1.153586 -0.554023
1476.89453125 1.652645 1.079883 -0.572762
1477.5625 1.7786910000000002 1.249524 -0.529167
1478.2265625 1.684733 1.215095 -0.469638
1478.87109375 1.6821760000000001 1.218369 -0.463807
1479.53515625 1.717499 1.139345 -0.578154
1480.203125 1.6677629999999999 1.149916 -0.517847
1480.91015625 1.683747 1.195364 -0.488383
1481.625 1.679382 1.2 -0.479382
1482.32421875 1.679584 1.169592 -0.509992
1483.00390625 1.634068 1.164606 -0.469462
1483.66015625 1.653288 1.163288 -0.49
1484.3359375 1.6970580000000002 1.159952 -0.537106
1484.99609375 1.671904 1.138779 -0.533125
1485.6640625 1.6882290000000002 1.159545 -0.528684
1486.33203125 1.675547 1.125225 -0.550322
1487.03125 1.730182 1.162174 -0.568008
1487.72265625 1.71856 1.203794 -0.514766
1488.42578125 1.692722 1.164106 -0.528616
1489.125 1.724725 1.09 -0.634725
1489.78515625 1.481547 1.039281 -0.442266
1490.4296875 1.706302 1.122895 -0.583407
1491.0859375 1.684464 1.194464 -0.49
1491.78125 1.668075 1.146041 -0.522034
1492.46484375 1.6901650000000001 1.164713 -0.525452
1493.1640625 1.682083 1.214614 -0.467469
1493.859375 1.663945 1.178945 -0.485
1494.5546875 1.6864400000000002 1.18144 -0.505
1495.22265625 1.693394 1.13382 -0.559574
1495.88671875 1.651119 1.11 -0.541119
1496.5625 1.7216589999999998 1.195898 -0.525761
1497.2109375 1.7044139999999999 1.170586 -0.533828
1497.86328125 1.6939959999999998 1.166888 -0.527108
1498.55078125 1.700825 1.190825 -0.51
1499.2734375 1.6721009999999998 1.207847 -0.464254
1499.96484375 1.799074 1.465458 -0.333616
1500.6484375 1.571404 0.951595 -0.619809
1501.31640625 1.8168 1.087475 -0.729325
1501.97265625 1.813194 0.888223 -0.924971
1502.609375 1.733088 1.452627 -0.280461
1503.265625 1.753314 1.273355 -0.479959
1503.94921875 1.7295639999999999 1.244564 -0.485
1504.62109375 1.708519 1.198794 -0.509725
1505.30859375 1.629214 1.152988 -0.476226
1506.00390625 1.610647 1.221018 -0.389629
1506.70703125 1.6970910000000001 1.116173 -0.580918
1507.37109375 1.8064999999999998 1.17 -0.6365
1508.03515625 1.7678790000000002 1.225 -0.542879
1508.6796875 1.7982169999999997 1.228217 -0.57
1509.32421875 1.688774 1.183774 -0.505
1509.98046875 1.750511 1.254613 -0.495898
1510.6796875 1.770211 1.270211 -0.5
1511.39453125 1.729889 1.219911 -0.509978
1512.078125 1.729358 1.219509 -0.509849
1512.76171875 1.732119 1.244162 -0.487957
1513.42578125 1.706233 1.211233 -0.495
1514.09375 1.760068 1.245068 -0.515
1514.75 1.6649729999999998 1.18 -0.484973
1515.4140625 1.754542 1.229789 -0.524753
1516.07421875 1.795598 1.266117 -0.529481
1516.7578125 1.684924 1.165 -0.519924
1517.45703125 1.7384270000000002 1.179793 -0.558634
1518.16796875 1.737814 1.177814 -0.56
1518.86328125 1.714734 1.209734 -0.505
1519.515625 1.724275 1.234275 -0.49
1520.171875 1.7992849999999998 1.294285 -0.505
1520.8203125 1.697676 1.192676 -0.505
1521.48828125 1.6660910000000002 1.141215 -0.524876
1522.1640625 1.784472 1.244472 -0.54
1522.859375 1.746737 1.210237 -0.5365
1523.5390625 1.790992 1.261507 -0.529485
1524.23046875 1.804447 1.294941 -0.509506
1524.90625 1.719836 1.237121 -0.482715
1525.58203125 1.751083 1.288321 -0.462762
1526.2421875 1.79534 1.295781 -0.499559
1526.88671875 1.7046649999999999 1.20031 -0.504355
1527.546875 1.719912 1.219912 -0.5
1528.21875 1.717248 1.217786 -0.499462
1528.92578125 1.7057609999999999 1.210761 -0.495
1529.63671875 1.719422 1.186822 -0.5326
1530.33984375 1.737948 1.227948 -0.51
1531.0078125 1.773212 1.2547 -0.518512
1531.671875 1.8119 1.2669 -0.545
1532.328125 1.7165409999999999 1.191732 -0.524809
1532.9921875 1.713667 1.248667 -0.465
1533.6640625 1.747719 1.219929 -0.52779
1534.34765625 1.719547 1.224715 -0.494832
1535.04296875 1.725759 1.235 -0.490759
1535.73046875 1.719101 1.174348 -0.544753
1536.44140625 1.7687849999999998 1.199304 -0.569481
1537.13671875 1.739392 1.184882 -0.55451
1537.80078125 1.7333669999999999 1.204723 -0.528644
1538.4375 1.749816 1.23225 -0.517566
1539.09765625 1.694885 1.279885 -0.415
1539.76171875 1.751002 1.198783 -0.552219
1540.453125 1.726978 1.217152 -0.509826
1541.171875 1.7494079999999999 1.254408 -0.495
1541.87109375 1.716221 1.242185 -0.474036
1542.5546875 1.749762 1.256796 -0.492966
1543.22265625 1.739619 1.20987 -0.529749
1543.90625 1.7701040000000001 1.280356 -0.489748
1544.56640625 1.734389 1.229396 -0.504993
1545.22265625 1.75643 1.217647 -0.538783
1545.87890625 1.762804 1.264093 -0.498711
1546.55859375 1.7232210000000001 1.224838 -0.498383
1547.25390625 1.756035 1.266607 -0.489428
1547.9609375 1.774425 1.284864 -0.489561
1548.66015625 1.72175 1.25175 -0.47
1549.32421875 1.735434 1.220662 -0.514772
1549.9765625 1.781543 1.223001 -0.558542
1550.62109375 1.740259 1.212992 -0.527267
1551.296875 1.736712 1.219578 -0.517134
1551.97265625 1.787446 1.262876 -0.52457
1552.66015625 1.759576 1.208663 -0.550913
1553.34765625 1.6923519999999999 1.19752 -0.494832
1554.0390625 1.7177 1.229539 -0.488161
1554.71875 1.73648 1.2513 -0.48518
1555.3984375 1.705332 1.225557 -0.479775
1556.05859375 1.739827 1.230848 -0.508979
1556.69921875 1.668471 1.209735 -0.458736
1557.35546875 1.724566 1.209905 -0.514661
1558.015625 1.722905 1.218374 -0.504531
1558.71484375 1.729656 1.200047 -0.529609
1559.421875 1.793081 1.27394 -0.519141
1560.12109375 1.776308 1.256308 -0.52
1560.796875 1.6317279999999998 1.328118 -0.30361
1561.45703125 1.754559 1.318626 -0.435933
1562.109375 1.802436 1.807651 0.005215
1562.76953125 2.020285 0.750285 -1.27
1563.4375 1.746499 1.527778 -0.218721
1564.1015625 1.6874479999999998 1.140936 -0.546512
1564.7890625 1.793861 1.224754 -0.569107
1565.4765625 1.748141 1.183141 -0.565
1566.171875 1.704799 1.344813 -0.359986
1566.8671875 1.725 1.3 -0.425
1567.53515625 1.646155 1.236165 -0.40999
1568.16796875 1.6690129999999999 1.189474 -0.479539
1568.8046875 1.6246530000000001 1.139955 -0.484698
1569.46875 1.718864 1.21845 -0.500414
1570.15625 1.685147 1.185147 -0.5
1570.859375 1.696631 1.176966 -0.519665
1571.5625 1.6772770000000001 1.167548 -0.509729
1572.26953125 1.719975 1.209975 -0.51
1572.94921875 1.6969409999999998 1.169571 -0.52737
1573.6328125 1.6325539999999998 1.107592 -0.524962
1574.30859375 1.648887 1.149302 -0.499585
1574.97265625 1.6798710000000001 1.159871 -0.52
1575.625 1.694531 1.13 -0.564531
1576.3125 1.623947 1.123947 -0.5
1577.0234375 1.6711580000000001 1.181783 -0.489375
1577.73828125 1.674333 1.144397 -0.529936
1578.453125 1.7026050000000001 1.159386 -0.543219
1579.140625 1.644007 1.150859 -0.493148
1579.57421875 2.44046 1.765466 -0.674994
1580.45703125 1.654077 1.17112 -0.482957
1581.15234375 1.6621670000000002 1.198363 -0.463804
1581.83984375 1.630938 1.154063 -0.476875
1582.5390625 1.724693 1.204693 -0.52
1583.24609375 1.636187 1.143515 -0.492672
1583.96484375 1.5347790000000001 1.036461 -0.498318
1584.66015625 1.6548349999999998 0.909986 -0.744849
1585.35546875 1.608389 1.129958 -0.478431
1586.0390625 1.6804359999999998 1.0849 -0.595536
1586.703125 1.674248 1.174519 -0.499729
1587.35546875 1.659889 1.199889 -0.46
1588.02734375 1.6237210000000002 1.183877 -0.439844
1588.75390625 1.719587 1.280838 -0.438749
1589.4609375 1.68326 1.2648 -0.41846
1590.16796875 1.660511 1.312749 -0.347762
1590.8515625 1.6894179999999999 1.167065 -0.522353
1591.53125 1.667643 1.043955 -0.623688
1592.1796875 1.620251 0.991207 -0.629044
1592.85546875 1.6047540000000002 1.090572 -0.514182
1593.54296875 1.641704 1.15811 -0.483594
1594.21875 1.6469639999999999 1.172321 -0.474643
1594.9140625 1.5588149999999998 1.123978 -0.434837
1595.6328125 1.623911 1.16433 -0.459581
1596.3671875 1.649535 1.174599 -0.474936
1597.0546875 1.673152 1.163865 -0.509287
1597.72265625 1.667294 1.156039 -0.511255
1598.390625 1.640111 1.145111 -0.495
1599.0625 1.641839 1.171214 -0.470625
1599.73828125 1.593443 1.103664 -0.489779
1600.44921875 1.577946 1.101728 -0.476218
1601.171875 1.572914 1.079531 -0.493383
1601.8828125 1.604013 1.097144 -0.506869
1602.578125 1.569915 1.079915 -0.49
1603.28515625 1.633505 1.17 -0.463505
1603.96875 1.6603050000000001 1.162047 -0.498258
1604.640625 1.577067 1.113715 -0.463352
1605.296875 1.574693 1.084693 -0.49
1605.9765625 1.6008520000000002 1.089606 -0.511246
1606.68359375 1.628631 1.089783 -0.538848
1607.40625 1.5463040000000001 1.037237 -0.509067
1608.125 1.59 1.07 -0.52
1608.8203125 1.589332 1.08124 -0.508092
1609.51171875 1.552997 1.101853 -0.451144
1610.16796875 1.576479 1.121479 -0.455
1610.5546875 2.363968 1.699751 -0.664217
1611.52734375 1.5965820000000002 1.157021 -0.439561
1612.23046875 1.544982 1.119982 -0.425
1612.9296875 1.67245 1.22745 -0.445
1613.640625 1.600758 1.130815 -0.469943
1614.3515625 1.5843250000000002 1.12 -0.464325
1615.05859375 1.574622 1.12653 -0.448092
1615.74609375 1.584142 1.142034 -0.442108
1616.4140625 1.631914 1.149845 -0.482069
1617.08203125 1.5594419999999998 1.101727 -0.457715
1617.75 1.6 1.11 -0.49
1618.46484375 1.631221 1.111221 -0.52
1619.18359375 1.922772 0.813666 -1.109106
1619.890625 2.121652 0.218816 -1.902836
1620.59375 1.640358 0.087113 -1.553245
1621.0625 1.068152 0.04625 -1.021902
1621.2734375 1.8275610000000002 1.166584 -0.660977
1621.94140625 1.618857 1.804834 0.185977
1622.609375 1.594282 1.716748 0.122466
1623.2890625 1.577225 1.66903 0.091805
1623.9609375 1.5886339999999999 1.135 -0.453634
1624.6484375 1.741822 1.436822 -0.305
1625.35546875 1.587133 1.220295 -0.366838
1626.0859375 1.551615 1.039662 -0.511953
1626.78125 1.639052 1.084215 -0.554837
1627.44921875 1.524051 0.946271 -0.57778
1628.10546875 1.5943749999999999 1.13 -0.464375
1628.76953125 1.729976 0.859976 -0.87
1629.42578125 1.5149759999999999 0.982045 -0.532931
1630.11328125 1.6664539999999999 0.937924 -0.72853
1630.8359375 1.5284749999999998 1.149803 -0.378672
1631.5390625 1.510353 1.050566 -0.459787
1632.234375 1.57565 1.13065 -0.445
1632.92578125 1.5250000000000001 1.08 -0.445
1633.62109375 1.665689 1.111 -0.554689
1634.27734375 1.744529 1.109068 -0.635461
1634.93359375 1.63653 1.20153 -0.435
1635.60546875 1.500813 1.095813 -0.405
1636.296875 1.672922 1.113337 -0.559585
1636.98828125 1.5125920000000002 0.962592 -0.55
1637.71484375 1.651497 1.157209 -0.494288
1638.43359375 1.828085 1.249514 -0.578571
1639.1171875 1.7191390000000002 1.164139 -0.555
1639.77734375 1.535136 1.034144 -0.500992
1640.44921875 1.495 1.145 -0.35
1641.13671875 1.580274 1.056606 -0.523668
1641.81640625 1.614843 1.034893 -0.57995
1642.5078125 1.609177 1.063846 -0.545331
1643.21875 1.6120029999999999 1.119241 -0.492762
1643.9296875 1.5977999999999999 1.060107 -0.537693
1644.625 1.581691 1.255 -0.326691
1645.3203125 1.650183 1.283874 -0.366309
1645.98828125 1.566281 1.251682 -0.314599
1646.64453125 1.8088229999999998 1.359281 -0.449542
1647.30078125 1.8673929999999999 1.48335 -0.384043
1647.9921875 2.6091819999999997 1.324612 -1.28457
0.0 1.335 -1.0 -2.335
1648.703125 1.98175 1.562541 -0.419209
1649.3984375 1.44238 1.924975 0.482595
1650.08984375 1.312675 1.623072 0.310397
1650.66796875 0.40820200000000006 0.758202 0.35
0.0 2.176045 -1.0 -3.176045
1651.66015625 2.586811 1.439129 -1.147682
1652.125 0.23453300000000005 0.55 0.315467
1652.3515625 2.829548 1.659847 -1.169701
1652.7734375 1.7435109999999998 -0.180435 -1.923946
0.0 1.317828 -1.0 -2.317828
1653.83203125 0.7087349999999999 -0.236265 -0.945
1654.07421875 0.964811 1.778325 0.813514
1654.8046875 1.724332 0.629375 -1.094957
1655.5234375 1.821996 1.292738 -0.529258
1656.23828125 1.869735 1.158771 -0.710964
1656.93359375 1.7885619999999998 1.313562 -0.475
1657.58203125 1.6488399999999999 1.22884 -0.42
1658.23046875 2.265275 0.824932 -1.440343
1658.90234375 1.763747 1.589531 -0.174216
1659.5703125 1.6104070000000001 1.445407 -0.165
1660.26171875 1.920325 0.599794 -1.320531
1660.6171875 1.1313819999999999 0.519783 -0.611599
1660.96484375 1.408045 1.165238 -0.242807
1661.67578125 1.452707 1.056425 -0.396282
1662.36328125 1.534689 1.166899 -0.36779
1663.0546875 1.7513050000000001 1.407523 -0.343782
1663.73828125 1.493628 1.456947 -0.036681
1664.3984375 1.874171 1.03649 -0.837681
1665.04296875 1.631825 1.111825 -0.52
1665.70703125 1.561986 1.143526 -0.41846
1666.39453125 1.6138279999999998 1.084989 -0.528839
1667.1015625 1.686559 0.986559 -0.7
1667.8046875 1.699754 1.059754 -0.64
1668.5078125 1.5549659999999998 1.009312 -0.545654
1669.19140625 1.6574659999999999 1.164515 -0.492951
1669.8359375 1.623304 1.09971 -0.523594
1670.5078125 1.583745 1.138745 -0.445
1671.1875 1.573308 1.169451 -0.403857
1671.859375 1.648642 1.108642 -0.54
1672.53125 1.652549 1.059044 -0.593505
1673.23046875 1.645748 1.18495 -0.460798
1673.93359375 1.7339959999999999 1.163996 -0.57
1674.62890625 1.6929699999999999 1.278692 -0.414278
1675.31640625 1.640774 1.216633 -0.424141
1675.96875 1.6577009999999999 1.197852 -0.459849
1676.62109375 1.6296659999999998 1.21986 -0.409806
1677.265625 1.6162919999999998 1.23636 -0.379932
1677.953125 1.647351 1.314821 -0.33253
1678.66015625 1.636855 1.113081 -0.523774
1679.36328125 1.707046 1.047046 -0.66
1680.05078125 1.723948 1.022404 -0.701544
1680.74609375 1.8320919999999998 1.127244 -0.704848
1681.41015625 1.562016 0.762016 -0.8
1682.078125 1.688264 1.098635 -0.589629
1682.75390625 1.620015 1.330509 -0.289506
1683.40234375 1.523797 1.523797 0.0
1684.0703125 1.7550000000000001 1.225 -0.53
1684.7578125 1.505404 1.220404 -0.285
1685.47265625 1.781572 1.001572 -0.78
1686.1640625 4.314978 1.184978 -3.13
1686.86328125 3.048664 1.673664 -1.375
1687.3125 0.5488219999999999 -0.222852 -0.771674
1688.16015625 1.9234550000000001 1.248663 -0.674792
1688.796875 1.952944 1.263681 -0.689263
1689.45703125 2.661243 1.001723 -1.65952
1690.1328125 1.836796 1.218478 -0.618318
1690.8125 3.367007 1.205761 -2.161246
1691.27734375 2.266077 2.183971 -0.082106
1692.30078125 1.156364 0.233215 -0.923149
0.0 0.61822 -1.0 -1.61822
0.0 2.099888 -1.0 -3.099888
1693.5546875 2.0696209999999997 0.988327 -1.081294
1693.90625 0.3068360000000001 1.016836 0.71
1694.20703125 1.951429 1.965659 0.01423
1694.4453125 2.074857 0.763934 -1.310923
1694.84375 2.730117 -0.159883 -2.89
1695.18359375 0.964286 0.422128 -0.542158
1695.4921875 2.249947 0.931626 -1.318321
1696.15625 1.723859 1.5595 -0.164359
1696.6953125 0.6834129999999999 0.672172 -0.011241
1697.54296875 1.799889 1.598837 -0.201052
1697.9921875 0.13642900000000002 0.838526 0.702097
1698.22265625 2.0468830000000002 1.228685 -0.818198
1698.8984375 1.814233 0.414347 -1.399886
1699.5390625 1.554684 0.954684 -0.6
1700.18359375 1.649693 0.835829 -0.813864
1700.84765625 1.8571819999999999 0.822294 -1.034888
1701.50390625 1.7897020000000001 1.176384 -0.613318
1702.14453125 1.724546 1.364976 -0.35957
1702.8203125 1.671488 1.241802 -0.429686
1703.515625 1.7042510000000002 0.934251 -0.77
1704.19921875 1.667581 0.907613 -0.759968
1704.87890625 1.687983 1.006046 -0.681937
1705.5390625 1.729724 0.979731 -0.749993
1706.1796875 1.709174 1.009243 -0.699931
1706.81640625 1.753431 1.262498 -0.490933
1707.4765625 1.869056 1.223092 -0.645964
1708.1640625 1.739487 1.334842 -0.404645
1708.84375 1.8726720000000001 1.322281 -0.550391
1709.5234375 1.8009789999999999 1.395648 -0.405331
1710.19921875 1.8005179999999998 1.306628 -0.49389
1710.87890625 1.9015689999999998 1.19179 -0.709779
1711.5234375 1.920582 1.440645 -0.479937
1712.1640625 1.874259 1.229638 -0.644621
1712.8125 1.834475 1.22628 -0.608195
1713.45703125 1.6108719999999999 1.310312 -0.30056
1714.10546875 1.781058 0.839914 -0.941144
1714.77734375 1.852603 1.417603 -0.435
1715.33984375 2.813612 1.608612 -1.205
1715.828125 0.673255 -0.04114 -0.714395
1716.16796875 1.524414 0.310575 -1.213839
1716.62890625 0.39357 -0.099671 -0.493241
1716.83203125 2.3793170000000003 1.728876 -0.650441
1717.109375 0.712059 -0.197894 -0.909953
1717.35546875 1.6949290000000001 1.891804 0.196875
1718.109375 2.3415369999999998 0.562961 -1.778576
1718.61328125 0.31587500000000013 1.015875 0.7
1719.37890625 1.853142 1.133142 -0.72
1719.82421875 2.458249 1.79196 -0.666289
1720.73046875 1.620294 1.120294 -0.5
1721.41796875 1.604603 0.8818 -0.722803
1722.09765625 1.615046 0.971339 -0.643707
1722.796875 1.6766759999999998 1.198141 -0.478535
1723.46875 1.69355 1.08355 -0.61
1724.12109375 1.63706 1.07706 -0.56
1724.76171875 1.71252 1.312715 -0.399805
1725.42578125 1.6981549999999999 1.238155 -0.46
1726.09375 1.674222 1.199286 -0.474936
1726.80078125 1.681698 1.066921 -0.614777
1727.52734375 1.660779 0.97005 -0.690729
1728.21484375 1.626159 1.046179 -0.57998
1728.8984375 1.7587350000000002 1.205 -0.553735
1729.5703125 1.630757 1.238281 -0.392476
1730.24609375 1.7074120000000002 1.342627 -0.364785
1730.91015625 1.697163 1.421835 -0.275328
1731.578125 1.651453 1.313727 -0.337726
1732.2578125 1.6956470000000001 1.235703 -0.459944
1732.9609375 1.718345 1.289515 -0.42883
1733.6640625 1.6282370000000002 1.235556 -0.392681
1734.38671875 1.643656 1.199136 -0.44452
1735.09375 1.680174 1.297131 -0.383043
1735.75390625 1.619067 1.264235 -0.354832
1736.40625 1.64276 1.19776 -0.445
1737.07421875 1.680795 1.237354 -0.443441
1737.765625 1.662809 1.239199 -0.42361
1738.45703125 1.677528 1.187528 -0.49
1739.17578125 1.690575 1.200575 -0.49
1739.87890625 1.727998 1.254082 -0.473916
1740.578125 1.622518 1.124013 -0.498505
1741.2578125 1.6654769999999999 1.10821 -0.557267
1741.9375 1.67842 1.104857 -0.573563
1742.6171875 1.7041979999999999 1.169366 -0.534832
1743.28125 1.637099 1.101591 -0.535508
1743.95703125 1.654328 1.174552 -0.479776
1744.66015625 1.6520679999999999 1.17906 -0.473008
1745.40234375 1.654005 1.274022 -0.379983
1746.11328125 1.6401759999999999 1.181725 -0.458451
1746.81640625 1.7443240000000002 1.189324 -0.555
1747.4921875 1.666024 1.156024 -0.51
1748.16796875 1.821278 1.277608 -0.54367
1748.42578125 0.8309580000000001 0.39432 -0.436638
1748.828125 1.7334040000000002 1.011921 -0.721483
1749.51171875 1.667653 1.1527 -0.514953
1750.20703125 1.798768 1.226086 -0.572682
1750.91796875 1.576528 0.891847 -0.684681
1751.6171875 1.787534 1.284442 -0.503092
1752.328125 1.566832 1.535 -0.031832
1753.046875 1.571865 1.082829 -0.489036
1753.71875 1.671665 1.418679 -0.252986
1754.37109375 1.69305 1.164296 -0.528754
1755.0390625 1.7242190000000002 1.214274 -0.509945
1755.72265625 1.649235 1.21106 -0.438175
1756.42578125 1.722555 0.802555 -0.92
1757.14453125 2.21707 1.460498 -0.756572
1757.8671875 1.961907 1.063835 -0.898072
1758.578125 1.676158 0.975706 -0.700452
1759.26171875 1.511739 1.113481 -0.398258
1759.96484375 1.274569 0.635894 -0.638675
1760.640625 1.857819 1.057965 -0.799854
1761.31640625 1.635826 1.16946 -0.466366
1761.9921875 1.7092370000000001 1.214512 -0.494725
1762.6953125 1.721772 1.195011 -0.526761
1763.421875 1.731086 1.194805 -0.536281
1764.140625 1.6583510000000001 1.149138 -0.509213
1764.86328125 1.774753 1.26 -0.514753
1765.54296875 1.7854649999999999 1.23098 -0.554485
1766.21484375 1.6699599999999999 1.195741 -0.474219
1766.8828125 1.7462950000000002 1.291295 -0.455
1767.58984375 1.783323 1.329713 -0.45361
1768.29296875 1.7087949999999998 1.221247 -0.487548
1769.01171875 1.676606 1.206606 -0.47
1769.734375 1.755907 1.265727 -0.49018
1770.453125 1.7735079999999999 1.24853 -0.524978
1771.140625 1.7434660000000002 1.16636 -0.577106
1771.83203125 1.750817 1.286145 -0.464672
1772.5234375 1.759047 1.325517 -0.43353
1773.1953125 1.7340790000000001 1.289079 -0.445
1773.8671875 1.69648 1.266604 -0.429876
1774.5859375 1.738157 1.27945 -0.458707
1775.328125 1.7451050000000001 1.238096 -0.507009
1776.0390625 1.721005 1.209925 -0.51108
1776.734375 1.696016 1.206016 -0.49
1777.421875 1.7279719999999998 1.097972 -0.63
1778.1015625 1.646396 1.072786 -0.57361
1778.7734375 1.746552 1.191577 -0.554975
1779.4609375 1.74936 1.179851 -0.569509
1780.15625 1.714256 1.196037 -0.518219
1780.8671875 1.71925 1.229418 -0.489832
1781.58203125 1.7088809999999999 1.170407 -0.538474
1782.31640625 1.742338 1.239266 -0.503072
1783.0234375 1.7188469999999998 1.233847 -0.485
1783.71484375 1.712051 1.127051 -0.585
1784.375 1.7269020000000002 1.235 -0.491902
1785.046875 1.767191 1.317923 -0.449268
1785.7265625 1.748453 1.312207 -0.436246
1786.44921875 1.68784 1.21741 -0.47043
1787.1875 1.719348 1.224375 -0.494973
1787.8984375 1.732062 1.184562 -0.5475
1788.609375 1.73938 1.132237 -0.607143
1789.30859375 1.639363 1.059634 -0.579729
1790.0078125 1.7639909999999999 1.210789 -0.553202
1790.6875 1.7245650000000001 1.205893 -0.518672
1791.37109375 1.698178 1.140678 -0.5575
1792.06640625 1.742143 1.122366 -0.619777
1792.79296875 1.721423 1.142807 -0.578616
1793.5234375 1.729285 1.181559 -0.547726
1794.26171875 1.74781 1.264142 -0.483668
1794.98046875 1.719677 1.209988 -0.509689
1795.6796875 1.6899920000000002 1.184992 -0.505
1796.3515625 1.724301 1.194348 -0.529953
1797.04296875 1.6732300000000002 1.153501 -0.519729
1797.75390625 1.70953 1.181858 -0.527672
1798.47265625 1.704491 1.185 -0.519491
1799.1796875 1.68251 1.12251 -0.56
1799.91015625 1.694915 1.167356 -0.527559
1800.625 1.7198950000000002 1.175 -0.544895
1801.33984375 1.6490360000000002 1.156109 -0.492927
1802.03515625 1.6893150000000001 1.234344 -0.454971
1802.71484375 1.7050830000000001 1.20208 -0.503003
1803.390625 1.657916 1.108355 -0.549561
1804.0859375 1.687637 1.14471 -0.542927
