4.37890625 1.543655 1.500397 -0.043258
4.6640625 0.419593 0.319718 -0.099875
5.5 1.459875 1.35 -0.109875
5.76171875 0.416664 0.296681 -0.119983
6.57421875 1.546815 1.412815 -0.134
7.66015625 1.487905 1.320436 -0.167469
8.80078125 1.432887 1.266606 -0.166281
9.97265625 1.588 1.338584 -0.249416
11.12890625 1.5101550000000001 1.305155 -0.205
12.22265625 1.585 1.34 -0.245
13.33203125 1.498763 1.202247 -0.296516
14.4453125 1.5105140000000001 1.195 -0.315514
15.59375 1.379753 1.08 -0.299753
16.7109375 1.478169 1.189794 -0.288375
17.796875 1.4017339999999998 1.174038 -0.227696
18.88671875 1.3942229999999998 1.115182 -0.279041
19.9765625 1.470148 1.196572 -0.273576
21.1328125 1.456596 1.16933 -0.287266
22.33984375 1.5400369999999999 1.284344 -0.255693
23.50390625 1.456286 1.212006 -0.24428
24.6015625 1.45736 1.23736 -0.22
25.7265625 1.4752969999999999 1.27063 -0.204667
26.8828125 1.610062 1.351374 -0.258688
28.08203125 1.468782 1.29 -0.178782
28.7421875 0.832471 0.13278 -0.699691
30.28125 1.5640809999999998 1.264095 -0.299986
31.36328125 1.4875 1.25 -0.2375
32.44921875 1.5765799999999999 1.266808 -0.309772
33.578125 1.543389 1.214483 -0.328906
34.7109375 1.5135450000000001 1.193826 -0.319719
35.796875 1.3242399999999999 1.074701 -0.249539
36.88671875 1.5192599999999998 1.230244 -0.289016
37.98828125 1.5064629999999999 1.184122 -0.322341
39.15625 1.57266 1.093438 -0.479222
40.34765625 1.6242480000000001 1.474725 -0.149523
41.52734375 1.61182 1.411659 -0.200161
42.6484375 1.6515769999999999 1.356577 -0.295
43.765625 1.5266799999999998 1.466697 -0.059983
44.93359375 1.58514 1.464626 -0.120514
46.13671875 1.593066 1.458066 -0.135
47.2890625 1.6372060000000002 1.389836 -0.24737
48.359375 1.674827 1.350827 -0.324
49.42578125 1.497519 1.144955 -0.352564
50.5390625 1.7415919999999998 1.351592 -0.39
51.703125 1.582052 1.23898 -0.343072
52.796875 1.650235 1.339915 -0.31032
53.890625 1.664121 1.307977 -0.356144
54.97265625 1.594714 1.300298 -0.294416
56.0859375 1.644134 1.364427 -0.279707
57.25390625 1.5306359999999999 1.287675 -0.242961
58.43359375 1.607723 1.309562 -0.298161
59.61328125 1.510381 1.209744 -0.300637
60.72265625 1.5983500000000002 1.311163 -0.287187
61.82421875 1.538122 1.253591 -0.284531
63.00390625 1.388058 1.113105 -0.274953
64.19140625 1.5240330000000002 1.289033 -0.235
65.36328125 1.451536 1.181593 -0.269943
66.47265625 1.478478 1.198849 -0.279629
67.5859375 1.504739 1.224739 -0.28
68.76953125 1.474834 1.184866 -0.289968
69.94921875 1.546512 1.227815 -0.318697
71.08984375 1.4500069999999998 1.029043 -0.420964
72.1796875 1.539437 1.204708 -0.334729
73.265625 1.471031 1.129394 -0.341637
74.38671875 1.5670760000000001 1.171624 -0.395452
75.55859375 1.470373 1.10946 -0.360913
76.71875 1.47625 1.15625 -0.32
77.86328125 1.434506 1.1 -0.334506
78.95703125 1.576179 1.242569 -0.33361
80.06640625 1.3727719999999999 1.089427 -0.283345
81.23828125 1.4054160000000002 1.121776 -0.28364
82.43359375 1.404897 1.094897 -0.31
83.58984375 1.504554 1.188562 -0.315992
84.69140625 1.3936709999999999 1.098163 -0.295508
85.796875 1.474083 1.214083 -0.26
87.01953125 1.429275 1.184304 -0.244971
88.203125 1.510477 1.254367 -0.25611
89.3046875 1.5 1.24 -0.26
90.37109375 1.434678 1.119738 -0.31494
91.4375 1.377856 1.085625 -0.292231
92.5234375 1.497128 1.233379 -0.263749
93.63671875 1.4371990000000001 1.194058 -0.243141
94.73828125 1.470011 1.160135 -0.309876
95.84375 1.5001419999999999 1.155727 -0.344415
96.91796875 1.4684139999999999 1.049146 -0.419268
97.99609375 1.5185870000000001 1.178692 -0.339895
99.14453125 1.404985 1.094995 -0.30999
100.3125 1.442199 1.092237 -0.349962
101.45703125 1.446701 1.139832 -0.306869
102.52734375 1.416509 1.043345 -0.373164
103.58984375 1.412792 1.062839 -0.349953
104.7265625 1.412881 1.068033 -0.344848
105.87890625 1.523106 1.233135 -0.289971
107.01171875 1.457314 1.247314 -0.21
108.125 1.54861 1.33 -0.21861
109.21484375 1.49719 1.303112 -0.194078
110.359375 1.5848 1.380418 -0.204382
111.54296875 1.5085229999999998 1.378523 -0.13
112.703125 1.457762 1.322794 -0.134968
113.828125 1.528882 1.383882 -0.145
114.9140625 1.539955 1.404955 -0.135
115.99609375 1.470611 1.301076 -0.169535
117.1328125 1.625481 1.443846 -0.181635
118.28125 1.452182 1.28776 -0.164422
119.4296875 1.4868139999999999 1.287356 -0.199458
120.51953125 1.509833 1.319833 -0.19
121.609375 1.424582 1.200752 -0.22383
122.75 1.4936399999999999 1.305 -0.18864
123.9375 1.475004 1.249091 -0.225913
125.0859375 1.548637 1.294928 -0.253709
126.18359375 1.474828 1.269345 -0.205483
127.27734375 1.473557 1.244553 -0.229004
128.4140625 1.522373 1.229809 -0.292564
129.609375 1.489024 1.210586 -0.278438
130.77734375 1.4792770000000002 1.214355 -0.264922
131.9140625 1.403174 1.114979 -0.288195
133.02734375 1.4651910000000001 1.185232 -0.279959
134.15234375 1.488399 1.149715 -0.338684
135.3046875 1.496743 1.162593 -0.33415
136.484375 1.414374 1.159745 -0.254629
137.6171875 1.4777429999999998 1.197042 -0.280701
138.7109375 1.4593720000000001 1.093858 -0.365514
139.80078125 1.500157 1.163613 -0.336544
140.9296875 1.4338929999999999 1.14987 -0.284023
142.12890625 1.482111 1.202852 -0.279259
143.2734375 1.444045 1.149045 -0.295
144.359375 1.476402 1.174259 -0.302143
145.44921875 1.466473 1.197565 -0.268908
146.5859375 1.3099720000000001 1.109757 -0.200215
147.80078125 1.3884400000000001 1.125434 -0.263006
148.98828125 1.3451380000000002 1.005138 -0.34
150.12109375 1.4051820000000002 1.076858 -0.328324
151.265625 1.4056929999999999 1.088426 -0.317267
152.4296875 1.405868 1.089502 -0.316366
153.6171875 1.3567619999999998 1.03164 -0.325122
154.79296875 1.475297 1.148506 -0.326791
155.90234375 1.3592600000000001 1.074988 -0.284272
156.9921875 1.4916170000000002 1.216617 -0.275
158.08203125 1.451227 1.152214 -0.299013
159.21875 1.433577 1.09125 -0.342327
160.39453125 1.494573 1.224982 -0.269591
161.51953125 1.484969 1.214068 -0.270901
162.59765625 1.507603 1.267603 -0.24
163.703125 1.458186 1.238262 -0.219924
164.875 1.416798 1.105 -0.311798
166.078125 1.5240829999999999 1.229083 -0.295
167.2421875 1.4997070000000001 1.117809 -0.381898
168.328125 1.523297 1.163297 -0.36
169.4375 1.428629 1.073636 -0.354993
170.57421875 1.531827 1.144327 -0.3875
171.7421875 1.499601 1.174601 -0.325
172.8984375 1.523345 1.158976 -0.364369
174.015625 1.517353 1.153642 -0.363711
175.12890625 1.609368 1.187852 -0.421516
176.2578125 1.582952 1.178151 -0.404801
177.42578125 1.5539049999999999 1.182515 -0.37139
178.609375 1.4906679999999999 1.170752 -0.319916
179.73046875 1.594221 1.274877 -0.319344
180.80078125 1.520968 1.201945 -0.319023
181.8671875 1.60175 1.31718 -0.28457
182.99609375 1.537718 1.257718 -0.28
184.19140625 1.545113 1.240855 -0.304258
185.3203125 1.664405 1.245364 -0.419041
186.3984375 1.5215239999999999 1.097354 -0.42417
187.5 1.58616 1.23 -0.35616
188.6796875 1.552475 1.214476 -0.337999
189.875 1.497734 1.16 -0.337734
191.03125 1.577604 1.237928 -0.339676
192.140625 1.541226 1.209463 -0.331763
193.24609375 1.703725 1.325597 -0.378128
194.390625 1.600285 1.11625 -0.484035
195.55859375 1.6134819999999999 1.598482 -0.015
196.72265625 1.53338 1.35838 -0.175
197.85546875 1.616291 1.343791 -0.2725
198.93359375 1.499644 1.26963 -0.230014
200.0390625 1.504511 1.199511 -0.305
201.19921875 1.454649 1.165434 -0.289215
202.39453125 1.483897 1.179897 -0.304
203.54296875 1.489511 1.219946 -0.269565
204.640625 1.459738 1.141379 -0.318359
205.75390625 1.530015 1.206308 -0.323707
206.96875 1.507113 1.212113 -0.295
208.17578125 1.6369449999999999 1.3286 -0.308345
209.34765625 1.474848 1.17 -0.304848
210.46875 1.608709 1.334844 -0.273865
211.60546875 1.559869 1.324869 -0.235
212.79296875 1.404042 1.141407 -0.262635
213.9609375 1.450823 1.15161 -0.299213
215.125 1.458634 1.23 -0.228634
216.20703125 1.531611 1.262331 -0.26928
217.2734375 1.437111 1.208337 -0.228774
218.3828125 1.350962 1.089056 -0.261906
219.5625 1.274806 1.000134 -0.274672
220.73046875 1.4493079999999998 1.084547 -0.364761
221.84375 1.479812 1.106144 -0.373668
222.91015625 1.524252 1.086938 -0.437314
224.01171875 1.410052 1.051865 -0.358187
225.1796875 1.496852 1.061859 -0.434993
226.33203125 1.450815 1.062557 -0.388258
227.453125 1.5163959999999999 1.122142 -0.394254
228.078125 0.780485 0.029323 -0.751162
229.59375 1.51202 1.16702 -0.345
230.73828125 1.522727 1.17335 -0.349377
231.88671875 1.4561130000000002 1.198457 -0.257656
233.0234375 1.5247249999999999 1.274735 -0.24999
234.125 1.4995090000000002 1.205 -0.294509
235.2109375 1.444168 1.214805 -0.229363
236.33984375 1.451095 1.216095 -0.235
237.51953125 1.404949 1.144949 -0.26
238.69921875 1.49538 1.221161 -0.274219
239.828125 1.4937049999999998 1.198705 -0.295
240.91796875 1.4705650000000001 1.190565 -0.28
242.01171875 1.501108 1.234946 -0.266162
243.20703125 1.481247 1.266247 -0.215
244.37890625 1.539349 1.242068 -0.297281
245.02734375 0.81308 0.109306 -0.703774
246.52734375 1.425549 1.096064 -0.329485
247.58984375 1.5749250000000001 1.238072 -0.336853
248.71875 1.468157 1.144231 -0.323926
249.82421875 1.566746 1.251017 -0.315729
250.92578125 1.4890430000000001 1.224043 -0.265
252.0234375 1.5733519999999999 1.288352 -0.285
253.1015625 1.482195 1.217195 -0.265
254.21484375 1.530706 1.241876 -0.28883
255.390625 1.538628 1.223643 -0.314985
256.5703125 1.5226490000000001 1.182649 -0.34
257.71875 1.633699 1.234773 -0.398926
258.80859375 1.603645 1.094282 -0.509363
259.87890625 1.5957830000000002 1.270628 -0.325155
261.02734375 1.54685 1.244003 -0.302847
262.21875 1.623358 1.349474 -0.273884
263.35546875 1.497472 1.2748 -0.222672
264.45703125 1.561855 1.302411 -0.259444
265.5390625 1.407756 1.094805 -0.312951
266.1796875 0.8025100000000001 0.126973 -0.675537
267.77734375 1.53237 1.263326 -0.269044
268.89453125 1.519516 1.25957 -0.259946
269.9453125 1.4692189999999998 1.16 -0.309219
270.99609375 1.576869 1.29 -0.286869
272.07421875 1.6175320000000002 1.352564 -0.264968
273.20703125 1.511981 1.187918 -0.324063
274.33984375 1.602153 1.302153 -0.3
275.46875 1.478532 1.223871 -0.254661
276.578125 1.637406 1.352406 -0.285
277.6640625 1.5693480000000002 1.344348 -0.225
278.796875 1.449566 1.214813 -0.234753
279.9921875 1.424807 1.222672 -0.202135
281.1640625 1.43987 1.18987 -0.25
282.25390625 1.4774580000000002 1.222514 -0.254944
283.36328125 1.375365 1.176725 -0.19864
284.5078125 1.353895 1.176676 -0.177219
285.71875 1.478025 1.324271 -0.153754
286.89453125 1.449737 1.329892 -0.119845
288.00390625 1.516556 1.376953 -0.139603
289.12109375 1.447238 1.290305 -0.156933
290.25390625 1.420195 1.235195 -0.185
291.421875 1.469862 1.234862 -0.235
292.59375 1.483632 1.148871 -0.334761
293.7109375 1.493126 1.179352 -0.313774
294.8203125 1.511724 1.261724 -0.25
295.9140625 1.574783 1.274837 -0.299946
297.078125 1.40219 0.987161 -0.415029
298.28515625 1.521441 1.397906 -0.123535
299.4453125 1.474219 1.285 -0.189219
300.5390625 1.42245 1.194929 -0.227521
301.6328125 1.436549 1.222528 -0.214021
302.77734375 1.392332 1.214144 -0.178188
303.9453125 1.490781 1.322531 -0.16825
305.07421875 1.426749 1.25461 -0.172139
306.12890625 1.531115 1.270029 -0.261086
307.1953125 1.446507 1.218288 -0.228219
308.34375 1.41977 1.15593 -0.26384
309.51171875 1.484259 1.21945 -0.264809
310.640625 1.3665049999999999 1.106515 -0.25999
311.765625 1.5113530000000002 1.2275 -0.283853
312.8828125 1.409039 1.227207 -0.181832
314.0234375 1.5668389999999999 1.255 -0.311839
315.21484375 1.466032 1.311032 -0.155
316.42578125 1.533793 1.331677 -0.202116
317.59375 1.6360039999999998 1.412629 -0.223375
318.703125 1.5260120000000001 1.367202 -0.15881
319.82421875 1.47684 1.26684 -0.21
321.00390625 1.504179 1.324179 -0.18
322.203125 1.545398 1.375 -0.170398
323.3515625 1.570802 1.383121 -0.187681
324.453125 1.5107169999999999 1.331454 -0.179263
325.5703125 1.5441390000000002 1.33024 -0.213899
326.765625 1.494561 1.304248 -0.190313
327.953125 1.560801 1.395801 -0.165
329.1328125 1.466949 1.284805 -0.182144
330.26953125 1.522551 1.329543 -0.193008
331.40625 1.5434160000000001 1.296923 -0.246493
332.5859375 1.534952 1.279952 -0.255
333.7890625 1.431724 1.199231 -0.232493
334.48828125 0.745262 0.193136 -0.552126
336.12890625 1.5091 1.254126 -0.254974
337.23828125 1.466215 1.266237 -0.199978
338.390625 1.3660990000000002 1.193027 -0.173072
339.5859375 1.3485930000000002 1.254763 -0.09383
340.77734375 1.4950320000000001 1.422924 -0.072108
341.90625 1.38778 1.333003 -0.054777
343.0 1.5050000000000001 1.28 -0.225
344.15625 1.390155 1.319426 -0.070729
345.35546875 1.424859 1.215 -0.209859
346.515625 1.317741 1.148125 -0.169616
347.65625 1.288111 1.074281 -0.21383
348.74609375 1.3509200000000001 1.056278 -0.294642
349.86328125 1.2984490000000002 1.00859 -0.289859
351.01953125 1.384891 1.139891 -0.245
352.1796875 1.3337489999999999 1.151063 -0.182686
353.34375 1.370716 1.116962 -0.253754
354.44921875 1.398465 1.143656 -0.254809
355.53515625 1.32557 1.09557 -0.23
356.68359375 1.369723 1.146582 -0.223141
357.875 1.3143550000000002 1.09 -0.224355
359.05078125 1.438581 1.158581 -0.28
360.14453125 1.3406 1.085825 -0.254775
361.2109375 1.445489 1.135577 -0.309912
362.3359375 1.3763450000000002 1.152022 -0.224323
363.51171875 1.4334580000000001 1.228458 -0.205
364.6484375 1.348767 1.188992 -0.159775
365.76171875 1.334946 1.174946 -0.16
366.8359375 1.383885 1.218885 -0.165
367.97265625 1.408807 1.203959 -0.204848
369.17578125 1.397892 1.178529 -0.219363
370.359375 1.450217 1.249516 -0.200701
371.53125 1.4497330000000002 1.213424 -0.236309
372.6484375 1.516387 1.255225 -0.261162
373.76171875 1.4399190000000002 1.164946 -0.274973
374.9296875 1.4328210000000001 1.210037 -0.222784
376.12109375 1.383994 1.143791 -0.240203
377.28125 1.51401 1.194074 -0.319936
378.3671875 1.4436589999999998 1.188659 -0.255
379.42578125 1.588885 1.308885 -0.28
380.5625 1.531726 1.207576 -0.32415
381.69921875 1.590409 1.345438 -0.244971
382.81640625 1.5878450000000002 1.229837 -0.358008
383.87890625 1.5581990000000001 1.218199 -0.34
384.9453125 1.492199 1.192277 -0.299922
386.06640625 1.438334 1.153881 -0.284453
387.27734375 1.507807 1.172826 -0.334981
388.4765625 1.468229 1.156717 -0.311512
389.65625 1.391214 1.043887 -0.347327
390.80859375 1.3877000000000002 1.079282 -0.308418
391.9375 1.4677760000000002 1.082262 -0.385514
393.109375 1.375064 1.065134 -0.30993
394.29296875 1.404039 1.109039 -0.295
395.44921875 1.445095 1.198039 -0.247056
396.546875 1.526375 1.206801 -0.319574
397.63671875 1.489681 1.194906 -0.294775
398.76953125 1.409926 1.06498 -0.344946
399.96484375 1.5053999999999998 1.1454 -0.36
401.11328125 1.448946 1.128946 -0.32
402.21484375 1.411986 1.091986 -0.32
402.96875 1.391457 1.062772 -0.328685
404.13671875 1.454222 1.183004 -0.271218
405.3828125 1.49312 1.239802 -0.253318
406.6171875 1.420123 1.251295 -0.168828
407.79296875 1.5257610000000001 1.271913 -0.253848
408.98828125 1.386976 1.108336 -0.27864
410.1796875 1.6269589999999998 1.226959 -0.4
411.3828125 1.465897 1.200897 -0.265
412.578125 1.272268 1.174612 -0.097656
413.74609375 1.300168 1.130168 -0.17
414.8203125 1.459922 1.19 -0.269922
415.84375 1.386549 1.091842 -0.294707
416.8984375 1.370822 1.093986 -0.276836
418.0078125 1.406498 1.088123 -0.318375
419.12890625 1.480928 1.256034 -0.224894
420.23046875 1.419857 1.174941 -0.244916
421.33203125 1.403096 1.183846 -0.21925
422.4765625 1.30351 1.159062 -0.144448
423.69140625 1.289295 1.104295 -0.185
424.8671875 1.3745699999999998 1.17 -0.20457
425.98046875 1.303326 1.114974 -0.188352
427.0859375 1.3703349999999999 1.089867 -0.280468
428.22265625 1.343933 1.119184 -0.224749
429.3984375 1.403195 1.205854 -0.197341
430.578125 1.388367 1.194461 -0.193906
431.7109375 1.383122 1.183236 -0.199886
432.328125 0.82339 0.164419 -0.658971
433.890625 1.4058279999999999 1.236484 -0.169344
435.03515625 1.4636179999999999 1.259639 -0.203979
436.16796875 1.4176579999999999 1.166899 -0.250759
437.2890625 1.352474 1.149953 -0.202521
438.3515625 1.341121 1.141392 -0.199729
439.41015625 1.3978050000000002 1.199364 -0.198441
440.5234375 1.4 1.18 -0.22
441.69921875 1.5566309999999999 1.271745 -0.284886
442.86328125 1.506864 1.191864 -0.315
443.96484375 1.652901 1.283699 -0.369202
445.0625 1.575247 1.270682 -0.304565
446.2109375 1.534555 1.304655 -0.2299
447.390625 1.438173 1.158398 -0.279775
448.55078125 1.355419 1.03561 -0.319809
449.6796875 1.429732 1.134732 -0.295
450.77734375 1.4527100000000002 1.13271 -0.32
451.8828125 1.470718 1.174599 -0.296119
453.03515625 1.499014 1.152959 -0.346055
454.2109375 1.489649 1.114687 -0.374962
455.35546875 1.601488 1.004988 -0.5965
456.4375 1.487984 1.300878 -0.187106
457.51953125 1.373995 1.235797 -0.138198
458.6640625 1.459768 1.174768 -0.285
459.86328125 1.32859 1.03859 -0.29
461.046875 1.406136 1.096136 -0.31
462.16015625 1.455056 1.155482 -0.299574
463.265625 1.462335 1.22298 -0.239355
464.44140625 1.3968500000000001 1.12 -0.27685
465.64453125 1.424409 1.129928 -0.294481
466.79296875 1.3604770000000002 1.091498 -0.268979
467.890625 1.4220260000000002 1.027435 -0.394591
468.96875 1.336914 1.037879 -0.299035
470.06640625 1.338609 1.098609 -0.24
471.203125 1.5241 1.209195 -0.314905
472.328125 1.792081 1.229075 -0.563006
473.02734375 0.8180080000000001 0.198023 -0.619985
473.2421875 0.15294400000000002 0.279546 0.126602
474.484375 1.639535 1.51 -0.129535
475.515625 1.5925259999999999 1.357991 -0.234535
476.58203125 1.716386 0.963626 -0.75276
477.66015625 1.7267519999999998 1.76714 0.040388
478.73828125 1.479099 1.457166 -0.021933
479.78125 1.557564 1.28 -0.277564
480.8046875 1.4218870000000001 1.151887 -0.27
481.86328125 1.4715319999999998 1.106903 -0.364629
483.0 1.4735960000000001 1.11 -0.363596
484.1171875 1.533541 1.164806 -0.368735
485.234375 1.486257 1.180246 -0.306011
486.2890625 1.429861 1.089861 -0.34
487.36328125 1.3735419999999998 1.005 -0.368542
488.46484375 1.422077 1.051179 -0.370898
489.60546875 1.3155459999999999 0.945546 -0.37
490.75 1.482267 1.125 -0.357267
491.87890625 1.4800840000000002 1.205084 -0.275
492.95703125 1.583311 1.343837 -0.239474
494.0546875 1.462807 1.233233 -0.229574
495.2109375 1.619709 1.344834 -0.274875
496.40625 1.430878 1.255878 -0.175
497.5546875 1.535849 1.338906 -0.196943
498.65234375 1.485722 1.271387 -0.214335
499.75 1.594462 1.42 -0.174462
500.921875 1.549912 1.384583 -0.165329
502.08984375 1.565437 1.475535 -0.089902
503.203125 1.494846 1.304862 -0.189984
504.28515625 1.4498600000000001 1.204457 -0.245403
505.3671875 1.561207 1.302695 -0.258512
506.50390625 1.5661589999999999 1.416159 -0.15
507.64453125 1.514913 1.155294 -0.359619
508.7890625 1.4767890000000001 1.089746 -0.387043
509.9140625 1.5252839999999999 1.134955 -0.390329
511.00390625 1.576985 1.217705 -0.35928
512.1015625 1.532354 1.249854 -0.2825
513.2734375 1.362328 1.142369 -0.219959
514.453125 1.536248 1.34141 -0.194838
515.61328125 1.527695 1.329153 -0.198542
516.703125 1.558908 1.349022 -0.209886
517.8046875 1.504895 1.365266 -0.139629
518.99609375 1.602468 1.405535 -0.196933
520.1796875 1.555943 1.458252 -0.097691
521.31640625 1.469181 1.349779 -0.119402
522.4140625 1.478868 1.27956 -0.199308
523.49609375 1.551706 1.341706 -0.21
524.625 1.4111189999999998 1.15 -0.261119
525.75390625 1.466126 1.296846 -0.16928
526.87890625 1.506046 1.186046 -0.32
527.98828125 1.392888 1.114428 -0.27846
529.0546875 1.591612 1.242802 -0.34881
530.13671875 1.468173 1.213771 -0.254402
531.28515625 1.440249 1.172097 -0.268152
532.45703125 1.3258079999999999 1.055896 -0.269912
533.59765625 1.461609 1.186948 -0.274661
534.69140625 1.4843659999999999 1.304366 -0.18
535.765625 1.413367 1.133592 -0.279775
536.890625 1.420294 1.146548 -0.273746
538.05859375 1.419571 1.154649 -0.264922
539.18359375 1.5141999999999998 1.2792 -0.235
540.24609375 1.425171 1.121375 -0.303796
541.31640625 1.48215 1.184396 -0.297754
542.421875 1.399055 1.114326 -0.284729
543.59375 1.482294 1.164286 -0.318008
544.7421875 1.356867 1.041867 -0.315
545.8515625 1.36101 1.07027 -0.29074
546.9609375 1.414941 1.119979 -0.294962
548.06640625 1.483895 1.249304 -0.234591
549.19921875 1.41358 1.210623 -0.202957
550.359375 1.397435 1.142495 -0.25494
551.484375 1.3975 1.1425 -0.255
552.57421875 1.4603380000000001 1.259557 -0.200781
553.64453125 1.7953709999999998 1.191069 -0.604302
554.72265625 1.646279 1.459553 -0.186726
555.85546875 1.6845759999999999 1.454964 -0.229612
556.94140625 1.598503 1.304436 -0.294067
557.94140625 1.718508 1.399489 -0.319019
558.93359375 1.8019699999999998 1.444499 -0.357471
559.94140625 1.647732 1.364048 -0.283684
561.0 1.845 1.505 -0.34
562.0703125 1.836971 1.469474 -0.367497
563.09375 1.79959 1.48 -0.31959
564.0703125 1.785713 1.384932 -0.400781
565.078125 1.760395 1.285801 -0.474594
566.125 1.763512 1.34 -0.423512
567.25390625 1.606891 1.307611 -0.29928
568.40625 1.618674 1.333674 -0.285
569.52734375 1.5793599999999999 1.199374 -0.379986
570.62109375 1.4903680000000001 1.603701 0.113333
571.70703125 1.470901 0.993635 -0.477266
572.82421875 1.670058 1.135488 -0.53457
574.0 1.5977839999999999 1.19 -0.407784
575.1640625 1.5699040000000002 1.179904 -0.39
576.24609375 1.637172 1.295239 -0.341933
577.3203125 1.557456 0.979672 -0.577784
578.4140625 1.731821 1.344715 -0.387106
579.52734375 1.7580090000000002 1.54838 -0.209629
580.58984375 1.739472 1.4264 -0.313072
581.6171875 1.637076 1.124286 -0.51279
582.6171875 1.691148 0.82837 -0.862778
583.64453125 1.7623220000000002 1.324839 -0.437483
584.68359375 1.7629350000000001 1.683299 -0.079636
585.71875 1.746029 1.516805 -0.229224
586.734375 1.673691 1.383691 -0.29
587.6953125 1.602901 1.237172 -0.365729
588.62890625 1.704775 1.344908 -0.359867
589.55078125 1.588054 1.308054 -0.28
590.51171875 1.640425 1.177456 -0.462969
591.4765625 1.670811 1.103311 -0.5675
592.44921875 1.721844 1.240626 -0.481218
593.38671875 1.6809450000000001 1.191237 -0.489708
594.28515625 1.650359 1.412831 -0.237528
595.16796875 1.726505 1.261573 -0.464932
596.08984375 1.649262 1.080541 -0.568721
597.05078125 1.6106349999999998 1.202025 -0.40861
598.04296875 1.6041720000000002 1.254172 -0.35
599.0 1.809888 1.355 -0.454888
599.91796875 1.620022 1.005022 -0.615
600.83203125 1.451997 0.781483 -0.670514
601.7578125 1.642626 1.237426 -0.4052
602.71875 1.5504229999999999 1.242105 -0.308318
603.65234375 1.591295 1.289175 -0.30212
604.57421875 1.450384 1.151279 -0.299105
605.484375 1.7409080000000001 1.450925 -0.289983
606.37890625 1.6383590000000001 1.433502 -0.204857
608.14453125 1.483797 1.034889 -0.448908
609.08203125 1.67685 1.311695 -0.365155
610.0234375 1.5999089999999998 1.122966 -0.476943
610.9609375 1.5692059999999999 1.149837 -0.419369
611.8515625 1.603106 1.333423 -0.269683
612.7109375 1.397715 1.159669 -0.238046
613.5859375 1.4694070000000001 1.179515 -0.289892
614.51171875 1.637233 1.183698 -0.453535
615.45703125 1.463015 1.031719 -0.431296
616.41015625 1.5148490000000001 1.052194 -0.462655
617.31640625 1.456804 1.223635 -0.233169
619.0859375 1.6168749999999998 1.189811 -0.427064
620.03125 1.422234 1.127946 -0.294288
620.97265625 1.479876 1.12 -0.359876
621.92578125 1.428118 1.063118 -0.365
622.87109375 1.33842 1.17342 -0.165
623.53515625 0.618208 0.244021 -0.374187
624.67578125 1.477857 1.264083 -0.213774
625.6171875 1.5170409999999999 1.365538 -0.151503
626.5546875 1.514941 1.440055 -0.074886
627.5234375 1.470965 1.141702 -0.329263
628.4921875 1.58572 1.300935 -0.284785
630.359375 1.589988 1.3207 -0.269288
631.26171875 1.509402 1.38 -0.129402
632.18359375 1.572432 1.272432 -0.3
633.12890625 1.502901 1.208148 -0.294753
634.10546875 1.489404 1.095564 -0.39384
635.98828125 1.5235690000000002 1.170444 -0.353125
636.86328125 1.652715 1.172715 -0.48
637.765625 1.4868519999999998 1.257051 -0.229801
638.734375 1.462525 1.194959 -0.267566
639.6875 1.684899 1.620263 -0.064636
640.6171875 1.6189490000000002 1.502258 -0.116691
641.53125 1.6398519999999999 1.247391 -0.392461
642.3984375 1.6376870000000001 1.167709 -0.469978
643.2734375 1.4994990000000001 1.140317 -0.359182
644.17578125 1.615696 1.14947 -0.466226
645.09765625 1.444292 1.057394 -0.386898
645.7734375 0.8652890000000001 0.101674 -0.763615
646.96484375 1.518882 1.186873 -0.332009
647.890625 1.459727 1.084727 -0.375
648.765625 1.469403 1.094528 -0.374875
649.62109375 1.563853 1.218797 -0.345056
650.52734375 1.374108 1.085499 -0.288609
651.4609375 1.49926 1.234651 -0.264609
652.40625 1.565551 1.300341 -0.26521
653.36328125 1.300651 1.008718 -0.291933
654.2578125 1.506432 1.176104 -0.330328
655.15234375 1.394212 0.989212 -0.405
656.05859375 1.293979 0.89 -0.403979
657.03125 1.5726660000000001 1.10576 -0.466906
658.0 1.281296 0.98 -0.301296
658.9375 1.3548010000000001 1.046667 -0.308134
659.859375 1.4510930000000002 1.196711 -0.254382
660.75 1.306246 0.94 -0.366246
661.6484375 1.430479 0.995479 -0.435
662.30078125 0.785821 0.022961 -0.76286
662.5078125 0.06229899999999999 -0.03558 -0.097879
663.53515625 1.439373 1.057386 -0.381987
664.48046875 1.3044909999999998 1.07493 -0.229561
665.3984375 1.28795 0.911467 -0.376483
666.30078125 1.3074219999999999 0.97097 -0.336452
667.1640625 1.123375 0.768732 -0.354643
668.02734375 1.165165 0.786806 -0.378359
668.94921875 0.620107 -0.11279 -0.732897
669.8515625 1.14582 0.642859 -0.502961
670.75 1.408385 1.025 -0.383385
671.63671875 1.266763 0.876888 -0.389875
672.484375 1.397395 1.028567 -0.368828
673.33984375 1.5615609999999998 1.042509 -0.519052
674.234375 1.294109 0.923447 -0.370662
675.1640625 1.3973170000000001 0.979527 -0.41779
676.11328125 1.4507139999999998 1.005 -0.445714
677.01953125 1.497058 1.075803 -0.421255
677.890625 1.139006 0.783826 -0.35518
678.5 0.74 0.095 -0.645
679.60546875 1.289045 0.850559 -0.438486
680.52734375 1.1214490000000001 0.686674 -0.434775
681.4765625 1.3352249999999999 0.905225 -0.43
682.39453125 1.164203 0.79488 -0.369323
683.27734375 1.267174 1.012902 -0.254272
684.16015625 1.260397 0.930424 -0.329973
685.04296875 1.161874 0.898828 -0.263046
685.94140625 1.367292 1.144494 -0.222798
686.86328125 1.191611 0.882529 -0.309082
687.8359375 1.16661 0.91161 -0.255
688.76953125 1.363047 1.069975 -0.293072
689.7109375 1.190073 0.879894 -0.310179
690.63671875 1.310329 1.096878 -0.213451
691.53515625 1.360285 1.097097 -0.263188
692.49609375 1.312514 1.082514 -0.23
693.4921875 1.374801 1.030136 -0.344665
694.55859375 1.5141069999999999 1.21942 -0.294687
695.5 1.5399999999999998 1.255 -0.285
696.44140625 1.40367 1.103833 -0.299837
697.390625 1.521953 1.316798 -0.205155
698.42578125 1.369011 1.074011 -0.295
699.46875 1.3431760000000001 1.01425 -0.328926
700.515625 1.5434459999999999 1.240305 -0.303141
701.53515625 1.358903 1.104987 -0.253916
702.54296875 1.461778 1.284709 -0.177069
703.546875 1.413516 1.208516 -0.205
704.6171875 1.499131 1.336709 -0.162422
705.6796875 1.4607610000000002 1.280107 -0.180654
706.76171875 1.474458 1.504583 0.030125
707.78515625 1.486186 1.237465 -0.248721
708.828125 1.396056 0.901281 -0.494775
709.8359375 1.5406179999999998 0.974474 -0.566144
710.91015625 1.3793389999999999 0.87712 -0.502219
712.02734375 1.621314 1.213173 -0.408141
713.12109375 1.420933 1.042861 -0.378072
714.15234375 1.5548540000000002 1.244868 -0.309986
715.1796875 1.490997 1.099751 -0.391246
716.23828125 1.546678 1.286678 -0.26
717.359375 1.508426 1.198426 -0.31
718.48828125 1.453794 1.14945 -0.304344
719.5546875 1.542249 1.222582 -0.319667
720.60546875 1.441228 1.114982 -0.326246
721.6484375 1.571623 1.301623 -0.27
722.76171875 1.426478 1.111087 -0.315391
723.85546875 1.614261 1.344512 -0.269749
724.95703125 1.4253689999999999 1.11865 -0.306719
726.01953125 1.5567929999999999 1.219568 -0.337225
727.07421875 1.5176539999999998 1.133104 -0.38455
728.13671875 1.503674 1.213674 -0.29
729.2265625 1.475443 1.210952 -0.264491
730.375 1.377961 1.12 -0.257961
731.44140625 1.603823 1.193823 -0.41
732.46484375 1.494119 1.029119 -0.465
733.484375 1.67889 1.2975 -0.38139
734.546875 1.623522 1.269102 -0.35442
735.6640625 1.618444 1.339706 -0.278738
736.15625 1.765155 1.135924 -0.629231
736.5546875 2.5433 0.584474 -1.958826
738.42578125 2.1833 2.0783 -0.105
739.4375 1.814946 2.92 1.105054
740.48828125 1.577478 2.198397 0.620919
741.5390625 1.351723 1.547455 0.195732
742.58203125 1.372832 1.493241 0.120409
743.64453125 1.35901 1.044889 -0.314121
744.11328125 1.26548 0.798303 -0.467177
745.3203125 1.29254 0.842559 -0.449981
746.359375 1.4056389999999999 0.961518 -0.444121
746.84765625 1.295883 0.709479 -0.586404
748.140625 1.3578169999999998 0.87784 -0.479977
749.18359375 1.507956 1.092988 -0.414968
749.66015625 1.542936 1.028021 -0.514915
750.84765625 1.414868 0.969868 -0.445
751.8515625 1.530265 1.150389 -0.379876
752.88671875 1.500131 1.076881 -0.42325
753.58984375 0.785751 0.145875 -0.639876
755.0078125 1.4342089999999998 1.08435 -0.349859
756.015625 1.516434 1.121685 -0.394749
757.02734375 1.6386479999999999 1.318438 -0.32021
758.1015625 1.615626 1.400352 -0.215274
758.609375 1.564933 1.355 -0.209933
759.92578125 1.544239 1.154197 -0.390042
761.0234375 1.574688 1.264688 -0.31
761.5 1.447025 1.09 -0.357025
762.7578125 1.5473510000000001 1.379512 -0.167839
763.828125 1.4144640000000002 1.219826 -0.194638
765.21484375 0.209347 -0.468725 -0.678072
766.71484375 1.502038 1.588655 0.086617
767.7890625 1.5565220000000002 1.62 0.063478
768.8359375 1.4998010000000002 0.984801 -0.515
770.578125 1.52321 0.860062 -0.663148
771.734375 1.6133950000000001 1.153642 -0.459753
772.8671875 1.558897 1.120936 -0.437961
773.3515625 1.4881579999999999 0.908326 -0.579832
774.59765625 1.659348 1.419684 -0.239664
775.69140625 1.610138 1.432442 -0.177696
776.8125 1.658845 1.484295 -0.17455
777.9453125 1.680819 1.382256 -0.298563
779.05078125 1.59879 1.324376 -0.274414
779.54296875 1.649163 1.311284 -0.337879
780.8203125 1.5396589999999999 1.324992 -0.214667
781.89453125 1.6795309999999999 1.464902 -0.214629
783.0234375 1.529611 1.27964 -0.249971
783.53125 1.484833 1.171532 -0.313301
784.85546875 1.594942 1.284942 -0.31
785.95703125 1.5504449999999999 1.342247 -0.208198
786.43359375 1.5312000000000001 1.283856 -0.247344
787.67578125 1.559923 1.264923 -0.295
788.7734375 1.61282 1.31782 -0.295
789.8828125 1.654254 1.34981 -0.304444
790.99609375 1.6047099999999999 1.281439 -0.323271
792.03125 1.6406390000000002 1.311276 -0.329363
793.046875 1.6028179999999999 1.213839 -0.388979
794.09375 1.646928 1.259853 -0.387075
795.23046875 1.584894 1.341516 -0.243378
796.34765625 1.6185640000000001 1.358921 -0.259643
797.43359375 1.509641 1.239641 -0.27
798.48046875 1.5897590000000001 1.384953 -0.204806
799.546875 1.550147 1.278078 -0.272069
800.6640625 1.429462 1.244773 -0.184689
801.79296875 1.504293 1.374293 -0.13
802.2890625 1.3622109999999998 1.089843 -0.272368
803.61328125 1.57665 1.331714 -0.244936
804.6953125 1.4314200000000001 1.151477 -0.279943
805.76171875 1.5278349999999998 1.303629 -0.224206
806.26171875 1.5008110000000001 1.103047 -0.397764
807.62109375 1.4906840000000001 1.286072 -0.204612
808.734375 1.4609299999999998 1.200769 -0.260161
809.83203125 1.461461 1.091842 -0.369619
810.85546875 1.609596 1.254596 -0.355
811.89453125 1.368519 1.03555 -0.332969
813.015625 1.570364 0.980371 -0.589993
814.1328125 1.3382310000000002 1.133231 -0.205
815.21875 1.458178 1.330859 -0.127319
816.26171875 2.140936 0.804408 -1.336528
817.28125 1.4341620000000002 1.467772 0.03361
818.375 1.4097659999999999 1.525 0.115234
819.5078125 1.362615 0.947647 -0.414968
820.60546875 1.496024 1.614989 0.118965
821.6875 1.411492 1.373712 -0.03778
822.734375 1.675 1.385 -0.29
823.78515625 1.5304360000000001 1.500436 -0.03
824.87109375 1.456858 0.976858 -0.48
825.96484375 1.638467 1.154717 -0.48375
827.078125 1.550696 1.622184 0.071488
828.1484375 1.6199999999999999 1.615 -0.0050
829.16015625 1.622207 1.389526 -0.232681
830.21484375 1.547595 1.350541 -0.197054
831.3359375 1.5680720000000001 1.329924 -0.238148
832.46484375 1.4827380000000001 1.239859 -0.242879
833.515625 1.640358 1.480458 -0.1599
834.546875 1.56582 1.327774 -0.238046
835.58984375 1.438645 1.194113 -0.244532
836.67578125 1.664082 1.409125 -0.254957
837.828125 1.4756109999999998 1.18613 -0.289481
838.91796875 1.608014 1.443014 -0.165
839.9921875 1.5612 1.318128 -0.243072
840.47265625 1.4184919999999999 1.074852 -0.34364
841.71875 1.7632940000000001 1.598912 -0.164382
842.828125 1.617919 1.388544 -0.229375
843.92578125 1.6970020000000001 1.581682 -0.11532
845.02734375 1.599008 1.374008 -0.225
846.08203125 1.72669 1.638542 -0.088148
847.109375 1.6762629999999998 1.256263 -0.42
848.16015625 1.595513 1.205513 -0.39
849.28125 1.7174710000000002 1.35 -0.367471
850.42578125 1.602491 1.303104 -0.299387
851.5234375 1.5770009999999999 1.209992 -0.367009
852.56640625 1.459641 1.114641 -0.345
853.59765625 1.521088 0.937306 -0.583782
854.69140625 1.6781169999999999 1.403149 -0.274968
855.81640625 1.785295 1.470038 -0.315257
856.90234375 1.593407 1.175126 -0.418281
857.92578125 1.6690289999999999 1.260344 -0.408685
858.9765625 1.55403 1.13403 -0.42
860.015625 1.669983 1.364792 -0.305191
861.14453125 1.491928 1.239874 -0.252054
862.2734375 1.5216379999999998 1.426702 -0.094936
863.375 1.48 1.3 -0.18
864.44921875 1.40319 1.148484 -0.254706
865.50390625 1.564898 1.325192 -0.239706
866.58203125 1.410721 1.185889 -0.224832
867.7265625 1.5341289999999999 1.334809 -0.19932
868.8671875 1.4343569999999999 1.154728 -0.279629
869.94921875 1.4703789999999999 1.385436 -0.084943
871.01171875 1.506593 0.871593 -0.635
872.10546875 1.364064 1.239079 -0.124985
873.2421875 1.564756 1.334999 -0.229757
874.39453125 1.433962 1.135 -0.298962
875.49609375 1.606927 0.867445 -0.739482
876.56640625 1.623094 1.273994 -0.3491
877.640625 1.644878 1.586518 -0.05836
878.75390625 1.428446 1.339026 -0.08942
879.8828125 1.477917 1.332917 -0.145
880.99609375 1.332382 1.051484 -0.280898
882.0859375 1.250134 0.906111 -0.344023
883.11328125 1.449449 1.354455 -0.094994
884.19140625 1.3175729999999999 1.229622 -0.087951
885.29296875 1.4493909999999999 1.446621 -0.00277
886.44140625 1.498267 0.684709 -0.813558
887.53125 1.579266 1.594336 0.01507
888.57421875 1.323721 1.814575 0.490854
889.64453125 1.245036 1.449255 0.204219
890.734375 1.372306 1.327858 -0.044448
891.88671875 1.467875 1.029129 -0.438746
892.98828125 1.6948940000000001 1.201318 -0.493576
894.05078125 1.484598 0.985575 -0.499023
895.1171875 1.5470380000000001 1.229567 -0.317471
896.19921875 1.5928460000000002 1.25357 -0.339276
897.31640625 1.618884 1.348884 -0.27
898.44921875 1.5608840000000002 1.302915 -0.257969
899.57421875 1.4295809999999998 1.079581 -0.35
900.6328125 1.521623 1.202717 -0.318906
901.71484375 1.382702 0.923981 -0.458721
902.81640625 1.517973 1.241664 -0.276309
903.98828125 1.362741 1.0904 -0.272341
905.1171875 1.477045 1.268545 -0.2085
906.20703125 1.568599 1.503635 -0.064964
907.2578125 1.575817 1.326537 -0.24928
908.35546875 1.5897270000000001 1.174797 -0.41493
909.5 1.474832 1.045 -0.429832
910.6640625 1.419536 0.999894 -0.419642
911.76171875 1.589595 1.297002 -0.292593
912.82421875 1.443948 1.078694 -0.365254
913.93359375 1.421207 1.089898 -0.331309
915.07421875 1.606499 1.283207 -0.323292
916.21875 1.477985 1.25845 -0.219535
917.3515625 1.433738 1.107238 -0.3265
918.4140625 1.469727 0.939284 -0.530443
919.50390625 1.344754 0.859754 -0.485
920.6015625 1.577707 1.242707 -0.335
921.734375 1.443055 1.171351 -0.271704
922.87109375 1.52969 1.45605 -0.07364
923.9375 1.466929 1.346929 -0.12
924.984375 1.3448900000000001 1.15989 -0.185
926.02734375 1.362583 1.132695 -0.229888
927.1171875 1.37317 1.06317 -0.31
928.2578125 1.3945969999999999 1.114685 -0.279912
929.3359375 1.4893960000000002 1.149564 -0.339832
930.39453125 1.342625 1.07491 -0.267715
931.4375 1.460022 1.387262 -0.07276
932.5625 1.4919360000000002 1.2873 -0.204636
933.6953125 1.6263230000000002 1.461359 -0.164964
934.80859375 1.4877960000000001 1.329644 -0.158152
935.875 1.3849999999999998 1.035 -0.35
936.91015625 1.5463500000000001 1.271721 -0.274629
937.99609375 1.451987 1.262951 -0.189036
939.1015625 1.5502569999999998 1.371757 -0.1785
940.21875 1.38035 1.226346 -0.154004
941.328125 1.480066 1.347566 -0.1325
942.3984375 1.352252 1.134985 -0.217267
943.4453125 1.455524 1.220532 -0.234992
944.53515625 1.418098 1.057874 -0.360224
945.6796875 1.3045360000000001 0.913775 -0.390761
946.8125 1.42055 1.071 -0.34955
947.90234375 1.358178 0.983809 -0.374369
948.94921875 1.4475069999999999 1.162515 -0.284992
950.0234375 1.31158 0.966587 -0.344993
951.21875 1.376927 1.117095 -0.259832
952.375 1.455 1.055 -0.4
953.4609375 1.5546579999999999 1.124687 -0.429971
954.52734375 1.368492 1.093849 -0.274643
955.61328125 1.43404 1.246569 -0.187471
956.75390625 1.307779 1.11961 -0.188169
957.8984375 1.589542 1.43532 -0.154222
959.02734375 1.42374 1.188772 -0.234968
960.13671875 1.57584 1.39584 -0.18
961.203125 1.526458 1.221599 -0.304859
962.296875 1.5306929999999999 1.227936 -0.302757
963.42578125 1.5254660000000002 1.177515 -0.347951
964.5703125 1.465423 1.080423 -0.385
965.67578125 1.632228 1.32277 -0.309458
966.734375 1.5084009999999999 1.198972 -0.309429
967.80859375 1.3348389999999999 1.104895 -0.229944
968.96484375 1.664366 1.382103 -0.282263
970.08984375 1.703981 1.378981 -0.325
971.1875 1.757359 1.403725 -0.353634
972.23046875 1.724736 1.324904 -0.399832
973.2578125 1.7139250000000001 1.434106 -0.279819
974.3203125 1.698757 1.459163 -0.239594
975.41015625 1.693924 1.400541 -0.293383
976.4765625 1.6875580000000001 1.422558 -0.265
977.53125 1.69502 1.433711 -0.261309
978.54296875 1.712983 1.436401 -0.276582
979.5703125 1.641356 1.322435 -0.318921
980.62109375 1.7272979999999998 1.360032 -0.367266
981.73046875 1.594247 1.32986 -0.264387
982.828125 1.679319 1.464728 -0.214591
983.91015625 1.764503 1.470178 -0.294325
984.94921875 1.6177629999999998 1.35777 -0.259993
985.98046875 1.7262389999999999 1.363711 -0.362528
987.125 1.5051219999999998 1.17 -0.335122
988.23046875 1.634274 1.404824 -0.22945
989.30859375 1.5954929999999998 1.285 -0.310493
990.34375 1.986197 0.914315 -1.071882
991.35546875 1.86385 1.471088 -0.392762
992.390625 1.790605 1.48125 -0.309355
993.48046875 2.067568 1.689975 -0.377593
994.51953125 2.039926 1.649926 -0.39
995.53125 1.9462169999999999 1.512131 -0.434086
996.55859375 2.021305 1.724595 -0.29671
997.546875 2.027625 1.644619 -0.383006
998.58984375 1.913879 1.488984 -0.424895
999.71484375 1.951073 1.567945 -0.383128
1000.79296875 1.963843 1.618843 -0.345
1001.88671875 1.963173 1.598829 -0.364344
1002.9375 1.919336 1.534336 -0.385
1004.00390625 1.9203290000000002 1.665329 -0.255
1005.1796875 1.847998 1.552739 -0.295259
1006.3359375 1.9646050000000002 1.669871 -0.294734
1007.41796875 1.8626779999999998 1.568876 -0.293802
1008.515625 1.9270019999999999 1.683701 -0.243301
1009.59765625 1.843921 1.518921 -0.325
1010.765625 1.874105 1.549248 -0.324857
1011.9296875 1.962566 1.642566 -0.32
1013.08203125 1.8623619999999999 1.483321 -0.379041
1014.19140625 1.894649 1.569415 -0.325234
1015.29296875 1.856926 1.491926 -0.365
1016.42578125 1.826184 1.492336 -0.333848
1017.578125 1.870339 1.432191 -0.438148
1018.74609375 1.7323060000000001 1.272623 -0.459683
1019.88671875 1.898474 1.563615 -0.334859
1020.953125 1.911559 1.611619 -0.29994
1022.05078125 1.863257 1.558257 -0.305
1023.20703125 1.866615 1.601727 -0.264888
1024.3984375 1.875835 1.583696 -0.292139
1025.52734375 1.918005 1.648034 -0.269971
1026.59765625 1.903229 1.543522 -0.359707
1027.69140625 1.859944 1.514952 -0.344992
1028.8515625 1.909084 1.591584 -0.3175
1030.01171875 2.086409 1.715545 -0.370864
1031.1640625 1.989843 1.659843 -0.33
1032.28515625 2.107776 1.812776 -0.295
1033.3828125 2.047228 1.688228 -0.359
1034.515625 1.9965080000000002 1.611614 -0.384894
1035.67578125 2.10411 1.74411 -0.36
1036.84765625 1.927163 1.571948 -0.355215
1037.9765625 1.9573479999999999 1.652348 -0.305
1039.07421875 2.082484 1.711047 -0.371437
1040.19921875 1.988722 1.61379 -0.374932
1041.37109375 2.129019 1.839117 -0.289902
1042.55859375 2.0702860000000003 1.774439 -0.295847
1043.72265625 2.076559 1.772467 -0.304092
1044.80078125 2.091216 1.624602 -0.466614
1045.921875 1.971686 1.57412 -0.397566
1047.09765625 2.174084 1.808251 -0.365833
1048.32421875 2.027536 1.757917 -0.269619
1049.484375 2.130591 1.923447 -0.207144
1050.59765625 2.078636 1.843636 -0.235
1051.76171875 2.156287 1.966624 -0.189663
1052.9453125 2.031731 1.79258 -0.239151
1054.1484375 1.991841 1.771841 -0.22
1055.30859375 2.01394 1.744718 -0.269222
1056.44140625 1.924862 1.668319 -0.256543
1057.5703125 1.998558 1.71392 -0.284638
1058.7265625 1.912852 1.65918 -0.253672
1059.9375 1.882146 1.657162 -0.224984
1061.125 2.004832 1.795 -0.209832
1062.25390625 1.916192 1.710724 -0.205468
1063.36328125 1.8838030000000001 1.688997 -0.194806
1064.50390625 1.9241000000000001 1.659132 -0.264968
1065.72265625 1.89382 1.665148 -0.228672
1066.9375 1.8925610000000002 1.647593 -0.244968
1068.0625 1.987314 1.74 -0.247314
1069.1953125 1.889478 1.624478 -0.265
1070.38671875 2.002627 1.783408 -0.219219
1071.609375 1.875199 1.67151 -0.203689
1072.8203125 1.9277389999999999 1.747739 -0.18
1073.96875 1.884078 1.626035 -0.258043
1075.1171875 1.852258 1.677258 -0.175
1076.28125 1.943825 1.714286 -0.229539
1077.49609375 1.868857 1.624254 -0.244603
1078.71875 1.997207 1.755608 -0.241599
1079.8828125 1.8811749999999998 1.59164 -0.289535
1080.9765625 1.959548 1.693847 -0.265701
1082.10546875 1.842468 1.549537 -0.292931
1083.2890625 1.943403 1.714563 -0.22884
1084.48828125 1.867835 1.572002 -0.295833
1085.62890625 1.852104 1.567104 -0.285
1086.7109375 1.9481760000000001 1.618853 -0.329323
1087.84765625 1.91339 1.603584 -0.309806
1089.05078125 1.968911 1.677624 -0.291287
1090.25390625 1.924514 1.614853 -0.309661
1091.4296875 1.991503 1.7 -0.291503
1092.55078125 1.984131 1.654131 -0.33
1093.703125 2.057486 1.762486 -0.295
1094.8671875 2.094346 1.816665 -0.277681
1096.0546875 2.04126 1.802575 -0.238685
1097.265625 2.051548 1.82854 -0.223008
1098.3984375 2.105764 1.806875 -0.298889
1099.515625 2.010121 1.720295 -0.289826
1100.6953125 2.059775 1.825 -0.234775
1101.8671875 2.006786 1.767498 -0.239288
1103.08203125 2.017851 1.782907 -0.234944
1104.21875 2.019885 1.770744 -0.249141
1105.328125 2.132143 1.867758 -0.264385
1106.5390625 2.058502 1.784479 -0.274023
1107.7734375 2.1415059999999997 1.881584 -0.259922
1108.94140625 2.057556 1.788703 -0.268853
1110.08203125 2.004444 1.794482 -0.209962
1111.1875 2.093712 1.918712 -0.175
1112.37109375 2.076087 1.856193 -0.219894
1113.578125 2.179355 1.964355 -0.215
1114.76953125 2.044673 1.854864 -0.189809
1115.9375 2.165509 1.967348 -0.198161
1117.05078125 2.056784 1.811784 -0.245
1118.1953125 2.054871 1.819871 -0.235
1119.38671875 2.078684 1.787382 -0.291302
1120.59765625 2.011535 1.737695 -0.27384
1121.76171875 2.103202 1.832421 -0.270781
1122.87890625 1.986764 1.726878 -0.259886
1123.375 1.9348679999999998 1.565 -0.369868
1124.828125 2.014214 1.744916 -0.269298
1125.3828125 1.451504 0.793724 -0.65778
1125.79296875 1.473872 0.82159 -0.652282
1126.84375 2.064666 1.747522 -0.317144
1127.35546875 1.7648899999999998 1.39489 -0.37
1128.703125 1.953453 1.662212 -0.291241
1129.22265625 1.473773 0.864773 -0.609
1130.61328125 1.90707 1.619743 -0.287327
1131.16796875 1.693827 1.291899 -0.401928
1132.578125 1.9638440000000001 1.663882 -0.299962
1133.125 1.453486 0.765 -0.688486
1133.5234375 1.50408 0.866347 -0.637733
1134.50390625 2.09039 1.710637 -0.379753
1135.0078125 1.7295989999999999 1.364599 -0.365
1136.37109375 1.978276 1.724746 -0.25353
1136.921875 1.358171 0.868171 -0.49
1137.32421875 1.6077089999999998 1.013558 -0.594151
1138.390625 1.9690150000000002 1.641647 -0.327368
1138.91796875 1.711819 1.377775 -0.334044
1139.33203125 2.013582 1.628526 -0.385056
1140.3359375 2.029634 1.674746 -0.354888
1140.828125 1.6629909999999999 1.302991 -0.36
1142.19921875 1.953204 1.627542 -0.325662
1142.75390625 1.4464009999999998 0.87872 -0.567681
1143.1796875 1.7365080000000002 1.057538 -0.67897
1143.62890625 2.008007 1.524809 -0.483198
1144.1171875 1.9374 1.458056 -0.479344
1144.69921875 1.984885 1.564885 -0.42
1145.33984375 1.928291 1.569987 -0.358304
1145.8828125 2.119751 1.704751 -0.415
1146.390625 1.855869 1.473142 -0.382727
1146.875 1.8249240000000002 1.36 -0.464924
1147.328125 1.737048 1.267104 -0.469944
1147.93359375 1.8422610000000001 1.354073 -0.488188
1148.53125 1.888912 1.468912 -0.42
1149.0390625 1.8798629999999998 1.459863 -0.42
1149.48046875 1.839971 1.394971 -0.445
1150.20703125 1.8571039999999999 1.390526 -0.466578
1150.89453125 1.753884 1.329817 -0.424067
1151.44921875 1.933649 1.524796 -0.408853
1151.9609375 1.8838709999999999 1.473871 -0.41
1152.4375 1.835489 1.351801 -0.483688
1153.015625 1.827029 1.428591 -0.398438
1153.47265625 1.7726190000000002 1.317619 -0.455
1153.90625 1.836852 1.452852 -0.384
1154.53125 2.065796 1.678482 -0.387314
1155.09375 1.890959 1.515139 -0.37582
1155.734375 1.815369 1.436798 -0.378571
1156.28515625 1.772243 1.434377 -0.337866
1156.8203125 1.986426 1.562356 -0.42407
1157.484375 2.123027 1.774902 -0.348125
1158.765625 1.86845 1.543613 -0.324837
1159.94140625 1.987062 1.717424 -0.269638
1160.45703125 1.934082 1.586292 -0.34779
1160.90234375 2.117516 1.678742 -0.438774
1162.08984375 1.976187 1.6816 -0.294587
1162.61328125 1.986885 1.691885 -0.295
1163.04296875 2.115007 1.707247 -0.40776
1164.11328125 1.969382 1.595 -0.374382
1164.59765625 1.996841 1.589574 -0.407267
1165.00390625 2.25121 1.78194 -0.46927
1166.07421875 2.030424 1.580761 -0.449663
1166.59765625 1.948287 1.477467 -0.47082
1167.06640625 2.119002 1.604074 -0.514928
1168.16796875 2.116334 1.686334 -0.43
1168.66796875 1.977871 1.525 -0.452871
1170.10546875 1.9836019999999999 1.641074 -0.342528
1170.609375 1.665171 1.119253 -0.545918
1172.01953125 2.072595 1.649914 -0.422681
1172.5078125 1.383353 0.722992 -0.660361
1172.93359375 2.124295 1.679659 -0.444636
1174.015625 2.018998 1.679467 -0.339531
1174.51953125 1.779805 1.419982 -0.359823
1174.96484375 2.132031 1.732177 -0.399854
1175.9921875 2.007605 1.667717 -0.339888
1176.48046875 2.091245 1.739995 -0.35125
1176.8984375 2.08168 1.641725 -0.439955
1177.6328125 2.073219 1.618381 -0.454838
1178.17578125 1.992997 1.568004 -0.424993
1178.7109375 1.994459 1.679889 -0.31457
1179.17578125 1.969544 1.605086 -0.364458
1180.09765625 2.0923059999999998 1.649409 -0.442897
1180.76953125 2.114272 1.644876 -0.469396
1181.2890625 2.084512 1.613731 -0.470781
1181.90625 2.064062 1.539062 -0.525
1182.77734375 1.9797889999999998 1.562663 -0.417126
1183.3515625 1.9938440000000002 1.561738 -0.432106
1184.01171875 2.148208 1.655 -0.493208
1184.515625 2.021377 1.491807 -0.52957
1185.0234375 2.007361 1.467767 -0.539594
1185.609375 1.948593 1.488593 -0.46
1186.08984375 1.9404000000000001 1.4954 -0.445
1186.55859375 2.0697039999999998 1.594704 -0.475
1187.05078125 2.0595920000000003 1.557549 -0.502043
1187.5234375 1.933106 1.430215 -0.502891
1187.99609375 1.817813 1.327813 -0.49
1188.546875 2.0216760000000003 1.623113 -0.398563
1189.0859375 2.177513 1.719954 -0.457559
1189.96875 1.857 1.482 -0.375
1190.51171875 1.8940540000000001 1.499114 -0.39494
1191.1328125 2.084781 1.685404 -0.399377
1191.71875 2.006909 1.711909 -0.295
1192.2109375 1.931207 1.500551 -0.430656
1192.703125 1.908261 1.436122 -0.472139
1193.17578125 1.899245 1.409564 -0.489681
1193.66796875 1.959441 1.47316 -0.486281
1194.14453125 1.994857 1.494949 -0.499908
1194.66015625 1.996609 1.647779 -0.34883
1195.13671875 2.064244 1.739794 -0.32445
1195.61328125 2.02912 1.704455 -0.324665
1196.09375 1.940132 1.576317 -0.363815
1196.56640625 1.8975710000000001 1.517595 -0.379976
1197.08984375 1.826039 1.537285 -0.288754
1197.59765625 1.922711 1.637945 -0.284766
1198.109375 1.928313 1.603481 -0.324832
1198.58984375 1.814963 1.444808 -0.370155
1199.09765625 1.841 1.503647 -0.337353
1199.75390625 1.972958 1.586994 -0.385964
1200.2421875 1.8942510000000001 1.554562 -0.339689
1200.71875 1.946781 1.581865 -0.364916
1201.37890625 1.843352 1.475 -0.368352
1202.0 1.9225910000000002 1.475 -0.447591
1202.55078125 1.8483740000000002 1.473054 -0.37532
1203.25 2.1149999999999998 1.69 -0.425
1203.79296875 1.893267 1.468013 -0.425254
1204.296875 1.817374 1.404483 -0.412891
1204.78125 1.7668 1.322581 -0.444219
1205.25390625 1.856588 1.404528 -0.45206
1205.6953125 1.98277 1.514529 -0.468241
1206.1484375 1.955346 1.475375 -0.479971
1206.60546875 1.8285559999999998 1.429916 -0.39864
1207.05859375 1.7465950000000001 1.366595 -0.38
1207.50390625 1.906917 1.526177 -0.38074
1208.1171875 2.19577 1.909608 -0.286162
1208.73046875 2.109891 1.744891 -0.365
1209.2109375 1.814496 1.464496 -0.35
1209.69921875 1.894236 1.544268 -0.349968
1210.17578125 1.909592 1.571745 -0.337847
1210.66796875 1.948892 1.63613 -0.312762
1211.18359375 1.9777930000000001 1.674652 -0.303141
1211.6484375 1.7686760000000001 1.481667 -0.287009
1212.1015625 1.7639259999999999 1.478986 -0.28494
1212.54296875 1.741266 1.456266 -0.285
1213.00390625 1.849306 1.615672 -0.233634
1213.4140625 2.01911 1.710575 -0.308535
1213.875 1.91 1.535 -0.375
1214.37890625 1.775062 1.450062 -0.325
1214.83984375 1.6515849999999999 1.32717 -0.324415
1215.3203125 1.74343 1.432555 -0.310875
1215.8046875 1.841759 1.526759 -0.315
1216.30078125 1.909955 1.539955 -0.37
1216.7734375 1.773077 1.38144 -0.391637
1217.27734375 1.705365 1.381361 -0.324004
1217.74609375 1.686879 1.367629 -0.31925
1218.38671875 1.94222 1.692361 -0.249859
1218.88671875 1.850994 1.568855 -0.282139
1219.51171875 1.741797 1.463359 -0.278438
1220.12109375 1.832125 1.452675 -0.37945
1220.59765625 1.779953 1.46 -0.319953
1221.09375 1.92134 1.577121 -0.344219
1221.5625 1.8106879999999999 1.410688 -0.4
1222.0390625 1.780542 1.325569 -0.454973
1222.5234375 1.691603 1.301667 -0.389936
1223.01953125 1.844811 1.459847 -0.384964
1223.484375 2.0243919999999997 1.656602 -0.36779
1224.0625 1.940781 1.565781 -0.375
1224.4921875 1.800626 1.370984 -0.429642
1224.94921875 1.809365 1.374421 -0.434944
1225.38671875 1.768615 1.353615 -0.415
1225.8671875 2.003202 1.55 -0.453202
1226.3359375 1.89482 1.441101 -0.453719
1227.04296875 1.792543 1.342543 -0.45
1227.50390625 1.838417 1.354396 -0.484021
1228.01953125 2.089176 1.619328 -0.469848
1228.609375 2.098571 1.623882 -0.474689
1229.1015625 1.79 1.335 -0.455
1229.73828125 1.920515 1.500749 -0.419766
1230.31640625 1.976622 1.4892 -0.487422
1230.88671875 2.182611 1.771714 -0.410897
1231.4609375 2.0292909999999997 1.624291 -0.405
1231.984375 2.072713 1.644262 -0.428451
1232.6875 2.057695 1.628687 -0.429008
1233.26953125 2.069132 1.63105 -0.438082
1233.91796875 2.149537 1.650031 -0.499506
1234.5 2.032353 1.635 -0.397353
1235.1171875 2.107873 1.704699 -0.403174
1235.75390625 2.112834 1.713169 -0.399665
1236.18359375 2.2174139999999998 1.762414 -0.455
1236.85546875 2.014593 1.604932 -0.409661
1237.28125 1.9726590000000002 1.518472 -0.454187
1237.72265625 1.893636 1.393636 -0.5
1238.1484375 1.948919 1.453591 -0.495328
1238.6015625 1.938184 1.467887 -0.470297
1239.06640625 1.8882910000000002 1.373369 -0.514922
1239.53515625 1.866231 1.346238 -0.519993
1239.98828125 1.947914 1.369428 -0.578486
1240.484375 1.8585720000000001 1.366703 -0.491869
1240.93359375 1.929411 1.51903 -0.410381
1241.578125 2.163837 1.739267 -0.42457
1242.02734375 1.855913 1.49 -0.365913
1242.46875 1.935678 1.520678 -0.415
1243.1171875 1.933989 1.660996 -0.272993
1243.62109375 2.1216720000000002 1.786672 -0.335
1244.21875 2.131001 1.816001 -0.315
1244.921875 1.968804 1.708804 -0.26
1245.4140625 2.06549 1.733615 -0.331875
1245.8984375 2.134428 1.77519 -0.359238
1246.71484375 2.028296 1.8116 -0.216696
1247.18359375 1.998742 1.719843 -0.278899
1247.62109375 2.013898 1.682101 -0.331797
1248.04296875 1.917528 1.567528 -0.35
1248.47265625 1.913954 1.587794 -0.32616
1248.90234375 2.0124079999999998 1.697722 -0.314686
1249.328125 1.919117 1.59664 -0.322477
1249.76171875 1.854465 1.546267 -0.308198
1250.203125 1.8544109999999998 1.509467 -0.344944
1250.640625 1.881484 1.516484 -0.365
1251.09765625 1.941322 1.59726 -0.344062
1251.5546875 2.0768869999999997 1.661887 -0.415
1252.0078125 2.039036 1.591681 -0.447355
1252.5078125 1.907486 1.49821 -0.409276
1252.98046875 1.789388 1.419988 -0.3694
1253.40234375 1.847182 1.48838 -0.358802
1253.83984375 1.785967 1.461338 -0.324629
1254.265625 1.924507 1.564125 -0.360382
1254.71484375 2.048338 1.67002 -0.378318
1255.1875 2.1022060000000002 1.682206 -0.42
1255.765625 1.993517 1.583517 -0.41
1256.26171875 1.905033 1.479824 -0.425209
1256.84765625 1.991786 1.591898 -0.399888
1257.328125 1.895641 1.554027 -0.341614
1257.796875 1.8971170000000002 1.542774 -0.354343
1258.26171875 1.834057 1.394909 -0.439148
1258.7109375 1.811604 1.341626 -0.469978
1259.1484375 1.854735 1.424735 -0.43
1259.59375 1.9227020000000001 1.484167 -0.438535
1260.0234375 1.797607 1.297871 -0.499736
1260.4453125 1.7586789999999999 1.255776 -0.502903
1261.06640625 1.909297 1.391616 -0.517681
1261.9765625 1.935101 1.611272 -0.323829
1262.58203125 1.9543840000000001 1.594384 -0.36
1263.06640625 1.769951 1.439951 -0.33
1263.5234375 1.7872599999999998 1.401644 -0.385616
1263.96875 1.816346 1.463159 -0.353187
1264.4296875 1.9629969999999999 1.586453 -0.376544
1264.875 1.821875 1.415 -0.406875
1265.328125 1.866594 1.434913 -0.431681
1265.75390625 1.75955 1.390168 -0.369382
1266.1796875 1.742896 1.42326 -0.319636
1266.63671875 1.764822 1.454985 -0.309837
1267.11328125 2.065757 1.789745 -0.276012
1267.51171875 2.192911 1.895 -0.297911
1267.93359375 2.038957 1.688698 -0.350259
1268.4140625 1.927134 1.565 -0.362134
1268.890625 1.826253 1.481253 -0.345
1269.3671875 1.929934 1.558866 -0.371068
1270.23046875 2.003334 1.744982 -0.258352
1270.71484375 1.9926 1.683932 -0.308668
1271.5546875 1.875324 1.57757 -0.297754
1271.984375 1.892484 1.567484 -0.325
1272.41796875 1.874882 1.551266 -0.323616
1272.8203125 1.799752 1.501783 -0.297969
1273.23046875 1.727085 1.425564 -0.301521
1273.6328125 1.7971110000000001 1.472941 -0.32417
1274.09375 1.9729059999999998 1.668462 -0.304444
1274.9296875 2.002634 1.662634 -0.34
1275.39453125 1.919597 1.559988 -0.359609
1275.859375 1.832831 1.478765 -0.354066
1276.30859375 1.861307 1.432296 -0.429011
1276.8125 1.876991 1.473688 -0.403303
1277.2734375 2.104282 1.749318 -0.354964
1277.87890625 0.905438 0.385672 -0.519766
1278.49609375 2.006767 1.652675 -0.354092
1278.90234375 1.8325200000000001 1.50252 -0.33
1279.3515625 1.955392 1.579738 -0.375654
1280.17578125 2.052118 1.731657 -0.320461
1280.65625 1.93667 1.622949 -0.313721
1281.109375 1.793127 1.458127 -0.335
1281.5703125 1.804055 1.454904 -0.349151
1282.0078125 1.7656610000000001 1.36664 -0.399021
1282.4453125 1.703464 1.347531 -0.355933
1282.8828125 1.7836889999999999 1.473107 -0.310582
1283.3203125 1.785166 1.45751 -0.327656
1283.75 1.7941509999999998 1.43 -0.364151
1284.171875 1.6939579999999999 1.333958 -0.36
1284.5859375 1.655643 1.294627 -0.361016
1285.01953125 1.6794600000000002 1.35451 -0.32495
1285.4296875 1.8533519999999999 1.496859 -0.356493
1285.921875 1.874842 1.519083 -0.355759
1286.36328125 1.778173 1.402261 -0.375912
1286.82421875 1.746053 1.351053 -0.395
1287.24609375 1.766066 1.392377 -0.373689
1287.69140625 1.6308559999999999 1.254206 -0.37665
1288.1171875 1.711242 1.314134 -0.397108
1288.57421875 1.7478150000000001 1.362815 -0.385
1289.0234375 1.735388 1.318033 -0.417355
1289.453125 1.739706 1.315 -0.424706
1289.8984375 1.6506340000000002 1.310634 -0.34
1290.3203125 1.74145 1.337544 -0.403906
1290.71484375 1.905995 1.502509 -0.403486
1291.28515625 1.918777 1.568777 -0.35
1292.34375 1.9365519999999998 1.632094 -0.304458
1293.94140625 1.9237350000000002 1.639836 -0.283899
1295.32421875 2.008081 1.720581 -0.2875
1295.7734375 1.994489 1.659521 -0.334968
1297.40625 2.203062 1.746992 -0.45607
1297.875 2.136246 1.805 -0.331246
1298.38671875 2.150591 1.745591 -0.405
1299.640625 2.023803 1.719253 -0.30455
1300.1171875 2.097429 1.772429 -0.325
1301.6796875 2.059453 1.804243 -0.25521
1302.1484375 2.046614 1.846614 -0.2
1302.59765625 2.312597 2.02289 -0.289707
1303.48046875 2.168977 1.854885 -0.314092
1304.12109375 2.045166 1.741908 -0.303258
1304.9140625 2.072351 1.774352 -0.297999
1305.51953125 2.124888 1.839917 -0.284971
1306.0 2.197231 1.805 -0.392231
1306.52734375 2.038387 1.608438 -0.429949
1307.23046875 2.134878 1.724878 -0.41
1308.515625 2.1404170000000002 1.860417 -0.28
1309.21875 2.04387 1.840384 -0.203486
1309.75390625 2.136797 1.872646 -0.264151
1310.34765625 2.135746 1.774766 -0.36098
1311.1640625 2.084797 1.784797 -0.3
1311.65625 2.047187 1.675573 -0.371614
1312.09375 2.214276 1.767598 -0.446678
1312.9453125 2.154258 1.76 -0.394258
1313.81640625 2.174724 1.788943 -0.385781
1314.30859375 2.147823 1.763812 -0.384011
1315.109375 2.1901539999999997 1.768487 -0.421667
1315.8671875 2.134512 1.733125 -0.401387
1316.41796875 2.134628 1.704628 -0.43
1316.875 2.12957 1.69 -0.43957
1317.79296875 1.840058 1.434769 -0.405289
1318.52734375 1.785098 1.446387 -0.338711
1318.984375 2.020064 1.665776 -0.354288
1319.43359375 1.929713 1.564489 -0.365224
1319.82421875 2.078144 1.650488 -0.427656
1320.58203125 1.925 1.59 -0.335
1321.21484375 1.9727299999999999 1.604377 -0.368353
1321.71875 1.80424 1.464987 -0.339253
1322.30078125 1.9286059999999998 1.553939 -0.374667
1322.89453125 1.8554080000000002 1.585838 -0.26957
1323.41796875 1.769757 1.469757 -0.3
1324.0078125 1.961986 1.651986 -0.31
1324.4453125 2.007615 1.691132 -0.316483
1324.9140625 1.904922 1.554922 -0.35
1325.65625 1.79 1.44 -0.35
1326.20703125 1.758465 1.393541 -0.364924
1326.58203125 1.959378 1.57612 -0.383258
1327.03515625 1.632966 1.472985 -0.159981
1327.6171875 1.7218229999999999 1.670156 -0.051667
1328.28515625 1.696226 1.424421 -0.271805
1329.02734375 1.6652019999999998 1.36438 -0.300822
1329.4765625 1.782449 1.373341 -0.409108
1330.0703125 1.615489 1.244708 -0.370781
1330.5078125 1.738022 1.328173 -0.409849
1331.171875 1.653508 1.289578 -0.36393
1331.6015625 1.7574779999999999 1.263936 -0.493542
1332.53125 1.618676 1.304665 -0.314011
1333.125 1.749775 1.35 -0.399775
1333.8515625 1.612751 1.296041 -0.31671
1334.5703125 1.62336 1.325 -0.29836
1335.38671875 1.5521539999999998 1.272984 -0.27917
1335.95703125 1.5205009999999999 1.24827 -0.272231
1336.60546875 1.608691 1.385291 -0.2234
1337.09375 1.6086330000000002 1.344205 -0.264428
1337.72265625 1.728554 1.484724 -0.24383
1338.234375 1.698765 1.438765 -0.26
1338.58203125 0.7852009999999999 0.611516 -0.173685
1338.95703125 0.773668 0.593668 -0.18
1339.58984375 1.5696620000000001 1.269808 -0.299854
1340.49609375 1.608352 1.4 -0.208352
1341.0546875 1.596218 1.369937 -0.226281
1342.16015625 1.762231 1.642622 -0.119609
1342.7265625 1.614344 1.43 -0.184344
1343.10546875 1.784377 1.514377 -0.27
1343.68359375 1.743827 1.483666 -0.260161
1344.3046875 1.761113 1.493199 -0.267914
1344.99609375 1.871342 1.656479 -0.214863
1345.75390625 1.785628 1.546093 -0.239535
1346.50390625 1.579058 1.379126 -0.199932
1347.30859375 1.6642860000000002 1.489899 -0.174387
1348.0234375 1.83767 1.653986 -0.183684
1348.46484375 1.776309 1.560411 -0.215898
1349.1796875 1.627265 1.339701 -0.287564
1349.80078125 1.617704 1.314095 -0.303609
1350.5390625 1.55395 1.284411 -0.269539
1351.09765625 1.717845 1.435345 -0.2825
1351.77734375 1.622306 1.312306 -0.31
1352.5859375 1.578068 1.284683 -0.293385
1353.37109375 1.570785 1.300785 -0.27
1354.16015625 1.738562 1.433562 -0.305
1354.6640625 1.551523 1.208962 -0.342561
1355.453125 1.6734999999999998 1.3235 -0.35
1356.38671875 1.658754 1.339687 -0.319067
1356.94140625 1.694116 1.384145 -0.309971
1357.4921875 1.781289 1.411911 -0.369378
1358.390625 1.685488 1.42585 -0.259638
1358.98046875 1.708974 1.379597 -0.329377
1359.65234375 1.6857739999999999 1.366387 -0.319387
1360.22265625 1.62955 1.367223 -0.262327
1360.9609375 1.814928 1.559928 -0.255
1361.60546875 1.73452 1.495 -0.23952
1362.1640625 1.639979 1.389979 -0.25
1362.8828125 1.772647 1.488056 -0.284591
1363.37109375 1.8312519999999999 1.486308 -0.344944
1363.82421875 1.8344150000000001 1.459796 -0.374619
1364.6640625 1.721115 1.421115 -0.3
1365.3046875 1.723545 1.400317 -0.323228
1365.8515625 1.706949 1.373512 -0.333437
1366.50390625 1.889154 1.510062 -0.379092
1366.9609375 1.800262 1.379469 -0.420793
1367.52734375 1.7673839999999998 1.332498 -0.434886
1368.30859375 1.7825859999999998 1.358607 -0.423979
1369.02734375 1.8163289999999999 1.511329 -0.305
1369.66796875 1.95828 1.652623 -0.305657
1370.24609375 1.888494 1.511167 -0.377327
1370.9140625 1.8444790000000002 1.484479 -0.36
1371.66796875 1.718391 1.471021 -0.24737
1372.2578125 1.576694 1.296808 -0.279886
1372.82421875 1.71441 1.369573 -0.344837
1373.28515625 1.9010440000000002 1.507065 -0.393979
1373.921875 1.8269 1.464334 -0.362566
1374.66015625 1.6399759999999999 1.294976 -0.345
1375.83203125 1.6553019999999998 1.38888 -0.266422
1376.58203125 1.822336 1.563876 -0.25846
1377.421875 1.794461 1.514461 -0.28
1378.1796875 1.768223 1.513252 -0.254971
1378.90625 1.848846 1.588924 -0.259922
1379.54296875 1.886815 1.550045 -0.33677
1380.3515625 1.733417 1.462167 -0.27125
1381.1171875 1.7366709999999999 1.392151 -0.34452
1381.703125 1.829875 1.473789 -0.356086
1382.6015625 1.877426 1.499093 -0.378333
1383.1640625 1.6705750000000001 1.245575 -0.425
1383.81640625 1.8054729999999999 1.389403 -0.41607
1384.27734375 1.867655 1.402669 -0.464986
1384.96875 1.7304650000000001 1.297422 -0.433043
1385.484375 1.6000809999999999 1.115222 -0.484859
1386.078125 1.824198 1.308036 -0.516162
1386.66796875 1.818529 1.393529 -0.425
1387.40234375 1.8158 1.376659 -0.439141
1388.015625 1.784642 1.359936 -0.424706
1388.9375 1.746269 1.385761 -0.360508
1390.1484375 1.8686150000000001 1.469877 -0.398738
1391.015625 1.705788 1.364138 -0.34165
1391.62890625 1.7857779999999999 1.466003 -0.319775
1392.36328125 1.803572 1.402129 -0.401443
1393.1875 1.677607 1.367634 -0.309973
1393.66796875 1.649368 1.304368 -0.345
1394.47265625 1.782308 1.457308 -0.325
1395.03515625 1.6079059999999998 1.217906 -0.39
1395.640625 1.59671 1.222366 -0.374344
1396.34375 1.771429 1.357917 -0.413512
1396.8671875 1.7418360000000002 1.351836 -0.39
1397.55859375 1.7035520000000002 1.373552 -0.33
1397.98828125 1.754226 1.394906 -0.35932
1398.4375 1.701014 1.336014 -0.365
1399.0625 1.8234789999999998 1.420259 -0.40322
1399.71484375 1.744473 1.332874 -0.411599
1400.19921875 1.64374 1.204034 -0.439706
1400.828125 1.703931 1.308019 -0.395912
1401.87890625 1.821175 1.499069 -0.322106
1402.4296875 1.6600000000000001 1.29 -0.37
1403.19140625 1.784488 1.394566 -0.389922
1403.69921875 1.5605060000000002 1.210506 -0.35
1404.203125 1.789756 1.40482 -0.384936
1404.62890625 1.6864540000000001 1.343954 -0.3425
1405.19921875 1.7437909999999999 1.389282 -0.354509
1405.65234375 1.6009380000000002 1.240938 -0.36
1406.24609375 1.844484 1.424952 -0.419532
1407.0390625 1.7574779999999999 1.412478 -0.345
1407.87109375 1.579569 1.325 -0.254569
1408.5078125 1.698049 1.366887 -0.331162
1409.14453125 1.799607 1.449889 -0.349718
1409.80078125 1.775978 1.43357 -0.342408
1410.609375 1.702124 1.36116 -0.340964
1411.12109375 1.689248 1.294786 -0.394462
1411.79296875 1.772853 1.40447 -0.368383
1412.37890625 1.699398 1.327045 -0.372353
1413.125 1.6691509999999998 1.305 -0.364151
1413.796875 1.787877 1.453747 -0.33413
1414.30078125 1.783824 1.398824 -0.385
1414.9296875 1.6758300000000002 1.272879 -0.402951
1415.8046875 1.599941 1.246297 -0.353644
1416.43359375 1.7545069999999998 1.384507 -0.37
1417.1171875 1.656828 1.297258 -0.35957
1417.55078125 1.6634 1.26732 -0.39608
1418.234375 1.719651 1.364651 -0.355
1418.9140625 1.6475970000000002 1.276542 -0.371055
1419.390625 1.5137150000000001 1.108721 -0.404994
1419.9765625 1.698033 1.228157 -0.469876
1420.54296875 1.647684 1.145464 -0.50222
1421.15625 1.6879659999999999 1.224281 -0.463685
1421.76953125 1.549576 1.034967 -0.514609
1422.22265625 1.5504609999999999 1.072137 -0.478324
1422.80859375 1.599891 1.094898 -0.504993
1423.39453125 1.8537000000000001 1.349989 -0.503711
1423.83984375 1.752631 1.229338 -0.523293
1424.57421875 1.790899 1.221236 -0.569663
1425.04296875 1.6358439999999999 1.193801 -0.442043
1425.73046875 1.724303 1.35597 -0.368333
1426.45703125 1.6765970000000001 1.310265 -0.366332
1427.3046875 1.7214550000000002 1.351455 -0.37
1428.12109375 1.836973 1.483607 -0.353366
1428.796875 1.77217 1.37217 -0.4
1429.5625 1.584175 1.288661 -0.295514
1430.1796875 1.613667 1.314519 -0.299148
1430.8046875 1.814791 1.449785 -0.365006
1431.69921875 1.732049 1.327867 -0.404182
1432.47265625 1.675532 1.353396 -0.322136
1433.05859375 1.829605 1.459085 -0.37052
1433.6796875 1.88883 1.482308 -0.406522
1434.47265625 1.7445309999999998 1.42 -0.324531
1435.12109375 1.755399 1.400428 -0.354971
1435.80859375 1.933698 1.59873 -0.334968
1436.43359375 1.8771449999999998 1.539899 -0.337246
1437.0859375 1.807855 1.494474 -0.313381
1437.73828125 1.755209 1.44531 -0.309899
1438.55859375 1.7232129999999999 1.438229 -0.284984
1439.453125 1.808901 1.543901 -0.265
1440.1015625 1.7708970000000002 1.545897 -0.225
1440.546875 1.807521 1.594326 -0.213195
1441.24609375 1.82586 1.583742 -0.242118
1441.796875 1.748198 1.424588 -0.32361
1442.4375 1.677634 1.387634 -0.29
1443.1953125 1.682229 1.388508 -0.293721
1444.0234375 1.777553 1.488696 -0.288857
1444.65234375 1.7557800000000001 1.42439 -0.33139
1445.28515625 1.7829139999999999 1.4313 -0.351614
1445.8046875 1.575116 1.186378 -0.388738
1446.453125 1.607735 1.264125 -0.34361
1447.13671875 1.735344 1.355344 -0.38
1447.97265625 1.7430459999999999 1.387306 -0.35574
1448.7109375 1.647716 1.264921 -0.382795
1449.34375 1.617321 1.257321 -0.36
1450.0234375 1.747831 1.405517 -0.342314
1450.74609375 1.906036 1.556375 -0.349661
1451.38671875 1.794181 1.451215 -0.342966
1451.875 1.5547009999999999 1.17 -0.384701
1452.59765625 1.6773259999999999 1.307326 -0.37
1453.52734375 1.8820649999999999 1.577065 -0.305
1454.06640625 1.6831099999999999 1.358512 -0.324598
1455.046875 1.813405 1.483085 -0.33032
1455.609375 1.649695 1.298447 -0.351248
1456.25390625 1.9049489999999998 1.565535 -0.339414
1456.875 1.722937 1.375 -0.347937
1457.30078125 1.7208130000000001 1.277141 -0.443672
1457.9375 1.755607 1.338468 -0.417139
1458.48828125 1.762943 1.368481 -0.394462
1459.1171875 1.774681 1.415632 -0.359049
1459.59765625 1.587901 1.203647 -0.384254
1460.1875 1.695044 1.310772 -0.384272
1460.84765625 1.7647950000000001 1.427669 -0.337126
1461.484375 1.919261 1.596761 -0.3225
1461.93359375 1.785966 1.409644 -0.376322
1462.4609375 1.614785 1.264785 -0.35
1462.9140625 1.684242 1.249873 -0.434369
1463.796875 1.8145959999999999 1.489596 -0.325
1464.5 1.804734 1.465 -0.339734
1465.05859375 1.773852 1.423881 -0.349971
1465.51953125 1.6238890000000001 1.309889 -0.314
1465.95703125 1.740912 1.374793 -0.366119
1466.59765625 1.7867 1.479525 -0.307175
1467.12890625 1.588931 1.319396 -0.269535
1467.51953125 1.8347280000000001 1.519956 -0.314772
1468.18359375 1.723627 1.41896 -0.304667
1468.83203125 1.799103 1.566997 -0.232106
1469.390625 1.749216 1.474242 -0.274974
1470.140625 1.775529 1.480529 -0.295
1470.55078125 1.63541 1.357695 -0.277715
1471.03515625 1.660075 1.371983 -0.288092
1471.73828125 1.799055 1.564443 -0.234612
1472.6015625 1.64851 1.510438 -0.138072
1473.34375 1.641647 1.494096 -0.147551
1474.1484375 1.822888 1.660854 -0.162034
1474.75 1.85 1.665 -0.185
1475.62109375 1.695464 1.485821 -0.209643
1476.09375 1.5960710000000002 1.321071 -0.275
1476.69921875 1.9645080000000001 1.664508 -0.3
1477.4375 1.8086369999999998 1.514274 -0.294363
1478.52734375 1.705099 1.442418 -0.262681
1479.41796875 1.9490239999999999 1.724295 -0.224729
1480.01171875 1.764706 1.502439 -0.262267
1480.77734375 1.665 1.42 -0.245
1481.3515625 1.716075 1.396216 -0.319859
1482.1953125 1.9334209999999998 1.637023 -0.296398
1482.828125 1.7438220000000002 1.433828 -0.309994
1483.23046875 1.729718 1.379965 -0.349753
1483.671875 1.697695 1.329051 -0.368644
1484.33203125 1.806347 1.441441 -0.364906
1484.84765625 1.6001290000000001 1.211375 -0.388754
1485.625 1.518202 1.22 -0.298202
1486.11328125 1.606017 1.271405 -0.334612
1486.8046875 1.682543 1.410961 -0.271582
1487.703125 1.607915 1.247419 -0.360496
1488.62109375 1.75 1.47 -0.28
1489.140625 1.614972 1.337727 -0.277245
1489.57421875 1.728459 1.349553 -0.378906
1490.0625 1.546152 1.196523 -0.349629
1490.93359375 1.754265 1.463881 -0.290384
1491.62109375 1.855384 1.520785 -0.334599
1492.23046875 1.66417 1.379541 -0.284629
1492.78515625 1.593624 1.237863 -0.355761
1493.5390625 1.744837 1.429837 -0.315
1494.26171875 1.687334 1.343408 -0.343926
1494.7109375 1.607901 1.221619 -0.386282
1495.28515625 1.672691 1.302691 -0.37
1495.80078125 1.535657 1.144043 -0.391614
1496.5 1.743318 1.41 -0.333318
1497.17578125 1.692917 1.303609 -0.389308
1498.00390625 1.695 1.32 -0.375
1498.85546875 1.739704 1.414828 -0.324876
1499.5625 1.78437 1.46939 -0.31498
1500.1484375 1.778964 1.409483 -0.369481
1500.546875 1.78139 1.325 -0.45639
1501.40625 1.841031 1.472736 -0.368295
1502.1953125 1.843647 1.454963 -0.388684
1503.15625 1.783959 1.460771 -0.323188
1503.80859375 1.862425 1.529587 -0.332838
1504.65625 1.897095 1.542095 -0.355
1505.4296875 1.824767 1.475 -0.349767
1506.234375 1.831634 1.457598 -0.374036
1506.75 1.7873269999999999 1.42 -0.367327
1507.76953125 1.784347 1.454812 -0.329535
1508.4375 1.7486609999999998 1.378661 -0.37
1509.125 1.876332 1.49 -0.386332
1509.63671875 1.9349269999999998 1.491669 -0.443258
1510.20703125 1.708708 1.318833 -0.389875
1510.828125 1.794371 1.369483 -0.424888
1511.41796875 1.791533 1.383534 -0.407999
1512.05078125 1.941342 1.599584 -0.341758
1512.796875 1.814724 1.437031 -0.377693
1513.46875 1.792326 1.39384 -0.398486
1513.89453125 1.6549 1.3299 -0.325
1514.7265625 1.903191 1.668562 -0.234629
1515.4453125 1.760632 1.475668 -0.284964
1516.07421875 1.8291060000000001 1.535662 -0.293444
1516.796875 1.7591160000000001 1.509478 -0.249638
1517.46484375 1.948611 1.743711 -0.2049
1518.14453125 1.784874 1.544874 -0.24
1518.8203125 1.779084 1.473303 -0.305781
1519.64453125 1.8144870000000002 1.609995 -0.204492
1520.41796875 1.776254 1.517569 -0.258685
1520.91796875 1.768053 1.471564 -0.296489
1521.6640625 1.7827380000000002 1.509926 -0.272812
1522.48046875 1.905138 1.679887 -0.225251
1522.96484375 1.8578459999999999 1.556155 -0.301691
1523.7734375 1.699015 1.47403 -0.224985
1524.33203125 1.6736490000000002 1.413761 -0.259888
1525.0234375 1.788151 1.599766 -0.188385
1525.48828125 1.8250129999999998 1.570693 -0.25432
1526.12890625 1.688553 1.455428 -0.233125
1526.890625 1.573726 1.358398 -0.215328
1527.6171875 2.057449 1.692449 -0.365
1528.20703125 1.768837 1.493843 -0.274994
1528.69140625 1.5558370000000001 1.305851 -0.249986
1529.1796875 1.7692430000000001 1.439243 -0.33
1529.74609375 1.660128 1.38388 -0.276248
1530.1875 1.62511 1.415132 -0.209978
1530.6484375 1.7033329999999998 1.44789 -0.255443
1531.1015625 1.589406 1.319406 -0.27
1531.546875 1.6762190000000001 1.379334 -0.296885
1531.99609375 1.715856 1.426018 -0.289838
1532.46484375 1.768725 1.504763 -0.263962
1532.94140625 1.8273329999999999 1.574606 -0.252727
1533.4296875 1.732264 1.407264 -0.325
1533.87890625 1.567042 1.248175 -0.318867
1534.34765625 1.549375 1.220938 -0.328437
1534.79296875 1.467598 1.188033 -0.279565
1535.2421875 1.40546 1.149562 -0.255898
1535.6953125 1.414813 1.157458 -0.257355
1536.1484375 1.535855 1.324092 -0.211763
1536.60546875 1.569356 1.309981 -0.259375
1537.05859375 1.460193 1.258912 -0.201281
1537.515625 1.4773889999999998 1.198481 -0.278908
1537.99609375 1.436564 1.196226 -0.240338
1538.46484375 1.471628 1.247938 -0.22369
1538.94921875 1.6521370000000002 1.443939 -0.208198
1539.44140625 1.689259 1.444295 -0.244964
1539.9296875 1.513678 1.289303 -0.224375
1540.4453125 1.670154 1.391713 -0.278441
1541.12109375 1.603119 1.393119 -0.21
1541.71875 1.546019 1.361035 -0.184984
1542.1875 1.404562 1.264048 -0.140514
1542.62109375 1.6267070000000001 1.446973 -0.179734
1543.0625 1.536141 1.362333 -0.173808
1543.515625 1.4525139999999999 1.252514 -0.2
1543.94921875 1.476005 1.243774 -0.232231
1544.3984375 1.423224 1.188986 -0.234238
1544.87109375 1.517658 1.303088 -0.21457
1545.34765625 1.5803340000000001 1.369501 -0.210833
1545.8359375 1.559778 1.334778 -0.225
1546.31640625 1.546459 1.286633 -0.259826
1546.77734375 1.430662 1.185148 -0.245514
1547.234375 1.485 1.225 -0.26
1547.67578125 1.565852 1.333093 -0.232759
1548.10546875 1.555741 1.289908 -0.265833
1548.5390625 1.434813 1.156934 -0.277879
1548.9765625 1.459497 1.187934 -0.271563
1549.421875 1.4629889999999999 1.169141 -0.293848
1549.8515625 1.5419100000000001 1.257104 -0.284806
1550.30859375 1.534163 1.279163 -0.255
1550.7734375 1.409837 1.14418 -0.265657
1551.24609375 1.410719 1.110719 -0.3
1551.7265625 1.400265 1.100265 -0.3
1552.1875 1.4670349999999999 1.177045 -0.28999
1552.64453125 1.5448780000000002 1.269878 -0.275
1553.1015625 1.501188 1.184688 -0.3165
1553.5390625 1.409729 1.099729 -0.31
1553.97265625 1.380963 1.053537 -0.327426
1554.40625 1.405884 1.088462 -0.317422
1554.84375 1.468928 1.184658 -0.28427
1555.28515625 1.4974889999999998 1.20027 -0.297219
1555.7265625 1.5010789999999998 1.166437 -0.334642
1556.1875 1.4122 1.107206 -0.304994
1556.65625 1.351674 1.058393 -0.293281
1557.109375 1.431995 1.110749 -0.321246
1557.57421875 1.4010550000000002 1.097695 -0.30336
1558.03125 1.4039679999999999 1.100727 -0.303241
1558.4921875 1.415706 1.123138 -0.292568
1558.94921875 1.526659 1.224553 -0.302106
1559.390625 1.4992340000000002 1.169234 -0.33
1559.8359375 1.458126 1.114048 -0.344078
1560.26953125 1.463406 1.109988 -0.353418
1560.703125 1.450767 1.136104 -0.314663
1561.140625 1.579327 1.269391 -0.309936
1561.5703125 1.599904 1.319904 -0.28
1562.01953125 1.5199850000000001 1.184995 -0.33499
1562.46484375 1.604306 1.22027 -0.384036
1562.8828125 1.6463510000000001 1.272184 -0.374167
1563.34375 1.531285 1.170924 -0.360361
1563.796875 1.687803 1.325 -0.362803
1564.26171875 1.6780789999999999 1.345877 -0.332202
1564.7265625 1.615791 1.244854 -0.370937
1565.16015625 1.545741 1.150741 -0.395
1565.59765625 1.523528 1.128598 -0.39493
1566.01171875 1.5451700000000002 1.145912 -0.399258
1566.42578125 1.612417 1.255874 -0.356543
1566.85546875 1.655742 1.284909 -0.370833
1567.28125 1.565612 1.162852 -0.40276
1567.71875 1.469406 1.088711 -0.380695
1568.140625 1.497954 1.133598 -0.364356
1568.58984375 1.4656630000000002 1.134808 -0.330855
1569.046875 1.585834 1.257673 -0.328161
1569.51953125 1.599911 1.299911 -0.3
1569.984375 1.5042339999999998 1.209234 -0.295
1570.4453125 1.4879479999999998 1.190448 -0.2975
1570.8828125 1.4754159999999998 1.150807 -0.324609
1571.32421875 1.5175210000000001 1.212695 -0.304826
1571.75390625 1.6130939999999998 1.273154 -0.33994
1572.17578125 1.57137 1.196682 -0.374688
1572.59765625 1.48706 1.09956 -0.3875
1573.02734375 1.483972 1.087711 -0.396261
1573.4609375 1.5246009999999999 1.199601 -0.325
1573.8984375 1.726687 1.315359 -0.411328
1574.3359375 1.660669 1.27481 -0.385859
1574.7890625 1.652417 1.219538 -0.432879
1575.4296875 1.62453 1.229559 -0.394971
1576.0625 1.730885 1.344 -0.386885
1576.77734375 1.8555329999999999 1.427663 -0.42787
1577.3984375 1.624827 1.177921 -0.446906
1577.98046875 1.7287659999999998 1.234959 -0.493807
1578.7578125 1.743767 1.328835 -0.414932
1579.40234375 1.862735 1.44002 -0.422715
1579.921875 1.6748129999999999 1.204813 -0.47
1580.73828125 1.760975 1.302671 -0.458304
1581.42578125 1.85947 1.49447 -0.365
1581.9609375 1.6354579999999999 1.249151 -0.386307
1583.03515625 1.701046 1.316507 -0.384539
1583.65625 0.776183 0.087012 -0.689171
1584.62109375 1.8376959999999998 1.338866 -0.49883
1585.33203125 1.72984 1.296913 -0.432927
1585.859375 1.629076 1.161286 -0.46779
1586.78515625 1.8851010000000001 1.495292 -0.389809
1587.546875 1.830362 1.396827 -0.433535
1588.32421875 1.719465 1.353581 -0.365884
1589.02734375 1.951546 1.56382 -0.387726
1589.59765625 1.8187320000000002 1.418732 -0.4
1590.01953125 1.966276 1.484975 -0.481301
1590.6328125 1.7136580000000001 1.304205 -0.409453
1591.21875 1.733981 1.354661 -0.37932
1592.25390625 1.82714 1.427172 -0.399968
1592.84765625 1.58364 1.193516 -0.390124
1593.51953125 1.713972 1.309931 -0.404041
1594.2265625 1.880682 1.466682 -0.414
1594.78515625 1.71542 1.31276 -0.40266
1595.4453125 1.619569 1.235897 -0.383672
1596.07421875 1.66153 1.23653 -0.425
1596.7890625 1.777409 1.392951 -0.384458
1597.49609375 1.751333 1.389067 -0.362266
1598.04296875 1.549843 1.221227 -0.328616
1598.5234375 1.714928 1.305378 -0.40955
1599.17578125 1.8094069999999998 1.413142 -0.396265
1599.953125 1.884391 1.484391 -0.4
1600.6640625 1.738658 1.369647 -0.369011
1601.078125 1.744879 1.273887 -0.470992
1601.95703125 1.875366 1.452267 -0.423099
1602.625 1.972391 1.56 -0.412391
1603.10546875 1.5949069999999999 1.200295 -0.394612
1603.86328125 1.6070129999999998 1.257089 -0.349924
1604.5546875 1.716968 1.30751 -0.409458
1605.25390625 1.944497 1.477361 -0.467136
1606.20703125 1.699922 1.29 -0.409922
1606.89453125 1.7080920000000002 1.34 -0.368092
1607.7265625 1.919707 1.59 -0.329707
1608.2578125 1.795761 1.471158 -0.324603
1608.77734375 1.755234 1.33972 -0.415514
1609.55078125 1.77755 1.36616 -0.41139
1610.41796875 1.80229 1.440454 -0.361836
1611.33984375 1.814933 1.426421 -0.388512
1612.0546875 1.759142 1.359375 -0.399767
1612.7421875 1.8575279999999998 1.467528 -0.39
1613.1328125 1.715143 1.368824 -0.346319
1613.8828125 1.913675 1.545672 -0.368003
1614.3984375 1.617353 1.21644 -0.400913
1614.99609375 1.740782 1.344927 -0.395855
1615.82421875 1.876732 1.521808 -0.354924
1616.45703125 1.822951 1.474701 -0.34825
1617.22265625 1.724021 1.38733 -0.336691
1617.70703125 1.73178 1.346926 -0.384854
1618.1328125 1.684387 1.308068 -0.376319
1618.51953125 1.790835 1.419922 -0.370913
1618.98828125 1.683265 1.308653 -0.374612
1619.60546875 1.704363 1.314515 -0.389848
1620.1875 1.656619 1.2788 -0.377819
1620.796875 1.628616 1.324051 -0.304565
1621.37109375 1.716193 1.407157 -0.309036
1622.37109375 1.664412 1.353166 -0.311246
1623.10546875 1.6847539999999999 1.304948 -0.379806
1623.9375 1.73619 1.433036 -0.303154
1624.66015625 1.6853730000000002 1.410373 -0.275
1625.22265625 1.6303130000000001 1.273438 -0.356875
1625.859375 1.660884 1.341353 -0.319531
1626.30078125 1.739542 1.380437 -0.359105
1626.72265625 1.868743 1.481243 -0.3875
1627.265625 1.635725 1.28248 -0.353245
1627.890625 1.6008040000000001 1.298451 -0.302353
1628.49609375 1.679993 1.309993 -0.37
1629.23046875 1.739825 1.484966 -0.254859
1629.73046875 1.684901 1.394965 -0.289936
1630.203125 1.687206 1.324606 -0.3626
1630.92578125 1.722698 1.397698 -0.325
1631.37890625 1.633532 1.344319 -0.289213
1632.1953125 1.8408120000000001 1.455812 -0.385
1632.7734375 1.8067630000000001 1.374756 -0.432007
1633.45703125 1.756184 1.355403 -0.400781
1634.41796875 1.966107 1.626107 -0.34
1635.328125 1.884487 1.533716 -0.350771
1636.2265625 1.833322 1.511631 -0.321691
1636.984375 1.984564 1.713307 -0.271257
1637.62109375 2.0024830000000002 1.674309 -0.328174
1638.203125 1.862539 1.489102 -0.373437
1638.80859375 1.893184 1.489458 -0.403726
1639.76171875 2.007293 1.720091 -0.287202
1640.48046875 1.824974 1.494974 -0.33
1641.0859375 1.685439 1.324925 -0.360514
1641.80859375 1.9485050000000002 1.629142 -0.319363
1642.27734375 1.993945 1.619914 -0.374031
1643.15625 1.803218 1.419141 -0.384077
1643.765625 1.7535669999999999 1.393567 -0.36
1644.40625 1.927467 1.567467 -0.36
1645.09375 1.8911179999999999 1.556188 -0.33493
1646.171875 1.796145 1.474102 -0.322043
1646.921875 1.969214 1.664214 -0.305
1647.625 2.014775 1.685 -0.329775
1648.39453125 1.784989 1.469989 -0.315
1649.078125 1.847196 1.527196 -0.32
1649.61328125 1.781393 1.482753 -0.29864
1650.2734375 1.8729149999999999 1.659949 -0.212966
1650.7421875 1.764081 1.419128 -0.344953
1651.31640625 1.755128 1.48373 -0.271398
1651.98828125 1.885405 1.600546 -0.284859
1652.93359375 1.8930259999999999 1.634901 -0.258125
1653.5546875 1.8698519999999998 1.581022 -0.28883
1654.109375 1.8307259999999999 1.45085 -0.379876
1655.03125 2.041562 1.656562 -0.385
1655.609375 1.864117 1.526445 -0.337672
1656.328125 1.783443 1.429099 -0.354344
1656.953125 1.860883 1.515883 -0.345
1657.53515625 1.9503000000000001 1.671032 -0.279268
1657.9140625 1.803172 1.429977 -0.373195
1658.734375 1.764119 1.432607 -0.331512
1659.48046875 1.843406 1.509975 -0.333431
1660.1796875 1.980312 1.705312 -0.275
1660.9921875 1.858345 1.561078 -0.297267
1661.74609375 1.762686 1.422718 -0.339968
1662.30859375 1.8156349999999999 1.511677 -0.303958
1663.0078125 2.024356 1.704356 -0.32
1663.4765625 1.723729 1.35898 -0.364749
1664.4296875 1.786274 1.426315 -0.359959
1664.97265625 1.7261030000000002 1.404049 -0.322054
1665.62890625 1.9654829999999999 1.624151 -0.341332
1666.1015625 1.818916 1.413976 -0.40494
1666.85546875 1.81748 1.365813 -0.451667
1667.65625 1.859817 1.455243 -0.404574
1668.3671875 1.868379 1.579059 -0.28932
1668.97265625 1.794766 1.419766 -0.375
1669.69921875 1.7820840000000002 1.412913 -0.369171
1670.73828125 1.9883600000000001 1.69836 -0.29
1671.4609375 1.766484 1.479533 -0.286951
1672.10546875 1.799939 1.464939 -0.335
1672.81640625 1.814334 1.444497 -0.369837
1673.25390625 1.857963 1.458023 -0.39994
1674.0703125 1.859379 1.459992 -0.399387
1674.70703125 1.730838 1.357407 -0.373431
1675.42578125 1.7917669999999999 1.446767 -0.345
1676.28125 1.919684 1.610145 -0.309539
1676.83203125 1.6538160000000002 1.338348 -0.315468
1677.7890625 1.8288980000000001 1.55444 -0.274458
1678.3671875 1.6965880000000002 1.41948 -0.277108
1678.90625 1.7084320000000002 1.440619 -0.267813
1679.6328125 1.770369 1.549588 -0.220781
1680.25390625 1.827611 1.552723 -0.274888
1680.59765625 0.796216 0.578665 -0.217551
1681.27734375 1.940019 1.672794 -0.267225
1681.75390625 1.7188059999999998 1.408853 -0.309953
1682.46875 1.750831 1.450831 -0.3
1683.21484375 1.655433 1.390658 -0.264775
1683.95703125 1.9201940000000002 1.68521 -0.234984
1684.90234375 1.912448 1.619531 -0.292917
1685.48828125 1.682096 1.442166 -0.23993
1686.23828125 1.665437 1.415712 -0.249725
1686.85546875 1.812993 1.539868 -0.273125
1687.40625 1.709324 1.416643 -0.292681
1687.94140625 1.6144600000000002 1.22446 -0.39
1688.48828125 1.580171 1.230559 -0.349612
1689.40625 1.794988 1.521214 -0.273774
1689.890625 1.742203 1.398765 -0.343438
1690.4296875 1.686068 1.316104 -0.369964
1691.19921875 1.712353 1.375 -0.337353
1691.86328125 1.7766250000000001 1.473664 -0.302961
1692.41015625 1.7169159999999999 1.392912 -0.324004
1693.1328125 1.66631 1.339591 -0.326719
1693.75390625 1.643446 1.305509 -0.337937
1694.18359375 1.7332960000000002 1.379558 -0.353738
1694.8828125 1.824111 1.461611 -0.3625
1695.55078125 1.693587 1.321652 -0.371935
1696.37109375 1.665773 1.319809 -0.345964
1697.45703125 1.908376 1.693855 -0.214521
1698.046875 1.857661 1.57471 -0.282951
1698.54296875 1.633219 1.308856 -0.324363
1699.234375 1.870593 1.565827 -0.304766
1699.94921875 1.92504 1.680086 -0.244954
1700.4453125 1.693083 1.398083 -0.295
1701.0625 1.8929749999999999 1.483712 -0.409263
1701.91796875 1.9397689999999999 1.634769 -0.305
1702.7578125 1.980278 1.65981 -0.320468
1703.28125 1.7467590000000002 1.361992 -0.384767
1703.890625 1.808125 1.438441 -0.369684
1704.3828125 1.835499 1.423022 -0.412477
1705.00390625 2.05842 1.62342 -0.435
1705.65625 1.8258649999999998 1.397857 -0.428008
1706.140625 1.7304380000000001 1.275438 -0.455
1706.97265625 1.9679719999999998 1.53388 -0.434092
1707.85546875 1.953701 1.574943 -0.378758
1708.65234375 1.7895249999999998 1.389525 -0.4
1709.4609375 1.732352 1.302646 -0.429706
1710.2421875 1.9513059999999998 1.535613 -0.415693
1710.9296875 1.848298 1.355407 -0.492891
1711.8203125 1.767723 1.276505 -0.491218
1712.53125 1.906512 1.419281 -0.487231
1713.21484375 1.857769 1.414129 -0.44364
1713.84375 1.822019 1.358409 -0.46361
1714.359375 1.679734 1.189734 -0.49
1715.14453125 1.829346 1.394872 -0.434474
1715.9453125 1.803144 1.376238 -0.426906
1716.78515625 1.7654109999999998 1.270411 -0.495
1717.2734375 1.596876 1.10463 -0.492246
1718.1171875 1.904412 1.46251 -0.441902
1718.57421875 1.928177 1.44 -0.488177
1719.4609375 1.6794310000000001 1.214768 -0.464663
1720.40234375 1.785902 1.341371 -0.444531
1720.94921875 1.654391 1.297565 -0.356826
1721.78125 1.8348719999999998 1.434872 -0.4
1722.4609375 1.809215 1.385 -0.424215
1723.08984375 1.721717 1.343399 -0.378318
1723.9453125 1.935375 1.583388 -0.351987
1724.53125 1.9537049999999998 1.533537 -0.420168
1725.08203125 1.72023 1.079716 -0.640514
1725.96484375 1.8486399999999998 1.505 -0.34364
1726.71875 1.710798 1.386383 -0.324415
1727.53515625 1.974618 1.680541 -0.294077
1728.1796875 1.8632469999999999 1.463283 -0.399964
1729.015625 1.797609 1.343835 -0.453774
1729.69921875 1.988657 1.623657 -0.365
1730.171875 1.979447 1.554447 -0.425
1730.7890625 1.819193 1.335577 -0.483616
1731.4921875 1.703045 1.21 -0.493045
1732.2109375 1.963278 1.564866 -0.398412
1732.9296875 1.8841949999999998 1.476187 -0.408008
1733.42578125 1.60255 1.12255 -0.48
1734.375 1.75923 1.28 -0.47923
1734.859375 1.902542 1.485776 -0.416766
1735.43359375 1.9401580000000003 1.434249 -0.505909
1735.82421875 1.727929 1.242985 -0.484944
1736.22265625 1.797242 1.287242 -0.51
1736.671875 1.7332619999999999 1.123262 -0.61
1737.35546875 1.8347950000000002 1.339989 -0.494806
1737.875 1.801144 1.36 -0.441144
1738.66015625 1.767533 1.302924 -0.464609
1739.375 1.7218360000000001 1.155 -0.566836
1740.421875 1.699362 1.344362 -0.355
1740.984375 1.763802 1.399013 -0.364789
1741.55078125 1.836608 1.432564 -0.404044
1742.09765625 1.743115 1.283115 -0.46
1742.6953125 1.622849 1.12988 -0.492969
1743.4609375 1.708585 1.270577 -0.438008
1744.07421875 1.82271 1.423882 -0.398828
1744.71484375 1.7398829999999998 1.286811 -0.453072
1745.29296875 1.6694769999999999 1.196913 -0.472564
1745.859375 1.683931 1.21625 -0.467681
1746.62109375 1.803594 1.459179 -0.344415
1747.29296875 1.8486369999999999 1.494098 -0.354539
1748.1953125 1.788595 1.406583 -0.382012
1748.7890625 1.662143 1.269897 -0.392246
1749.578125 1.8329879999999998 1.484916 -0.348072
1750.54296875 1.76128 1.3852 -0.37608
1751.19140625 1.819562 1.394634 -0.424928
1751.91796875 1.793854 1.416064 -0.37779
1752.43359375 1.742974 1.312857 -0.430117
1753.15234375 1.837741 1.432755 -0.404986
1753.65625 1.606379 1.22507 -0.381309
1754.09765625 1.767543 1.347711 -0.419832
1754.7109375 1.7650970000000001 1.300577 -0.46452
1755.25390625 1.5380859999999998 1.197185 -0.340901
1755.7265625 1.7220250000000001 1.322464 -0.399561
1756.44140625 1.594964 1.235 -0.359964
1756.890625 1.7005210000000002 1.25797 -0.442551
1757.2734375 1.763704 1.263895 -0.499809
1757.83984375 1.634763 1.244341 -0.390422
1758.66015625 1.665643 1.382831 -0.282812
1759.328125 1.659624 1.279819 -0.379805
1760.0390625 1.672857 1.274978 -0.397879
1760.953125 1.8469870000000002 1.495 -0.351987
1761.546875 1.685642 1.359355 -0.326287
1762.2890625 1.824015 1.444248 -0.379767
1762.94140625 1.707922 1.349953 -0.357969
1763.70703125 1.6584839999999998 1.323848 -0.334636
1764.46875 1.759605 1.464839 -0.294766
1765.09765625 1.737031 1.402282 -0.334749
1765.98828125 1.7502440000000001 1.400349 -0.349895
1767.02734375 1.872747 1.598049 -0.274698
1767.5546875 1.919406 1.603958 -0.315448
1768.36328125 1.843201 1.434447 -0.408754
1768.9765625 1.7956560000000001 1.418989 -0.376667
1769.34765625 1.864109 1.406329 -0.45778
1770.1171875 1.9804769999999998 1.629444 -0.351033
1770.7578125 1.938358 1.608358 -0.33
1771.27734375 1.770238 1.39609 -0.374148
1771.70703125 1.852474 1.424997 -0.427477
1772.4453125 1.8236089999999998 1.419792 -0.403817
1773.23828125 1.972137 1.641304 -0.330833
1774.0078125 1.894454 1.558056 -0.336398
1774.79296875 1.92304 1.555906 -0.367134
1775.23046875 1.837634 1.454953 -0.382681
1775.828125 1.832811 1.459022 -0.373789
1776.79296875 1.91156 1.601924 -0.309636
1777.42578125 1.856333 1.501333 -0.355
1778.16015625 1.826632 1.45921 -0.367422
1779.06640625 1.9640920000000002 1.634092 -0.33
1779.8203125 1.7117069999999999 1.366707 -0.345
1780.42578125 1.8073359999999998 1.379508 -0.427828
1781.140625 1.8520409999999998 1.473142 -0.378899
1781.546875 1.6985 1.2785 -0.42
1782.2890625 1.952555 1.569034 -0.383521
1782.921875 1.934917 1.539917 -0.395
1783.53125 1.88327 1.479661 -0.403609
1784.1015625 1.672989 1.30336 -0.369629
1784.94921875 1.801941 1.444464 -0.357477
1785.8203125 1.859991 1.56002 -0.299971
1786.40625 1.9270429999999998 1.595 -0.332043
1787.1875 1.784837 1.465833 -0.319004
1787.875 1.7493850000000002 1.445 -0.304385
1788.4375 1.7398689999999999 1.425741 -0.314128
1788.94140625 1.8176320000000001 1.454951 -0.362681
1789.75390625 1.843207 1.511497 -0.33171
1790.34765625 1.790664 1.468136 -0.322528
1790.890625 1.694312 1.354312 -0.34
1791.73828125 1.8347909999999998 1.545416 -0.289375
1792.48046875 1.9337309999999999 1.610294 -0.323437
1793.34765625 1.777077 1.487733 -0.289344
1794.15625 1.802444 1.4726 -0.329844
1795.30078125 1.943807 1.676286 -0.267521
1795.72265625 1.95284 1.614402 -0.338438
1796.0859375 1.764615 1.334683 -0.429932
1796.82421875 1.722305 1.332312 -0.389993
1797.32421875 1.691568 1.216597 -0.474971
1798.078125 1.8736100000000002 1.490309 -0.383301
1798.984375 1.820143 1.450768 -0.369375
1799.61328125 1.822415 1.379734 -0.442681
1800.34765625 1.811134 1.38688 -0.424254
1800.9609375 1.8781910000000002 1.479867 -0.398324
1801.546875 1.752784 1.363219 -0.389565
1802.01171875 1.909789 1.428026 -0.481763
1803.03515625 1.8362310000000002 1.486231 -0.35
1803.73046875 1.9356849999999999 1.614852 -0.320833
1804.48828125 1.764645 1.419746 -0.344899
