4.21875 1.566848 0.478214 -1.088634
4.8984375 1.8975810000000002 0.727607 -1.169974
5.53515625 1.438166 0.433198 -1.004968
6.15234375 1.353016 0.433016 -0.92
6.76171875 1.4976889999999998 0.614308 -0.883381
7.37890625 1.65183 0.698142 -0.953688
8.0 1.61423 0.805 -0.80923
8.6484375 1.821221 0.976221 -0.845
9.30078125 1.7864339999999999 0.811434 -0.975
9.94921875 1.484075 0.594075 -0.89
10.58203125 1.490749 0.620749 -0.87
11.21875 1.7498939999999998 0.82 -0.929894
11.83984375 1.957433 0.924706 -1.032727
12.4375 1.725 0.695 -1.03
13.01953125 1.584668 0.654968 -0.9297
13.6328125 1.6920709999999999 0.816562 -0.875509
14.2421875 1.8535 0.944216 -0.909284
14.87890625 2.106591 1.060954 -1.045637
15.52734375 1.8199999999999998 0.805 -1.015
16.16015625 1.785081 0.852355 -0.932726
16.796875 1.876857 0.966865 -0.909992
17.390625 2.130414 1.52082 -0.609594
18.0 2.2495060000000002 1.17 -1.079506
18.59765625 1.955757 0.883921 -1.071836
19.21484375 1.914652 0.924461 -0.990191
19.8125 2.0173360000000002 1.040227 -0.977109
20.43359375 2.116682 1.124877 -0.991805
21.0625 2.256596 1.212083 -1.044513
21.7265625 2.086893 1.075023 -1.01187
22.40625 1.9585569999999999 1.022656 -0.935901
23.03125 2.1083819999999998 1.164167 -0.944215
23.64453125 2.159687 1.204687 -0.955
24.26953125 2.219816 1.279957 -0.939859
24.91796875 2.312815 1.368224 -0.944591
25.546875 2.111835 1.22 -0.891835
26.17578125 2.01 1.14 -0.87
26.83203125 2.06277 1.18822 -0.87455
27.50390625 2.097134 1.212134 -0.885
28.1875 2.212143 1.227143 -0.985
28.86328125 2.254561 1.215 -1.039561
29.49609375 2.324465 1.230777 -1.093688
30.12109375 2.060832 1.06776 -0.993072
30.76171875 2.0 1.09 -0.91
31.41796875 1.9832640000000001 1.443264 -0.54
32.078125 2.214671 1.389671 -0.825
32.73046875 2.185417 1.409987 -0.77543
33.4140625 2.19968 1.464905 -0.734775
34.1015625 2.210903 1.431333 -0.77957
34.78125 2.297473 1.448219 -0.849254
35.45703125 2.116841 1.28187 -0.834971
36.1015625 2.085 1.295 -0.79
36.7421875 2.181939 1.347903 -0.834036
37.3984375 2.2113129999999996 1.356437 -0.854876
38.09765625 2.236436 1.314673 -0.921763
38.67578125 2.020299 0.430632 -1.589667
39.4765625 2.325716 1.313264 -1.012452
40.16796875 2.089638 1.1268 -0.962838
40.8671875 2.11033 1.19383 -0.9165
41.546875 2.239775 1.269807 -0.969968
42.2265625 2.254358 1.299521 -0.954837
42.87890625 2.311376 1.331544 -0.979832
43.52734375 2.3875390000000003 1.367539 -1.02
44.21484375 2.273917 1.224298 -1.049619
44.9453125 2.235275 1.219437 -1.015838
45.66015625 2.248755 1.288755 -0.96
46.34765625 2.382911 1.378804 -1.004107
47.04296875 2.497509 1.463735 -1.033774
47.71484375 2.321509 1.336509 -0.985
48.39453125 2.181583 1.280287 -0.901296
49.0625 2.292879 1.37 -0.922879
49.73046875 2.349934 1.420271 -0.929663
50.42578125 2.429655 1.490383 -0.939272
51.171875 2.4300100000000002 1.485933 -0.944077
51.8828125 2.1431430000000002 1.261452 -0.881691
52.578125 2.12 1.25 -0.87
53.26171875 2.256155 1.346726 -0.909429
53.9296875 2.3230459999999997 1.414437 -0.908609
54.609375 2.374258 1.439258 -0.935
55.296875 2.403903 1.439559 -0.964344
55.97265625 2.146985 1.249016 -0.897969
56.6640625 2.267705 1.359943 -0.907762
57.41015625 2.361157 1.441832 -0.919325
58.1328125 2.424305 1.508796 -0.915509
58.83203125 2.298346 1.378424 -0.919922
59.51171875 2.119698 1.204698 -0.915
60.1875 2.199869 1.297 -0.902869
60.859375 2.297681 1.412681 -0.885
61.5546875 2.405554 1.476433 -0.929121
62.2421875 2.524151 1.534151 -0.99
62.9453125 2.339445 1.334445 -1.005
63.66796875 2.2099219999999997 1.295 -0.914922
64.41015625 2.333427 1.417646 -0.915781
65.10546875 2.459765 1.50496 -0.954805
65.76953125 2.587155 1.52992 -1.057235
66.4375 2.3352779999999997 1.270278 -1.065
67.1015625 2.236312 1.286437 -0.949875
67.796875 2.437532 1.47886 -0.958672
68.5078125 2.509521 1.519521 -0.99
69.2265625 2.5644489999999998 1.554449 -1.01
69.9375 2.4267969999999996 1.421797 -1.005
70.6875 2.244077 1.34 -0.904077
71.3828125 2.35844 1.438992 -0.919448
72.05078125 2.468167 1.503192 -0.964975
72.71484375 2.548858 1.547208 -1.00165
73.39453125 2.395224 1.425224 -0.97
74.10546875 2.1677049999999998 1.279971 -0.887734
74.83203125 2.245756 1.361635 -0.884121
75.55078125 2.365659 1.44935 -0.916309
76.26171875 2.403425 1.461281 -0.942144
76.8203125 2.1761049999999997 0.575776 -1.600329
77.6796875 2.213333 1.244289 -0.969044
78.34375 2.139055 1.249062 -0.889993
79.03125 2.299509 1.41 -0.889509
79.71875 2.358092 1.442047 -0.916045
80.4453125 2.350267 1.425728 -0.924539
81.19140625 2.406751 1.469946 -0.936805
81.9140625 2.362762 1.395 -0.967762
82.6171875 2.176425 1.269216 -0.907209
83.33984375 2.221284 1.339565 -0.881719
84.0390625 2.31353 1.409819 -0.903711
84.71875 2.357185 1.419219 -0.937966
85.39453125 2.3649999999999998 1.41 -0.955
86.1015625 2.44 1.465 -0.975
86.828125 2.244077 1.295 -0.949077
87.5859375 2.2701830000000003 1.349973 -0.92021
88.30859375 2.3241069999999997 1.404378 -0.919729
89.00390625 2.364322 1.451544 -0.912778
89.70703125 2.404278 1.459278 -0.945
90.41796875 2.4876430000000003 1.469049 -1.018594
91.10546875 2.1552480000000003 1.179964 -0.975284
91.78125 2.061329 1.169062 -0.892267
92.33984375 1.9173360000000002 0.377425 -1.539911
93.22265625 2.387889 1.419182 -0.968707
93.95703125 2.3937720000000002 1.353772 -1.04
94.68359375 2.326517 1.27993 -1.046587
95.37109375 2.077426 1.115 -0.962426
96.0546875 2.182293 1.259617 -0.922676
96.765625 2.331246 1.402125 -0.929121
97.45703125 2.408755 1.473755 -0.935
98.140625 2.216394 1.317754 -0.89864
98.86328125 2.109387 1.249387 -0.86
99.58984375 2.172536 1.356603 -0.815933
100.33203125 2.256599 1.421649 -0.83495
101.046875 2.343686 1.443693 -0.899993
101.7421875 2.351895 1.432451 -0.919444
102.42578125 2.117112 1.222118 -0.894994
103.13671875 2.184661 1.3 -0.884661
103.83984375 2.245079 1.347353 -0.897726
104.55078125 2.344182 1.383925 -0.960257
105.28125 2.4349999999999996 1.43 -1.005
106.0078125 2.161174 1.207723 -0.953451
106.75 2.209844 1.255 -0.954844
107.47265625 2.314402 1.385 -0.929402
108.15625 2.416508 1.471719 -0.944789
108.82421875 2.452571 1.503494 -0.949077
109.53515625 2.4266579999999998 1.447551 -0.979107
110.25 2.2525 1.34 -0.9125
110.97265625 2.385899 1.476329 -0.90957
111.69921875 2.482713 1.583865 -0.898848
112.42578125 2.600174 1.650182 -0.949992
113.13671875 2.680348 1.683644 -0.996704
113.83984375 2.498544 1.524847 -0.973697
114.51953125 2.4748989999999997 1.544994 -0.929905
115.19140625 2.6165279999999997 1.669886 -0.946642
115.890625 2.6850579999999997 1.710643 -0.974415
116.63671875 2.686764 1.726998 -0.959766
117.359375 2.71 1.73 -0.98
118.06640625 2.749867 1.769867 -0.98
118.78515625 2.7156700000000003 1.727646 -0.988024
119.4765625 2.512903 1.568684 -0.944219
120.171875 2.594175 1.684205 -0.90997
120.86328125 2.641004 1.727856 -0.913148
121.5546875 2.705 1.76 -0.945
122.25 2.672672 1.705 -0.967672
123.0078125 2.675964 1.675 -1.000964
123.73828125 2.701132 1.716503 -0.984629
124.44140625 2.70995 1.71995 -0.99
125.1484375 2.694748 1.703889 -0.990859
125.8359375 2.471722 1.52482 -0.946902
126.5234375 2.464153 1.533141 -0.931012
127.16015625 1.684911 0.641354 -1.043557
127.90234375 2.5831210000000002 1.633248 -0.949873
128.5859375 2.544877 1.584877 -0.96
129.3203125 2.57139 1.61 -0.96139
130.0546875 2.3840630000000003 1.419377 -0.964686
130.765625 2.1288400000000003 1.235 -0.89384
131.4296875 2.101267 1.256267 -0.845
132.10546875 2.240858 1.379994 -0.860864
132.765625 2.34968 1.442172 -0.907508
133.453125 2.3736870000000003 1.461961 -0.911726
134.13671875 2.440096 1.463515 -0.976581
134.84765625 2.094532 1.159826 -0.934706
135.56640625 2.074697 1.209697 -0.865
136.3125 2.2034380000000002 1.283438 -0.92
137.01953125 2.259259 1.319981 -0.939278
137.68359375 2.360537 1.390808 -0.969729
138.35546875 2.17 1.2 -0.97
139.01953125 1.989986 1.099986 -0.89
139.72265625 2.0862309999999997 1.233552 -0.852679
140.4375 2.237648 1.363571 -0.874077
141.13671875 2.265 1.37 -0.895
141.83984375 2.448484 1.45971 -0.988774
142.578125 2.111475 1.18925 -0.922225
143.2734375 2.0044649999999997 1.154521 -0.849944
143.9453125 2.136714 1.30644 -0.830274
144.60546875 2.299119 1.429968 -0.869151
145.28125 2.356719 1.486719 -0.87
145.97265625 2.419413 1.518515 -0.900898
146.6953125 2.1383520000000003 1.303352 -0.835
147.40625 2.13693 1.331987 -0.804943
148.10546875 2.2949349999999997 1.459935 -0.835
148.82421875 2.3266489999999997 1.507075 -0.819574
149.53515625 2.39 1.52 -0.87
150.19921875 2.093448 1.268448 -0.825
150.8515625 2.09384 1.328908 -0.764932
151.5234375 2.2778929999999997 1.444121 -0.833772
152.203125 2.353945 1.474101 -0.879844
152.91015625 2.439302 1.549345 -0.889957
153.625 2.24994 1.385 -0.86494
154.33203125 2.1183579999999997 1.303148 -0.81521
155.0078125 2.267809 1.438161 -0.829648
155.7109375 2.369974 1.524974 -0.845
156.375 2.454832 1.57 -0.884832
157.03125 2.2375 1.3125 -0.925
157.703125 2.19373 1.319224 -0.874506
158.390625 2.325827 1.421943 -0.903884
159.12109375 2.400108 1.451312 -0.948796
159.859375 2.449698 1.479171 -0.970527
160.5625 2.534615 1.539286 -0.995329
161.2421875 2.323607 1.344777 -0.97883
161.94140625 2.335 1.385 -0.95
162.62890625 2.455402 1.490719 -0.964683
163.3125 2.480791 1.508611 -0.97218
163.9921875 2.5425269999999998 1.547632 -0.994895
164.70703125 2.602754 1.56 -1.042754
165.4453125 2.4635759999999998 1.443576 -1.02
166.19140625 2.44 1.44 -1.0
166.89453125 2.4990810000000003 1.484985 -1.014096
167.578125 2.559542 1.529542 -1.03
168.27734375 2.570392 1.524855 -1.045537
168.98046875 2.6344469999999998 1.579994 -1.054453
169.66796875 2.6176 1.572944 -1.044656
170.3671875 2.449191 1.469777 -0.979414
171.1015625 2.4928369999999997 1.543774 -0.949063
171.828125 2.5551589999999997 1.599905 -0.955254
172.5703125 2.5458179999999997 1.604428 -0.94139
173.2734375 2.5674960000000002 1.637496 -0.93
173.94140625 2.609744 1.673689 -0.936055
174.625 2.6399999999999997 1.7 -0.94
175.33203125 2.658066 1.703368 -0.954698
176.02734375 2.483879 1.579673 -0.904206
176.71875 2.503 1.603 -0.9
177.44140625 2.555 1.625 -0.93
178.140625 2.473242 1.533154 -0.940088
178.8515625 2.116716 1.269847 -0.846869
179.54296875 2.212227 1.39353 -0.818697
180.20703125 2.318368 1.493368 -0.825
180.85546875 2.384902 1.534978 -0.849924
181.546875 2.445275 1.547853 -0.897422
182.2421875 2.170263 1.281575 -0.888688
182.9453125 2.121055 1.32 -0.801055
183.64453125 2.274706 1.439923 -0.834783
184.359375 2.3409500000000003 1.492282 -0.848668
185.0703125 2.378577 1.518577 -0.86
185.76953125 2.4346170000000003 1.52 -0.914617
186.4375 2.177854 1.288125 -0.889729
187.09765625 2.073919 1.244491 -0.829428
187.796875 2.239527 1.359551 -0.879976
188.52734375 2.364839 1.429863 -0.934976
189.2578125 2.3543600000000002 1.39942 -0.95494
189.9609375 2.089683 1.194683 -0.895
190.6796875 2.01883 1.18 -0.83883
191.375 2.140701 1.255 -0.885701
192.06640625 2.234891 1.329891 -0.905
192.734375 2.303336 1.372822 -0.930514
193.41015625 2.109345 1.164345 -0.945
194.109375 1.984993 1.112754 -0.872239
194.85546875 2.129906 1.244962 -0.884944
195.578125 2.224543 1.294907 -0.929636
196.28125 2.360008 1.389107 -0.970901
196.984375 2.153209 1.210675 -0.942534
197.6640625 1.993217 1.159943 -0.833274
198.34765625 2.021148 1.179664 -0.841484
199.04296875 2.065391 1.255391 -0.81
199.7265625 2.268432 1.378923 -0.889509
200.4140625 2.379789 1.449789 -0.93
201.15625 2.223746 1.295 -0.928746
201.890625 2.082861 1.197681 -0.88518
202.6015625 2.123968 1.250508 -0.87346
203.29296875 2.170779 1.291004 -0.879775
203.9765625 2.293701 1.381045 -0.912656
204.65625 2.358073 1.393214 -0.964859
205.359375 2.2321 1.2771 -0.955
206.0546875 2.093414 1.19384 -0.899574
206.75 2.164806 1.28 -0.884806
207.4921875 2.254805 1.369805 -0.885
208.25 2.337986 1.415 -0.922986
208.9609375 2.480531 1.495556 -0.984975
209.625 2.379876 1.395 -0.984876
210.30859375 2.2379990000000003 1.29 -0.947999
210.98046875 2.239887 1.319987 -0.9199
211.6796875 2.3358119999999998 1.367267 -0.968545
212.39453125 2.4648950000000003 1.45 -1.014895
213.125 2.34993 1.34 -1.00993
213.84375 2.234107 1.269107 -0.965
214.59765625 2.287068 1.334591 -0.952477
215.30859375 2.374803 1.409803 -0.965
215.98046875 2.454916 1.484971 -0.969945
216.6640625 2.553568 1.554751 -0.998817
217.3515625 2.3902669999999997 1.41322 -0.977047
218.0703125 2.1717180000000003 1.301257 -0.870461
218.80859375 2.202387 1.349627 -0.85276
219.52734375 2.330067 1.434166 -0.895901
220.2421875 2.483413 1.531287 -0.952126
220.96875 2.562599 1.602705 -0.959894
221.67578125 2.562112 1.594564 -0.967548
222.35546875 2.3391669999999998 1.444952 -0.894215
223.02734375 2.310056 1.48 -0.830056
223.71875 2.405745 1.54 -0.865745
224.43359375 2.539233 1.639813 -0.89942
225.1796875 2.656757 1.698576 -0.958181
225.8984375 2.721674 1.756674 -0.965
226.6015625 2.52912 1.568245 -0.960875
227.31640625 2.384947 1.514947 -0.87
228.0234375 2.403708 1.528923 -0.874785
228.70703125 2.536485 1.608324 -0.928161
229.37890625 2.647034 1.665874 -0.98116
230.078125 2.5423999999999998 1.544907 -0.997493
230.7890625 2.266133 1.344973 -0.92116
231.53515625 2.239298 1.354298 -0.885
232.26171875 2.312897 1.428362 -0.884535
232.96484375 2.3750929999999997 1.490101 -0.884992
233.6640625 2.547774 1.589774 -0.958
234.37890625 2.4285 1.48 -0.9485
235.05859375 2.17 1.295 -0.875
236.42578125 2.283782 1.34951 -0.934272
237.12890625 2.367909 1.401034 -0.966875
237.875 2.326667 1.35 -0.976667
238.59375 2.101888 1.137928 -0.96396
239.28515625 2.121914 1.262699 -0.859215
239.9453125 2.2614400000000003 1.37644 -0.885
240.6328125 2.2737499999999997 1.328984 -0.944766
241.2890625 1.709983 0.86 -0.849983
241.9453125 1.567691 0.835 -0.732691
242.6171875 1.566821 0.854767 -0.712054
243.30859375 1.9300000000000002 1.01 -0.92
243.99609375 2.026655 1.176823 -0.849832
244.6796875 1.98942 1.2 -0.78942
245.33203125 2.185442 1.302239 -0.883203
245.96875 1.8674339999999998 1.04375 -0.823684
246.59375 1.846425 1.061855 -0.78457
247.27734375 1.982021 1.186162 -0.795859
247.92578125 2.176011 1.307209 -0.868802
248.58203125 2.1581539999999997 1.265 -0.893154
249.25 1.924036 1.1 -0.824036
249.9453125 2.0390479999999997 1.209048 -0.83
250.63671875 2.1428629999999997 1.298188 -0.844675
251.328125 2.198307 1.349663 -0.848644
251.9609375 2.299704 1.39972 -0.899984
252.59375 2.041581 1.192237 -0.849344
253.26171875 2.143811 1.249719 -0.894092
253.953125 2.2437709999999997 1.333975 -0.909796
254.64453125 2.3217030000000003 1.409993 -0.91171
255.328125 2.368545 1.386052 -0.982493
256.03125 2.10317 1.134107 -0.969063
256.73046875 2.048668 1.135 -0.913668
257.4296875 2.206439 1.283032 -0.923407
258.109375 2.3396179999999998 1.41915 -0.920468
258.7734375 2.29673 1.367548 -0.929182
259.453125 2.197481 1.299766 -0.897715
260.1953125 2.217267 1.332267 -0.885
260.921875 2.296858 1.401865 -0.894993
261.6328125 2.368787 1.45152 -0.917267
262.37109375 2.373333 1.445 -0.928333
263.0859375 2.399782 1.469792 -0.92999
263.80078125 2.473536 1.479415 -0.994121
264.50390625 2.45993 1.465 -0.99493
265.203125 2.504469 1.479469 -1.025
265.90234375 2.5291319999999997 1.474861 -1.054271
266.671875 2.558846 1.514272 -1.044574
267.4296875 2.569243 1.529451 -1.039792
268.1640625 2.5912819999999996 1.555 -1.036282
268.8984375 2.621902 1.571375 -1.050527
269.61328125 2.6472670000000003 1.593085 -1.054182
270.33203125 2.67079 1.638368 -1.032422
271.0390625 2.673738 1.64 -1.033738
271.75 2.6992589999999996 1.68 -1.019259
272.47265625 2.742947 1.719041 -1.023906
273.25390625 2.706535 1.707993 -0.998542
274.01171875 2.52 1.555 -0.965
274.7265625 2.518276 1.57322 -0.945056
275.43359375 2.599729 1.6 -0.999729
276.12890625 2.5807010000000004 1.61 -0.970701
276.84765625 2.627974 1.648804 -0.97917
277.55078125 2.7433810000000003 1.708387 -1.034994
278.265625 2.620267 1.583092 -1.037175
279.0 2.525 1.54 -0.985
279.78125 2.613198 1.61 -1.003198
280.50390625 2.679734 1.63279 -1.046944
281.19921875 2.3763870000000002 1.387613 -0.988774
281.89453125 2.324833 1.394957 -0.929876
282.5703125 2.415 1.5 -0.915
283.2734375 2.543424 1.56 -0.983424
283.984375 2.1820250000000003 1.245 -0.937025
284.69921875 2.043461 1.173672 -0.869789
285.41796875 2.14 1.32 -0.82
286.1796875 2.3158909999999997 1.441433 -0.874458
286.8984375 2.418021 1.497607 -0.920414
287.58203125 2.201086 1.276086 -0.925
288.26953125 1.9408280000000002 1.07 -0.870828
288.96484375 2.020864 1.177729 -0.843135
289.66796875 2.204776 1.301635 -0.903141
290.3828125 1.324732 0.813151 -0.511581
291.15234375 2.168438 1.2 -0.968438
291.87109375 1.846936 0.956936 -0.89
292.625 2.00494 1.15 -0.85494
293.3515625 2.188627 1.300268 -0.888359
294.03515625 2.3128509999999998 1.413636 -0.899215
294.7109375 2.279762 1.369778 -0.909984
295.41015625 1.848344 1.029323 -0.819021
296.12109375 1.9271340000000001 1.127134 -0.8
296.86328125 2.087765 1.267765 -0.82
297.6015625 2.227525 1.373245 -0.85428
298.3203125 2.359251 1.462986 -0.896265
299.04296875 2.215968 1.319066 -0.896902
299.7734375 2.126333 1.256333 -0.87
300.46875 2.2440670000000003 1.329258 -0.914809
301.14453125 2.297523 1.374992 -0.922531
301.85546875 2.384804 1.38498 -0.999824
302.5859375 2.173415 1.279977 -0.893438
303.3359375 2.2688249999999996 1.324655 -0.94417
304.08203125 2.3577630000000003 1.38779 -0.969973
304.8125 2.373611 1.413611 -0.96
305.5234375 2.246057 1.301282 -0.944775
306.24609375 2.289775 1.335 -0.954775
306.9375 2.373611 1.393611 -0.98
307.62109375 2.408865 1.435 -0.973865
308.3359375 2.419984 1.445 -0.974984
309.06640625 2.465 1.475 -0.99
309.8203125 2.504904 1.558617 -0.946287
310.55859375 2.353545 1.485 -0.868545
311.26953125 2.40497 1.51497 -0.89
311.96484375 2.42999 1.48 -0.94999
312.6953125 2.45778 1.485 -0.97278
313.390625 2.471069 1.504141 -0.966928
314.09765625 2.484861 1.504861 -0.98
314.83203125 2.552894 1.538707 -1.014187
315.5703125 2.604449 1.593688 -1.010761
316.3359375 2.599921 1.614921 -0.985
317.0703125 2.5835980000000003 1.588859 -0.994739
317.76953125 2.63005 1.654978 -0.975072
318.44921875 2.7081049999999998 1.677346 -1.030759
319.18359375 2.674151 1.669745 -1.004406
319.88671875 2.5718 1.6418 -0.93
320.59765625 2.6065620000000003 1.655 -0.951562
321.33984375 2.6473839999999997 1.718634 -0.92875
322.078125 2.633817 1.699794 -0.934023
322.8203125 2.7995200000000002 1.794781 -1.004739
323.55078125 2.80969 1.784511 -1.025179
324.25 2.724419 1.71 -1.014419
324.92578125 2.7074 1.662407 -1.044993
325.66796875 2.754652 1.663739 -1.090913
326.38671875 2.804288 1.655 -1.149288
327.11328125 2.6908640000000004 1.601614 -1.08925
327.8515625 2.7282640000000002 1.648264 -1.08
328.57421875 2.19911 1.169557 -1.029553
329.28515625 1.534295 0.60935 -0.924945
329.98046875 1.572283 0.704947 -0.867336
330.65234375 1.542511 0.678707 -0.863804
331.31640625 1.414076 0.56924 -0.844836
332.03125 1.42682 0.591536 -0.835284
332.73828125 1.361302 0.508802 -0.8525
333.44140625 1.690181 0.719116 -0.971065
334.13671875 2.011596 0.956859 -1.054737
334.8203125 1.890498 0.80255 -1.087948
335.49609375 1.647796 0.643979 -1.003817
336.15234375 1.467387 0.644344 -0.823043
336.7890625 1.484651 0.589651 -0.895
337.40234375 1.342982 0.563363 -0.779619
338.05078125 1.41738 0.594387 -0.822993
338.75 1.301085 0.52 -0.781085
339.41015625 1.347721 0.52428 -0.823441
340.08203125 1.349704 0.547025 -0.802679
340.72265625 1.718199 0.863199 -0.855
341.359375 1.745781 0.780781 -0.965
341.98828125 1.424963 0.513946 -0.911017
342.6484375 1.26 0.465 -0.795
343.265625 1.517389 0.704004 -0.813385
343.8828125 1.7564440000000001 0.913186 -0.843258
344.5390625 1.9727540000000001 1.075 -0.897754
345.23828125 1.9269470000000002 1.056947 -0.87
345.90234375 1.9692919999999998 1.069292 -0.9
346.5390625 1.729753 0.88 -0.849753
347.19921875 1.554905 0.644462 -0.910443
347.83203125 1.466963 0.707219 -0.759744
348.47265625 1.620301 0.831255 -0.789046
349.125 1.835 0.955 -0.88
349.765625 1.663783 0.849171 -0.814612
350.41796875 1.6558350000000002 0.89861 -0.757225
351.09765625 1.878995 0.849672 -1.029323
351.8046875 1.912341 0.917341 -0.995
352.47265625 2.069369 1.094369 -0.975
353.109375 1.858218 1.024077 -0.834141
353.75390625 1.9015 1.085 -0.8165
354.38671875 2.001732 1.189707 -0.812025
355.0390625 2.0497750000000003 1.215 -0.834775
355.71484375 2.090059 1.225059 -0.865
356.375 2.1847529999999997 1.24 -0.944753
357.046875 1.935693 1.085693 -0.85
357.75390625 1.982847 1.108058 -0.874789
358.46484375 2.118508 1.208508 -0.91
359.1484375 2.155933 1.23 -0.925933
359.7890625 2.209518 1.249948 -0.95957
360.44140625 2.2862210000000003 1.270701 -1.01552
361.09375 2.277956 1.26325 -1.014706
361.7734375 2.3516529999999998 1.328141 -1.023512
362.46484375 2.377523 1.337748 -1.039775
363.16796875 2.148117 1.166869 -0.981248
363.8671875 2.027108 1.124767 -0.902341
364.6015625 2.156651 1.234121 -0.92253
365.2890625 2.264832 1.314832 -0.95
365.953125 2.343721 1.365 -0.978721
366.61328125 2.329148 1.344148 -0.985
367.28125 2.417019 1.392019 -1.025
367.984375 2.404343 1.395561 -1.008782
368.72265625 2.424362 1.449826 -0.974536
369.43359375 2.444564 1.449564 -0.995
370.13671875 2.441059 1.464355 -0.976704
370.87109375 2.439343 1.469343 -0.97
371.58984375 2.2773149999999998 1.345753 -0.931562
372.26953125 2.199987 1.334987 -0.865
372.9375 2.288204 1.408437 -0.879767
373.63671875 2.317662 1.447856 -0.869806
374.34375 2.329 1.449 -0.88
375.09375 2.382657 1.484219 -0.898438
375.8203125 2.459387 1.53 -0.929387
376.53515625 2.302355 1.392355 -0.91
377.25390625 2.308664 1.44854 -0.860124
377.9765625 2.42183 1.522726 -0.899104
378.66796875 2.437819 1.547491 -0.890328
379.3359375 2.4896760000000002 1.589714 -0.899962
380.04296875 2.553258 1.628258 -0.925
380.76171875 2.485071 1.560613 -0.924458
381.51171875 2.308709 1.45 -0.858709
382.25 2.404749 1.53 -0.874749
382.96875 2.511101 1.57 -0.941101
383.65234375 2.577325 1.547325 -1.03
384.3671875 2.409055 1.319545 -1.08951
385.05078125 2.2747349999999997 1.297054 -0.977681
385.72265625 2.384491 1.419491 -0.965
386.42578125 2.462092 1.449533 -1.012559
387.1484375 2.5491099999999998 1.469216 -1.079894
387.8984375 2.5859259999999997 1.442655 -1.143271
388.640625 2.3085139999999997 1.249023 -1.059491
389.3515625 2.332741 1.361375 -0.971366
390.01953125 2.424659 1.439952 -0.984707
390.71875 2.538207 1.504107 -1.0341
391.4140625 2.444786 1.399977 -1.044809
392.11328125 2.152304 1.215613 -0.936691
392.81640625 2.2423130000000002 1.374943 -0.86737
393.546875 2.333818 1.443828 -0.88999
394.28515625 2.397589 1.474151 -0.923438
395.0078125 2.444912 1.489275 -0.955637
395.6875 2.123437 1.218437 -0.905
396.35546875 2.1194550000000003 1.299994 -0.819461
397.0390625 2.195386 1.386042 -0.809344
397.74609375 2.285226 1.444066 -0.84116
398.44921875 2.353685 1.453956 -0.899729
399.15234375 2.094649 1.186218 -0.908431
399.87890625 2.066019 1.25139 -0.814629
400.58203125 2.194994 1.38 -0.814994
401.29296875 2.221844 1.38659 -0.835254
401.9765625 2.2495700000000003 1.3 -0.94957
402.64453125 2.049472 1.154981 -0.894491
403.3203125 2.11056 1.25556 -0.855
404.0390625 2.209369 1.294888 -0.914481
404.75390625 2.305597 1.33893 -0.966667
405.47265625 2.383452 1.373831 -1.009621
406.1953125 2.2161549999999997 1.200694 -1.015461
406.90625 2.1099609999999998 1.181763 -0.928198
407.6171875 2.210689 1.299545 -0.911144
408.3203125 2.325444 1.384683 -0.940761
409.00390625 2.3485 1.395 -0.9535
409.67578125 2.403724 1.398754 -1.00497
410.41796875 2.326635 1.416635 -0.91
411.16796875 2.340968 1.45671 -0.884258
411.89453125 2.419968 1.439968 -0.98
412.60546875 2.425 1.405 -1.02
413.3125 2.4938399999999996 1.41 -1.08384
414.01171875 2.386614 1.396614 -0.99
414.71484375 2.37629 1.426319 -0.949971
415.390625 2.4353249999999997 1.463199 -0.972126
416.07421875 2.434976 1.472285 -0.962691
416.8125 2.46779 1.515 -0.95279
417.5703125 2.372331 1.507331 -0.865
418.30078125 2.361287 1.526737 -0.83455
418.98828125 2.428379 1.578379 -0.85
419.69140625 2.433663 1.565784 -0.867879
420.37890625 2.474184 1.564459 -0.909725
421.07421875 2.465334 1.554047 -0.911287
421.76171875 2.3843870000000003 1.504574 -0.879813
422.4609375 2.44556 1.53556 -0.91
423.203125 2.475215 1.545215 -0.93
423.953125 2.5296440000000002 1.571035 -0.958609
424.67578125 2.542849 1.58788 -0.954969
425.203125 2.188145 0.653145 -1.535
426.05078125 2.495548 1.592476 -0.903072
426.71875 2.509992 1.581071 -0.928921
427.4296875 2.600327 1.65056 -0.949767
428.125 2.5772209999999998 1.555 -1.022221
428.66796875 2.164784 0.540445 -1.624339
429.5703125 2.611402 1.55636 -1.055042
430.3203125 2.6438170000000003 1.538817 -1.105
431.03515625 2.326604 1.278431 -1.048173
431.70703125 2.134296 1.197284 -0.937012
432.3828125 2.278958 1.368958 -0.91
433.04296875 2.4147160000000003 1.438368 -0.976348
433.734375 2.517803 1.452803 -1.065
434.44140625 2.107733 1.175797 -0.931936
435.1484375 2.226112 1.372034 -0.854078
435.84375 2.392386 1.5075 -0.884886
436.578125 2.582048 1.624734 -0.957314
437.26171875 2.253802 1.333802 -0.92
437.91796875 2.1949240000000003 1.359938 -0.834986
438.58203125 2.41287 1.522927 -0.889943
439.25390625 2.533058 1.603058 -0.93
439.94921875 2.6218310000000002 1.633448 -0.988383
440.67578125 2.237043 1.295 -0.942043
441.40625 2.1074859999999997 1.3025 -0.804986
442.11328125 2.3385569999999998 1.466503 -0.872054
442.84765625 2.444975 1.535 -0.909975
443.5546875 2.594377 1.639377 -0.955
444.22265625 2.393598 1.411348 -0.98225
444.890625 2.101357 1.206582 -0.894775
445.5859375 2.3043329999999997 1.419946 -0.884387
446.30078125 2.393164 1.49 -0.903164
447.05078125 2.486853 1.547849 -0.939004
447.76953125 2.579568 1.564939 -1.014629
448.4765625 2.343923 1.413923 -0.93
449.203125 2.424629 1.505 -0.919629
449.90625 2.442783 1.530719 -0.912064
450.6015625 2.560307 1.559562 -1.000745
451.26953125 2.404291 1.419971 -0.98432
451.96875 2.234219 1.279219 -0.955
452.6875 2.303646 1.383646 -0.92
453.44921875 2.384753 1.45 -0.934753
454.171875 2.4395439999999997 1.476996 -0.962548
454.87109375 2.522993 1.557993 -0.965
455.578125 2.429396 1.416068 -1.013328
456.29296875 2.246087 1.290203 -0.955884
456.98828125 2.304854 1.415 -0.889854
457.66796875 2.394775 1.475 -0.919775
458.38671875 2.37 1.46 -0.91
459.1171875 2.403963 1.464783 -0.93918
459.87109375 2.433645 1.492951 -0.940694
460.6015625 2.45293 1.519296 -0.933634
461.29296875 2.3159289999999997 1.376291 -0.939638
461.98828125 2.191795 1.332592 -0.859203
462.7109375 2.208222 1.380468 -0.827754
463.40234375 2.313979 1.498641 -0.815338
464.08984375 2.359617 1.535906 -0.823711
464.81640625 2.354753 1.514753 -0.84
465.54296875 2.432159 1.529444 -0.902715
466.29296875 2.365 1.46 -0.905
467.01953125 2.210485 1.370485 -0.84
467.72265625 2.277463 1.444104 -0.833359
468.40625 2.378375 1.485 -0.893375
469.13671875 2.40183 1.504686 -0.897144
469.84375 2.409265 1.514265 -0.895
470.55859375 2.4746439999999996 1.539891 -0.934753
471.3046875 2.333295 1.405 -0.928295
472.0390625 2.404527 1.479977 -0.92455
472.7890625 2.454945 1.534945 -0.92
473.5078125 2.49886 1.56886 -0.93
474.20703125 2.552775 1.55161 -1.001165
474.890625 2.4122329999999996 1.410305 -1.001928
475.625 2.363576 1.405 -0.958576
476.33984375 2.451676 1.463431 -0.988245
477.0625 2.458989 1.4675 -0.991489
477.80078125 2.519424 1.509438 -1.009986
478.5234375 2.61516 1.528864 -1.086296
479.25390625 2.47558 1.43408 -1.0415
479.97265625 2.4648440000000003 1.454844 -1.01
480.65625 2.562173 1.506604 -1.055569
481.32421875 2.529548 1.459548 -1.07
482.05078125 2.483925 1.458925 -1.025
482.78125 2.541181 1.487132 -1.054049
483.5078125 2.5999999999999996 1.525 -1.075
484.21484375 2.518155 1.498198 -1.019957
484.93359375 2.392563 1.464848 -0.927715
485.625 2.439642 1.57 -0.869642
486.3203125 2.504464 1.599464 -0.905
486.984375 2.526106 1.561761 -0.964345
487.6484375 2.177521 1.247768 -0.929753
488.36328125 2.039387 1.179387 -0.86
489.0390625 1.758541 0.454637 -1.303904
489.83203125 2.372541 1.4334 -0.939141
490.5234375 2.4785120000000003 1.5 -0.978512
491.234375 2.292079 1.332559 -0.95952
491.90625 1.9808189999999999 1.093219 -0.8876
492.59375 2.1585010000000002 1.308173 -0.850328
493.2890625 2.345981 1.42476 -0.921221
493.97265625 2.3936390000000003 1.399237 -0.994402
494.671875 2.01125 1.054489 -0.956761
495.42578125 1.898072 1.038072 -0.86
496.14453125 2.104944 1.245 -0.859944
496.8359375 2.277917 1.369845 -0.908072
497.5078125 2.3507749999999996 1.323103 -1.027672
498.1796875 2.006456 1.032452 -0.974004
498.86328125 2.145038 1.206614 -0.938424
499.5546875 2.3148489999999997 1.321019 -0.99383
500.2421875 2.4343690000000002 1.373789 -1.06058
500.92578125 2.168215 1.143215 -1.025
501.66015625 2.094957 1.159986 -0.934971
502.41015625 2.258285 1.314254 -0.944031
503.125 2.331144 1.375 -0.956144
503.78125 2.35846 1.36846 -0.99
504.46875 2.15956 1.24957 -0.90999
505.15625 2.216081 1.33206 -0.884021
505.87109375 2.2963649999999998 1.386422 -0.909943
506.578125 2.36641 1.449629 -0.916781
507.30078125 2.332893 1.38451 -0.948383
508.05859375 2.105304 1.280765 -0.824539
508.8125 2.218333 1.378333 -0.84
509.53125 2.282372 1.407372 -0.875
510.0703125 1.986446 0.453928 -1.532518
510.9140625 2.41989 1.499735 -0.920155
511.6171875 2.25834 1.343789 -0.914551
512.37890625 2.168608 1.338979 -0.829629
513.1171875 2.21494 1.375 -0.83994
513.8515625 2.267614 1.417726 -0.849888
514.6171875 2.31237 1.43237 -0.88
515.35546875 2.340025 1.434969 -0.905056
516.0546875 2.3323910000000003 1.407391 -0.925
516.7421875 2.402219 1.424258 -0.977961
517.4453125 2.2919609999999997 1.311961 -0.98
518.16015625 2.298354 1.354354 -0.944
518.921875 2.3277609999999997 1.339753 -0.988008
519.6640625 2.379718 1.384718 -0.995
520.3828125 2.343933 1.359321 -0.984612
521.125 2.415278 1.445 -0.970278
521.84375 2.439581 1.458852 -0.980729
522.5390625 2.450221 1.435967 -1.014254
523.2265625 2.477446 1.454008 -1.023438
523.94140625 2.492438 1.520824 -0.971614
524.6796875 2.521681 1.56 -0.961681
525.453125 2.51065 1.54957 -0.96108
526.1875 2.473616 1.51 -0.963616
526.8984375 2.488335 1.518774 -0.969561
527.625 2.505 1.57 -0.935
528.328125 2.544172 1.599172 -0.945
528.88671875 2.184195 0.615344 -1.568851
529.69921875 2.415751 1.473381 -0.94237
530.4140625 2.3880689999999998 1.449944 -0.938125
531.1796875 2.492362 1.570972 -0.92139
531.9453125 2.497039 1.566719 -0.93032
532.6640625 2.548185 1.584971 -0.963214
533.359375 2.509672 1.547803 -0.961869
534.078125 2.3956790000000003 1.486012 -0.909667
534.77734375 2.5041450000000003 1.611218 -0.892927
535.4609375 2.517475 1.61476 -0.902715
536.16015625 2.5571200000000003 1.580284 -0.976836
536.8828125 2.091289 1.188161 -0.903128
537.63671875 2.124288 1.274386 -0.849902
538.3828125 2.3129079999999997 1.414783 -0.898125
539.08203125 2.522336 1.507336 -1.015
539.75 2.162864 1.225 -0.937864
540.45703125 2.134964 1.235 -0.899964
541.1484375 2.367385 1.451333 -0.916052
541.83984375 2.4862029999999997 1.53527 -0.950933
542.54296875 2.211882 1.257035 -0.954847
543.28515625 2.1916919999999998 1.287477 -0.904215
544.0234375 2.422964 1.473245 -0.949719
544.765625 2.55951 1.535 -1.02451
545.4609375 2.230523 1.254778 -0.975745
546.1328125 2.2835 1.36 -0.9235
546.82421875 2.462939 1.517939 -0.945
547.5390625 2.5985050000000003 1.62 -0.978505
548.25 2.252144 1.35 -0.902144
548.95703125 2.254983 1.4 -0.854983
549.6953125 2.390279 1.522489 -0.86779
550.42578125 2.4859340000000003 1.599253 -0.886681
551.15625 2.469023 1.55457 -0.914453
551.84375 2.176758 1.331906 -0.844852
552.5234375 2.23998 1.47498 -0.765
553.23046875 2.365631 1.574938 -0.790693
553.96875 2.428979 1.599635 -0.829344
554.7109375 2.4848860000000004 1.584893 -0.899993
555.44140625 2.199892 1.359131 -0.840761
556.1953125 2.202951 1.455 -0.747951
556.93359375 2.338195 1.56 -0.778195
557.66796875 2.419995 1.605954 -0.814041
558.35546875 2.3886529999999997 1.574981 -0.813672
559.046875 2.1796569999999997 1.364671 -0.814986
559.7734375 2.213459 1.473889 -0.73957
560.515625 2.324728 1.541447 -0.783281
561.265625 2.33705 1.552559 -0.784491
562.0 2.36 1.555 -0.805
562.74609375 2.43525 1.615759 -0.819491
563.4609375 2.230161 1.425 -0.805161
564.18359375 2.191466 1.424936 -0.76653
564.8828125 2.304075 1.478374 -0.825701
565.5859375 2.385 1.5 -0.885
566.32421875 2.360763 1.498082 -0.862681
567.1015625 2.349 1.475 -0.874
567.85546875 2.364754 1.489979 -0.874775
568.59765625 2.390943 1.519175 -0.871768
569.328125 2.3937549999999996 1.529907 -0.863848
570.03125 2.417477 1.53 -0.887477
570.76171875 2.374222 1.489355 -0.884867
571.46875 2.311508 1.416855 -0.894653
572.18359375 2.427449 1.484789 -0.94266
572.9453125 2.397279 1.4994 -0.897879
573.73046875 2.439985 1.549985 -0.89
574.4765625 2.429434 1.548533 -0.880901
575.1953125 2.460223 1.54818 -0.912043
575.9140625 2.469062 1.54 -0.929062
576.62109375 2.431863 1.493033 -0.93883
577.33984375 2.383198 1.453198 -0.93
578.0546875 2.417843 1.498304 -0.919539
578.78515625 2.4068359999999998 1.515 -0.891836
579.546875 2.455876 1.525933 -0.929943
580.3125 2.483407 1.573654 -0.909753
581.05078125 2.296834 1.440436 -0.856398
581.734375 2.334578 1.477514 -0.857064
582.4296875 2.380864 1.491759 -0.889105
583.12109375 2.497951 1.527951 -0.97
583.8359375 2.420444 1.440468 -0.979976
584.5546875 2.259585 1.373304 -0.886281
585.28515625 2.3633189999999997 1.471366 -0.891953
586.03125 2.456091 1.493738 -0.962353
586.77734375 2.5111220000000003 1.479826 -1.031296
587.48828125 2.439653 1.439737 -0.999916
588.16796875 2.385 1.46 -0.925
588.85546875 2.438486 1.484978 -0.953508
589.546875 2.4748710000000003 1.449888 -1.024983
590.28125 2.269621 1.304621 -0.965
591.015625 2.276262 1.383301 -0.892961
591.74609375 2.413029 1.443685 -0.969344
592.47265625 2.5185589999999998 1.484653 -1.033906
593.22265625 2.313359 1.268738 -1.044621
593.91796875 2.079304 1.116697 -0.962607
594.59765625 2.255523 1.32107 -0.934453
595.296875 2.40584 1.459268 -0.946572
595.99609375 2.506736 1.550719 -0.956017
596.75 2.315 1.385 -0.93
597.5 2.0358330000000002 1.21 -0.825833
598.234375 2.2305409999999997 1.398672 -0.831869
598.96484375 2.369059 1.464509 -0.90455
599.71484375 2.444312 1.519312 -0.925
600.40625 2.448169 1.485 -0.963169
601.08984375 2.042231 1.152231 -0.89
601.6328125 1.893687 0.411206 -1.482481
602.5234375 2.373634 1.455 -0.918634
603.28125 2.382991 1.43846 -0.944531
604.03515625 2.465497 1.440906 -1.024591
604.76171875 2.038005 1.078188 -0.959817
605.4765625 2.136174 1.228908 -0.907266
606.20703125 2.331074 1.361074 -0.97
606.90625 2.401091 1.43125 -0.969841
607.58984375 2.457405 1.397699 -1.059706
608.31640625 2.2199489999999997 1.164949 -1.055
609.05859375 2.094848 1.119848 -0.975
609.8203125 2.261571 1.266571 -0.995
611.26171875 2.416614 1.386614 -1.03
611.96875 2.356987 1.281987 -1.075
612.69921875 2.167027 1.222274 -0.944753
613.40234375 2.268512 1.335 -0.933512
614.1015625 2.402009 1.427755 -0.974254
614.83203125 2.410896 1.440896 -0.97
615.57421875 2.485808 1.463494 -1.022314
616.3359375 2.3199810000000003 1.34 -0.979981
617.05078125 2.235026 1.367272 -0.867754
617.73828125 2.38389 1.474105 -0.909785
618.44140625 2.417535 1.504656 -0.912879
619.16015625 2.466716 1.521947 -0.944769
619.8671875 2.354055 1.444485 -0.90957
620.57421875 2.270409 1.409019 -0.86139
621.3203125 2.345 1.465 -0.88
622.05859375 2.389193 1.494796 -0.894397
622.80859375 2.383685 1.46 -0.923685
623.51953125 2.30926 1.479937 -0.829323
624.19921875 2.36 1.515 -0.845
624.90625 2.409426 1.524609 -0.884817
625.6328125 2.393675 1.493675 -0.9
626.359375 2.376572 1.466572 -0.91
627.08203125 2.420997 1.481047 -0.93995
627.83984375 2.3724250000000002 1.445 -0.927425
628.58203125 2.367336 1.462336 -0.905
629.3203125 2.46226 1.4994 -0.96286
630.015625 2.439375 1.475 -0.964375
630.69140625 2.412281 1.429233 -0.983048
631.41015625 2.322353 1.337353 -0.985
632.14453125 2.377446 1.379994 -0.997452
632.88671875 2.443669 1.443669 -1.0
633.6171875 2.480273 1.444337 -1.035936
634.359375 2.5229280000000003 1.477942 -1.044986
635.1015625 2.36822 1.40822 -0.96
635.8203125 2.4968019999999997 1.486802 -1.01
636.515625 2.484839 1.453042 -1.031797
637.19921875 2.577985 1.507985 -1.07
637.9296875 2.475658 1.404377 -1.071281
638.68359375 2.3849479999999996 1.359948 -1.025
639.43359375 2.487704 1.43995 -1.047754
640.15625 2.529945 1.435 -1.094945
640.88671875 2.5338510000000003 1.448908 -1.084943
641.61328125 2.399664 1.399752 -0.999912
642.3359375 2.42427 1.480496 -0.943774
643.01953125 2.494987 1.559987 -0.935
643.703125 2.549807 1.579807 -0.97
644.453125 2.332305 1.414299 -0.918006
645.20703125 2.085 1.26 -0.825
645.94140625 2.219823 1.414823 -0.805
646.66796875 2.3836 1.53361 -0.84999
647.37890625 2.499428 1.595 -0.904428
648.078125 2.289322 1.400693 -0.888629
648.78515625 2.045917 1.277792 -0.768125
649.46875 2.203615 1.394187 -0.809428
650.15625 2.384175 1.487917 -0.896258
650.90234375 2.564396 1.594638 -0.969758
651.65625 2.1550000000000002 1.27 -0.885
652.26953125 1.864807 0.42486 -1.439947
653.09375 2.282789 1.401719 -0.88107
653.796875 2.389546 1.444908 -0.944638
654.4921875 2.56617 1.564268 -1.001902
655.19921875 2.252385 1.287718 -0.964667
655.91015625 2.148899 1.265 -0.883899
656.6328125 2.369713 1.429777 -0.939936
657.3828125 2.459067 1.481287 -0.97778
658.15234375 2.475908 1.42607 -1.049838
658.890625 2.141755 1.163374 -0.978381
659.58984375 2.282388 1.347452 -0.934936
660.2890625 2.374099 1.389912 -0.984187
660.98828125 2.459226 1.439372 -1.019854
661.70703125 2.384688 1.351004 -1.033684
662.4375 2.163654 1.193654 -0.97
663.17578125 2.2586399999999998 1.30864 -0.95
663.9296875 2.3695389999999996 1.38 -0.989539
664.6953125 2.42 1.415 -1.005
665.41796875 2.288241 1.263241 -1.025
666.1015625 2.144736 1.229736 -0.915
666.80078125 2.248164 1.32 -0.928164
667.49609375 2.318927 1.381399 -0.937528
668.234375 2.385853 1.445 -0.940853
668.9765625 2.2531689999999998 1.330903 -0.922266
669.72265625 2.202758 1.334104 -0.868654
670.46875 2.306869 1.39225 -0.914619
671.21875 2.337031 1.437031 -0.9
671.921875 2.374438 1.460933 -0.913505
672.60546875 2.207679 1.324988 -0.882691
673.3125 2.26639 1.385 -0.88139
674.01953125 2.3249940000000002 1.424994 -0.9
674.77734375 2.36809 1.424653 -0.943437
675.5234375 2.299811 1.370745 -0.929066
676.265625 2.223618 1.338672 -0.884946
677.0 2.324876 1.435 -0.889876
677.73828125 2.352491 1.429233 -0.923258
678.44140625 2.392313 1.425 -0.967313
679.125 2.394445 1.385 -1.009445
679.84765625 2.2740210000000003 1.36 -0.914021
680.5703125 2.3545 1.424819 -0.929681
681.34375 2.414021 1.46 -0.954021
681.9375 2.106735 0.517548 -1.589187
682.8359375 2.4924239999999998 1.479863 -1.012561
683.546875 2.359007 1.354007 -1.005
684.29296875 2.434481 1.455 -0.979481
685.00390625 2.4616550000000004 1.480954 -0.980701
685.69140625 2.45259 1.48398 -0.96861
686.43359375 2.479629 1.48 -0.999629
687.1796875 2.3899999999999997 1.375 -1.015
687.94140625 2.280832 1.344606 -0.936226
688.68359375 2.384641 1.419641 -0.965
689.38671875 2.434446 1.464667 -0.969779
690.1015625 2.470198 1.478292 -0.991906
690.8203125 2.470042 1.482128 -0.987914
691.53515625 2.271116 1.37428 -0.896836
692.234375 2.392709 1.490443 -0.902266
692.98046875 2.387432 1.479993 -0.907439
693.7265625 2.465444 1.545913 -0.919531
694.484375 2.377754 1.467754 -0.91
695.203125 2.269895 1.394895 -0.875
695.8984375 2.337126 1.46 -0.877126
696.6171875 2.469121 1.56 -0.909121
697.3359375 2.369952 1.514952 -0.855
698.05859375 2.381922 1.559806 -0.822116
698.7890625 2.464122 1.599976 -0.864146
699.54296875 2.460044 1.565391 -0.894653
700.3046875 2.326572 1.425 -0.901572
701.05859375 2.157098 1.379147 -0.777951
701.7578125 2.388229 1.549792 -0.838437
702.43359375 2.44143 1.590817 -0.850613
703.15234375 2.494403 1.559479 -0.934924
703.8671875 2.189092 1.28 -0.909092
704.59375 2.0898079999999997 1.248738 -0.84107
705.32421875 2.272712 1.412718 -0.859994
706.0703125 2.447375 1.487375 -0.96
706.8046875 2.549441 1.544441 -1.005
707.54296875 2.3146709999999997 1.308738 -1.005933
708.23828125 2.03418 1.144736 -0.889444
708.91796875 2.237604 1.36112 -0.876484
709.63671875 2.40904 1.456614 -0.952426
710.37109375 2.538381 1.54104 -0.997341
711.1015625 2.45207 1.41732 -1.03475
711.828125 2.0497199999999998 1.099734 -0.949986
712.5703125 2.219022 1.319437 -0.899585
713.30078125 2.350701 1.498387 -0.852314
714.015625 2.518924 1.575257 -0.943667
714.70703125 2.274716 1.364716 -0.91
715.39453125 2.132266 1.325 -0.807266
716.13671875 2.3371399999999998 1.459667 -0.877473
716.88671875 2.45402 1.539732 -0.914288
717.62109375 2.476221 1.574077 -0.902144
718.35546875 2.41988 1.49988 -0.92
719.0859375 2.1199440000000003 1.23995 -0.879994
719.8125 2.182768 1.3335 -0.849268
720.51953125 2.329369 1.439994 -0.889375
721.21484375 2.372106 1.502106 -0.87
721.91796875 2.433684 1.515 -0.918684
722.671875 2.323687 1.414051 -0.909636
723.42578125 2.154359 1.311599 -0.84276
724.1640625 2.239195 1.409851 -0.829344
724.8984375 2.343538 1.468935 -0.874603
725.59765625 2.40375 1.49 -0.91375
726.30859375 2.409895 1.485509 -0.924386
727.015625 2.205899 1.356309 -0.84959
727.71484375 2.2740210000000003 1.429021 -0.845
728.421875 2.364004 1.43401 -0.929994
729.19140625 2.383954 1.444877 -0.939077
729.9375 2.478594 1.513594 -0.965
730.6484375 2.29641 1.39641 -0.9
731.3671875 2.377895 1.488404 -0.889491
732.0546875 2.402051 1.491608 -0.910443
732.765625 2.427925 1.502925 -0.925
733.48046875 2.483133 1.51999 -0.963143
734.1875 2.388182 1.453182 -0.935
734.91796875 2.371422 1.476422 -0.895
735.703125 2.438464 1.504242 -0.934222
736.44921875 2.463315 1.54383 -0.919485
737.15625 2.462812 1.527812 -0.935
737.85546875 2.417593 1.52 -0.897593
738.55078125 2.488045 1.549002 -0.939043
739.26171875 2.42 1.5 -0.92
739.98046875 2.489957 1.519957 -0.97
740.71484375 2.3977269999999997 1.47 -0.927727
741.45703125 2.436005 1.491697 -0.944308
742.2265625 2.422365 1.482034 -0.940331
742.95703125 2.456846 1.5 -0.956846
743.65625 2.426022 1.471973 -0.954049
744.34765625 2.396132 1.477386 -0.918746
745.04296875 2.458939 1.501869 -0.95707
745.76953125 2.465942 1.504978 -0.960964
746.5078125 2.461924 1.488591 -0.973333
747.25390625 2.5231009999999996 1.488101 -1.035
747.984375 2.473885 1.455561 -1.018324
748.74609375 2.329355 1.368195 -0.96116
749.453125 2.427597 1.449551 -0.978046
750.13671875 2.544396 1.504272 -1.040124
750.8203125 2.51 1.455 -1.055
751.51171875 2.5250000000000004 1.425 -1.1
752.23828125 2.3215440000000003 1.235851 -1.085693
753.00390625 2.2966670000000002 1.285 -1.011667
753.73828125 2.44587 1.374574 -1.071296
754.44921875 2.548723 1.437812 -1.110911
755.1875 2.615227 1.460227 -1.155
755.890625 2.314535 1.255 -1.059535
756.58203125 2.160287 1.211649 -0.948638
757.25390625 2.360274 1.395274 -0.965
757.95703125 2.4624439999999996 1.457444 -1.005
758.6875 2.5919790000000003 1.546518 -1.045461
759.4375 2.201079 1.270125 -0.930954
760.16796875 2.1104719999999997 1.270468 -0.840004
760.8671875 2.30567 1.401562 -0.904108
761.5859375 2.454951 1.494951 -0.96
762.296875 2.594728 1.589902 -1.004826
762.98046875 2.2920499999999997 1.374944 -0.917106
763.6640625 2.049616 1.234944 -0.814672
764.38671875 2.288786 1.449386 -0.8394
765.1171875 2.415464 1.519216 -0.896248
765.859375 2.513764 1.561836 -0.951928
766.5859375 2.3005 1.360527 -0.939973
767.28515625 2.259556 1.414986 -0.84457
767.9765625 2.335454 1.473187 -0.862267
768.68359375 2.494222 1.55 -0.944222
769.375 2.299937 1.395 -0.904937
770.06640625 2.155306 1.309545 -0.845761
770.80078125 2.290001 1.423387 -0.866614
771.53515625 2.423689 1.484345 -0.939344
772.29296875 2.481246 1.481246 -1.0
773.01953125 2.229149 1.254967 -0.974182
773.72265625 2.24107 1.32107 -0.92
774.421875 2.33744 1.386706 -0.950734
775.15234375 2.394888 1.42 -0.974888
775.8671875 2.490747 1.439783 -1.050964
776.58203125 2.274922 1.29 -0.984922
777.33203125 2.283495 1.388512 -0.894983
778.07421875 2.381864 1.442118 -0.939746
778.8359375 2.419957 1.454974 -0.964983
779.546875 2.3945309999999997 1.414531 -0.98
780.234375 2.266343 1.344077 -0.922266
780.94921875 2.396299 1.44883 -0.947469
781.6796875 2.424702 1.50228 -0.922422
782.40625 2.468617 1.518641 -0.949976
783.13671875 2.392802 1.452341 -0.940461
783.88671875 2.330479 1.479222 -0.851257
784.625 2.375 1.53 -0.845
785.36328125 2.388584 1.559023 -0.829561
786.0625 2.451227 1.6015 -0.849727
786.74609375 2.463777 1.558979 -0.904798
787.46484375 2.3858889999999997 1.567748 -0.818141
788.2109375 2.424932 1.604975 -0.819957
788.953125 2.428832 1.624151 -0.804681
789.68359375 2.524725 1.634725 -0.89
790.43359375 2.4046440000000002 1.53993 -0.864714
791.1640625 2.368437 1.525 -0.843437
791.8828125 2.459967 1.571634 -0.888333
792.5703125 2.47 1.59 -0.88
793.25390625 2.530636 1.596055 -0.934581
793.97265625 2.377 1.459344 -0.917656
794.7265625 2.419492 1.537225 -0.882267
795.47265625 2.4692220000000002 1.544672 -0.92455
796.19921875 2.537278 1.588348 -0.94893
796.93359375 2.454409 1.494436 -0.959973
797.6484375 2.376846 1.442471 -0.934375
798.36328125 2.412266 1.5 -0.912266
799.05078125 2.4922269999999997 1.572285 -0.919942
799.74609375 2.542614 1.547951 -0.994663
800.48828125 2.4439670000000002 1.464355 -0.979612
801.25 2.3199359999999998 1.38 -0.939936
801.99609375 2.378832 1.47393 -0.904902
802.71484375 2.437642 1.537652 -0.89999
803.4296875 2.476027 1.536033 -0.939994
804.13671875 2.498961 1.549308 -0.949653
804.8515625 2.3893180000000003 1.452412 -0.936906
805.55078125 2.224976 1.385 -0.839976
806.25 2.359558 1.515 -0.844558
807.01171875 2.49779 1.59 -0.90779
807.76171875 2.453656 1.536758 -0.916898
808.484375 2.3061220000000002 1.396122 -0.91
809.21484375 2.253072 1.415 -0.838072
809.9140625 2.418998 1.559977 -0.859021
810.62109375 2.49763 1.5638 -0.93383
811.33984375 2.188683 1.333663 -0.85502
812.0546875 2.175 1.355 -0.82
812.76953125 2.354888 1.5 -0.854888
813.5390625 2.45646 1.559888 -0.896572
814.2890625 2.486975 1.544905 -0.94207
815.0 2.199725 1.28 -0.919725
815.70703125 2.107414 1.322414 -0.785
816.40234375 2.306823 1.469687 -0.837136
817.1171875 2.412946 1.548161 -0.864785
817.83203125 2.511581 1.581581 -0.93
818.5625 2.213543 1.2865 -0.927043
819.2890625 2.189933 1.329962 -0.859971
820.05859375 2.344916 1.414916 -0.93
820.8046875 2.480782 1.507341 -0.973441
821.50390625 2.5460339999999997 1.481422 -1.064612
822.1875 2.293191 1.265312 -1.027879
822.88671875 2.285784 1.309272 -0.976512
823.60546875 2.429697 1.454979 -0.974718
824.34375 2.554447 1.524453 -1.029994
825.07421875 2.503703 1.455943 -1.04776
825.80859375 2.30993 1.34493 -0.965
826.58203125 2.444587 1.469603 -0.974984
827.30078125 2.508045 1.539188 -0.968857
827.98828125 2.642907 1.57117 -1.071737
828.68359375 2.485482 1.459559 -1.025923
829.38671875 2.309265 1.379406 -0.929859
830.1171875 2.413456 1.508456 -0.905
830.8671875 2.519802 1.579802 -0.94
831.60546875 2.54841 1.569979 -0.978431
832.3359375 2.579763 1.574763 -1.005
833.09765625 2.418634 1.48 -0.938634
833.80078125 2.491276 1.572126 -0.91915
834.484375 2.5287129999999998 1.60636 -0.922353
835.171875 2.5464070000000003 1.584572 -0.961835
835.875 2.41116 1.495 -0.91616
836.60546875 2.494784 1.584946 -0.909838
837.37109375 2.520101 1.57776 -0.942341
838.109375 2.529078 1.55 -0.979078
838.8203125 2.412206 1.424416 -0.98779
839.55078125 2.404141 1.445 -0.959141
840.25390625 2.510649 1.525719 -0.98493
840.9375 2.449525 1.497391 -0.952134
841.6328125 2.534491 1.509561 -1.02493
842.35546875 2.515788 1.454954 -1.060834
843.109375 2.328202 1.36 -0.968202
843.8828125 2.422327 1.455 -0.967327
844.6171875 2.4748 1.4898 -0.985
845.3203125 2.490728 1.480728 -1.01
846.7421875 2.4045810000000003 1.344783 -1.059798
847.44921875 2.354011 1.37 -0.984011
848.15625 2.424848 1.445 -0.979848
848.90625 2.4291400000000003 1.429167 -0.999973
849.66796875 2.444463 1.406737 -1.037726
850.421875 2.324669 1.309712 -1.014957
851.15625 2.35432 1.394531 -0.959789
851.8515625 2.364847 1.419847 -0.945
852.5703125 2.372025 1.452025 -0.92
853.28515625 2.443653 1.472699 -0.970954
854.0 2.314491 1.375 -0.939491
854.734375 2.2715520000000002 1.389199 -0.882353
855.48828125 2.4156519999999997 1.504719 -0.910933
856.24609375 2.423391 1.496489 -0.926902
857.0 2.313333 1.42 -0.893333
857.703125 2.274895 1.394895 -0.88
858.390625 2.3400950000000003 1.462754 -0.877341
859.10546875 2.4099269999999997 1.514954 -0.894973
859.82421875 2.505 1.59 -0.915
860.5546875 2.411344 1.477267 -0.934077
861.30078125 2.183983 1.304002 -0.879981
862.04296875 2.3039959999999997 1.443668 -0.860328
862.78515625 2.430064 1.54358 -0.886484
863.51953125 2.5619110000000003 1.624978 -0.936933
864.2109375 2.373701 1.465537 -0.908164
864.890625 2.202754 1.342754 -0.86
865.60546875 2.388555 1.464945 -0.92361
866.34765625 2.559423 1.52 -1.039423
867.078125 2.56 1.47 -1.09
867.8046875 2.205954 1.159451 -1.046503
868.55078125 2.1234409999999997 1.18 -0.943441
869.26171875 2.312971 1.367847 -0.945124
869.98046875 2.494219 1.495 -0.999219
870.66015625 2.632366 1.554323 -1.078043
871.3359375 2.346738 1.309729 -1.037009
872.0703125 2.1487249999999998 1.203725 -0.945
872.82421875 2.353371 1.420798 -0.932573
873.5625 2.475891 1.496786 -0.979105
874.2890625 2.6093390000000003 1.604937 -1.004402
875.01953125 2.469945 1.494945 -0.975
875.73046875 2.214954 1.339954 -0.875
876.44140625 2.336867 1.499497 -0.83737
877.13671875 2.456874 1.62973 -0.827144
877.828125 2.489431 1.644854 -0.844577
878.5859375 2.58915 1.655 -0.93415
879.328125 2.301066 1.401066 -0.9
880.07421875 2.252978 1.403472 -0.849506
880.80859375 2.37815 1.474242 -0.903908
881.51953125 2.458813 1.549983 -0.90883
882.234375 2.544888 1.585 -0.959888
882.95703125 2.4039960000000002 1.414774 -0.989222
883.66015625 2.257662 1.347662 -0.91
884.375 2.3899999999999997 1.45 -0.94
885.15234375 2.4592799999999997 1.46 -0.99928
885.90234375 2.5013009999999998 1.489237 -1.012064
886.6328125 2.52384 1.50884 -1.015
887.35546875 2.341509 1.375 -0.966509
888.05078125 2.371836 1.45 -0.921836
888.76171875 2.483317 1.553445 -0.929872
889.484375 2.505836 1.565117 -0.940719
890.19140625 2.529171 1.524171 -1.005
890.921875 2.464438 1.504469 -0.959969
891.703125 2.479812 1.499812 -0.98
892.4375 2.5050090000000003 1.49 -1.015009
893.140625 2.604317 1.544245 -1.060072
893.83984375 2.467689 1.448431 -1.019258
894.53125 2.390626 1.454453 -0.936173
895.23828125 2.478007 1.473254 -1.004753
895.95703125 2.503391 1.488755 -1.014636
896.6796875 2.512481 1.477481 -1.035
897.41015625 2.43848 1.484339 -0.954141
898.18359375 2.365637 1.470637 -0.895
898.91015625 2.365875 1.480875 -0.885
899.59375 2.478915 1.536906 -0.942009
900.28515625 2.4575430000000003 1.5276 -0.929943
900.96484375 2.394971 1.47 -0.924971
901.6796875 2.260316 1.401898 -0.858418
902.39453125 2.3789949999999997 1.464993 -0.914002
903.125 2.39494 1.51 -0.88494
903.859375 2.49 1.55 -0.94
904.6171875 2.384168 1.459753 -0.924415
905.3359375 2.336987 1.404975 -0.932012
906.01953125 2.36042 1.44542 -0.915
906.7109375 2.419828 1.474857 -0.944971
907.40234375 2.4491319999999996 1.51917 -0.929962
908.125 2.45625 1.475 -0.98125
908.87109375 2.325 1.375 -0.95
909.60546875 2.369843 1.429994 -0.939849
910.3359375 2.412966 1.440544 -0.972422
911.078125 2.504366 1.439561 -1.064805
911.77734375 2.349403 1.311255 -1.038148
912.44921875 2.380614 1.401929 -0.978685
913.1328125 2.493088 1.478088 -1.015
913.82421875 2.567272 1.527272 -1.04
914.5546875 2.434272 1.43 -1.004272
915.3046875 2.451292 1.54207 -0.909222
916.02734375 2.5449640000000002 1.624068 -0.920896
916.7421875 2.623387 1.648724 -0.974663
917.328125 2.186897 0.628849 -1.558048
918.17578125 2.364929 1.43 -0.934929
918.83984375 2.437762 1.530155 -0.907607
919.5390625 2.575496 1.630496 -0.945
920.2421875 2.57741 1.607948 -0.969462
920.9765625 2.318851 1.376321 -0.94253
921.72265625 2.205 1.4 -0.805
922.453125 2.3822929999999998 1.516012 -0.866281
923.14453125 2.524512 1.599971 -0.924541
923.8515625 2.569591 1.598505 -0.971086
924.5390625 2.304717 1.34488 -0.959837
925.22265625 2.148115 1.343115 -0.805
925.90234375 2.374352 1.519428 -0.854924
926.6171875 2.492161 1.582161 -0.91
927.35546875 2.554938 1.574938 -0.98
928.10546875 2.219932 1.27997 -0.939962
928.828125 2.35754 1.444908 -0.912632
929.51953125 2.432754 1.534964 -0.89779
930.21875 2.517903 1.584219 -0.933684
930.91015625 2.467793 1.47358 -0.994213
931.60546875 2.138524 1.244994 -0.89353
932.15625 1.934386 0.43809 -1.496296
933.0390625 2.479718 1.529718 -0.95
933.76171875 2.496333 1.504308 -0.992025
934.515625 2.583688 1.54543 -1.038258
935.21484375 2.254847 1.264847 -0.99
935.8984375 2.225933 1.355 -0.870933
936.59375 2.42165 1.49 -0.93165
937.30859375 2.539745 1.569745 -0.97
938.0078125 2.599943 1.6 -0.999943
938.7109375 2.5272509999999997 1.484883 -1.042368
939.453125 2.294111 1.355693 -0.938418
940.18359375 2.4523200000000003 1.494877 -0.957443
940.921875 2.514504 1.544325 -0.970179
941.625 2.6095810000000004 1.6 -1.009581
942.30859375 2.450853 1.475853 -0.975
943.0078125 2.4246469999999998 1.506522 -0.918125
943.73828125 2.493445 1.553445 -0.94
944.45703125 2.540798 1.560954 -0.979844
945.17578125 2.481211 1.491525 -0.989686
945.9296875 2.388072 1.434456 -0.953616
946.6640625 2.47481 1.50981 -0.965
947.38671875 2.479462 1.5 -0.979462
948.09375 2.4868940000000004 1.551894 -0.935
948.78515625 2.460688 1.510834 -0.949854
949.48046875 2.3449869999999997 1.459987 -0.885
950.23046875 2.429672 1.550322 -0.87935
950.9765625 2.4513409999999998 1.543864 -0.907477
951.70703125 2.463857 1.53 -0.933857
952.4453125 2.49057 1.53778 -0.95279
953.1640625 2.370326 1.460551 -0.909775
953.88671875 2.4150650000000002 1.511614 -0.903451
954.59375 2.435658 1.535658 -0.9
955.2890625 2.49975 1.529922 -0.969828
955.9921875 2.392262 1.449301 -0.942961
956.76171875 2.443486 1.515 -0.928486
957.515625 2.50087 1.541582 -0.959288
958.2421875 2.5325729999999997 1.577573 -0.955
958.96875 2.468214 1.548214 -0.92
959.671875 2.329997 1.400215 -0.929782
960.39453125 2.429783 1.475 -0.954783
961.09375 2.49961 1.498355 -1.001255
961.796875 2.52298 1.534908 -0.988072
962.5234375 2.5633470000000003 1.521211 -1.042136
963.30859375 2.417721 1.464338 -0.953383
964.05859375 2.479335 1.559568 -0.919767
964.77734375 2.489491 1.599491 -0.89
965.4921875 2.5638300000000003 1.58 -0.98383
966.1796875 2.5022 1.497481 -1.004719
966.89453125 2.3596139999999997 1.43996 -0.919654
967.59375 2.433774 1.53 -0.903774
968.296875 2.508346 1.599572 -0.908774
969.0390625 2.568505 1.63 -0.938505
969.80859375 2.434002 1.51 -0.924002
970.546875 2.343702 1.474794 -0.868908
971.25 2.412921 1.53 -0.882921
971.95703125 2.516652 1.601869 -0.914783
972.640625 2.4129389999999997 1.449023 -0.963916
973.3515625 2.095846 1.167139 -0.928707
974.06640625 2.245519 1.33994 -0.905579
974.80078125 2.400699 1.462407 -0.938292
975.54296875 2.468889 1.505 -0.963889
976.3125 2.494573 1.437 -1.057573
977.046875 2.134847 1.145 -0.989847
977.7421875 2.153768 1.239258 -0.91451
978.44140625 2.329946 1.384946 -0.945
979.140625 2.473008 1.508008 -0.965
979.86328125 2.574408 1.526681 -1.047727
980.58984375 2.289844 1.25 -1.039844
981.328125 2.165305 1.223802 -0.941503
982.078125 2.389734 1.429734 -0.96
982.83984375 2.5201979999999997 1.530241 -0.989957
983.5546875 2.609089 1.58384 -1.025249
984.234375 2.470607 1.491309 -0.979298
984.9375 2.544082 1.559375 -0.984707
985.65234375 2.595752 1.571162 -1.02459
986.39453125 2.644375 1.595 -1.049375
987.12890625 2.478816 1.425274 -1.053542
987.85546875 2.261845 1.294976 -0.966869
988.61328125 2.3838619999999997 1.413862 -0.97
989.3359375 2.469516 1.519887 -0.949629
990.02734375 2.544561 1.57 -0.974561
990.70703125 2.288368 1.358368 -0.93
991.40625 2.246953 1.406953 -0.84
992.12109375 2.37 1.495 -0.875
992.87890625 2.41183 1.530997 -0.880833
993.625 2.479943 1.56 -0.919943
994.34765625 2.310002 1.387563 -0.922439
995.109375 2.359629 1.464629 -0.895
995.828125 2.393993 1.509888 -0.884105
996.52734375 2.392043 1.509857 -0.882186
997.23046875 2.454205 1.50499 -0.949215
997.94921875 2.238848 1.335 -0.903848
998.703125 2.274928 1.405 -0.869928
999.484375 2.3172699999999997 1.454915 -0.862355
1000.234375 2.3777660000000003 1.481016 -0.89675
1000.953125 2.4050000000000002 1.47 -0.935
1001.69140625 2.29495 1.41495 -0.88
1002.40625 2.306065 1.458799 -0.847266
1003.09765625 2.369687 1.484687 -0.885
1003.80078125 2.42451 1.45951 -0.965
1004.52734375 2.3791279999999997 1.399355 -0.979773
1005.296875 2.39966 1.424689 -0.974971
1006.0625 2.406484 1.4175 -0.988984
1006.80078125 2.417097 1.438174 -0.978923
1007.51171875 2.465612 1.489355 -0.976257
1008.25 2.479429 1.495 -0.984429
1008.94921875 2.4351890000000003 1.464533 -0.970656
1009.6484375 2.3656129999999997 1.431052 -0.934561
1010.375 2.394876 1.51 -0.884876
1011.109375 2.4487389999999998 1.522884 -0.925855
1011.8671875 2.472094 1.509753 -0.962341
1012.61328125 2.3993539999999998 1.449438 -0.949916
1013.328125 2.299583 1.434583 -0.865
1014.015625 2.415898 1.515 -0.900898
1014.7421875 2.416983 1.533781 -0.883202
1015.4296875 2.485558 1.533832 -0.951726
1016.125 2.2619439999999997 1.345 -0.916944
1016.86328125 2.2894639999999997 1.409698 -0.879766
1017.59765625 2.4091180000000003 1.499465 -0.909653
1018.34375 2.433134 1.508359 -0.924775
1019.078125 2.439219 1.459734 -0.979485
1019.78125 2.223964 1.274107 -0.949857
1020.4609375 2.27436 1.359973 -0.914387
1021.171875 2.375683 1.415693 -0.95999
1021.87890625 2.4969219999999996 1.482006 -1.014916
1022.58984375 2.357355 1.322355 -1.035
1023.3125 2.144 1.164 -0.98
1024.05859375 2.2800000000000002 1.355 -0.925
1024.796875 2.449905 1.459905 -0.99
1025.53125 2.5046600000000003 1.50466 -1.0
1026.21484375 2.457682 1.412682 -1.045
1026.8984375 2.2625710000000003 1.284423 -0.978148
1027.6171875 2.4383850000000002 1.416452 -1.021933
1028.359375 2.54 1.495 -1.045
1029.09765625 2.6039779999999997 1.534306 -1.069672
1029.81640625 2.269382 1.274382 -0.995
1030.48828125 1.9722879999999998 0.457288 -1.515
1031.296875 2.513517 1.589689 -0.923828
1032.00390625 2.55868 1.578848 -0.979832
1032.6953125 2.6016079999999997 1.602245 -0.999363
1033.3828125 2.379491 1.419545 -0.959946
1034.109375 2.359876 1.45 -0.909876
1034.8515625 2.535494 1.608141 -0.927353
1035.59765625 2.63578 1.692245 -0.943535
1036.3203125 2.70707 1.70707 -1.0
1037.05078125 2.47669 1.49173 -0.98496
1037.76171875 2.276503 1.386503 -0.89
1038.46875 2.455781 1.571953 -0.883828
1039.1015625 1.236868 0.521619 -0.715249
1039.84765625 2.652216 1.588971 -1.063245
1040.578125 2.6028029999999998 1.47 -1.132803
1041.33984375 2.306832 1.266832 -1.04
1042.08203125 2.312444 1.372444 -0.94
1042.80078125 2.4436720000000003 1.475 -0.968672
1043.515625 2.554922 1.554922 -1.0
1044.203125 2.5887089999999997 1.574203 -1.014506
1044.91015625 2.407286 1.417477 -0.989809
1045.6015625 2.256461 1.34732 -0.909141
1046.30078125 2.414268 1.479306 -0.934962
1047.046875 2.4642239999999997 1.514224 -0.95
1047.81640625 2.5246880000000003 1.539949 -0.984739
1048.55078125 2.344175 1.399253 -0.944922
1049.25390625 2.346265 1.451265 -0.895
1049.9609375 2.359023 1.46 -0.899023
1050.64453125 2.44713 1.509986 -0.937144
1051.34765625 2.456308 1.509402 -0.946906
1052.0546875 2.250028 1.362144 -0.887884
1052.76953125 2.312172 1.449986 -0.862186
1053.51953125 2.372726 1.509992 -0.862734
1054.29296875 2.424169 1.514169 -0.91
1055.01171875 2.432882 1.488006 -0.944876
1055.69921875 2.294108 1.359108 -0.935
1056.39453125 2.343148 1.41 -0.933148
1057.09375 2.396962 1.417012 -0.97995
1057.8046875 2.378297 1.389176 -0.989121
1058.53125 2.420135 1.434271 -0.985864
1059.109375 2.105793 0.53615 -1.569643
1060.02734375 2.365917 1.403853 -0.962064
1060.78515625 2.3758909999999998 1.406637 -0.969254
1061.515625 2.394922 1.464922 -0.93
1062.203125 2.422605 1.464182 -0.958423
1062.8984375 2.339661 1.42 -0.919661
1063.61328125 2.400913 1.467765 -0.933148
1064.34765625 2.378161 1.451255 -0.926906
1065.08203125 2.431452 1.498318 -0.933134
1065.8125 2.44532 1.465 -0.98032
1066.5546875 2.383001 1.383779 -0.999222
1067.29296875 2.298251 1.344064 -0.954187
1067.98828125 2.38511 1.439719 -0.945391
1068.671875 2.464798 1.474798 -0.99
1069.3671875 2.495468 1.495 -1.000468
1070.078125 2.359783 1.409783 -0.95
1070.8359375 2.309449 1.404918 -0.904531
1071.578125 2.454636 1.525 -0.929636
1072.296875 2.4897910000000003 1.534798 -0.954993
1073.03515625 2.56356 1.58356 -0.98
1073.74609375 2.44176 1.509585 -0.932175
1074.43359375 2.319575 1.449946 -0.869629
1075.10546875 2.391974 1.519987 -0.871987
1075.8125 2.5562959999999997 1.618542 -0.937754
1076.53125 2.573925 1.579219 -0.994706
1077.28515625 2.494964 1.472635 -1.022329
1078.01953125 2.3039940000000003 1.404975 -0.899019
1078.73046875 2.479926 1.544955 -0.934971
1079.4609375 2.553857 1.59 -0.963857
1080.1640625 2.514271 1.539946 -0.974325
1080.85546875 2.39499 1.449955 -0.945035
1081.54296875 2.409016 1.535 -0.874016
1082.265625 2.531964 1.612676 -0.919288
1083.015625 2.63041 1.653154 -0.977256
1083.78125 2.4313830000000003 1.473008 -0.958375
1084.515625 2.3386620000000002 1.439171 -0.899491
1085.21875 2.443161 1.511906 -0.931255
1085.9375 2.533644 1.555 -0.978644
1086.63671875 2.4551610000000004 1.445 -1.010161
1087.3359375 2.30856 1.350845 -0.957715
1088.0390625 2.366838 1.469885 -0.896953
1088.6484375 2.045839 0.530628 -1.515211
1089.51953125 2.533399 1.519759 -1.01364
1090.2734375 2.417009 1.397009 -1.02
1090.99609375 2.243128 1.35 -0.893128
1091.6796875 2.369004 1.49 -0.879004
1092.390625 2.45804 1.563164 -0.894876
1093.09765625 2.519775 1.594046 -0.925729
1093.796875 2.3041419999999997 1.394661 -0.909481
1094.5 2.105 1.23 -0.875
1095.24609375 2.202961 1.378195 -0.824766
1095.84375 1.984222 0.539265 -1.444957
1096.74609375 2.456579 1.516937 -0.939642
1097.44140625 2.349949 1.404949 -0.945
1098.12890625 2.133887 1.274011 -0.859876
1098.84765625 2.118117 1.288773 -0.829344
1099.5546875 2.255135 1.407221 -0.847914
1100.26171875 2.359851 1.476726 -0.883125
1100.984375 2.4125680000000003 1.4971 -0.915468
1101.72265625 2.254591 1.354591 -0.9
1102.46484375 2.078043 1.223043 -0.855
1103.203125 2.208647 1.394542 -0.814105
1103.90234375 2.32457 1.485 -0.83957
1104.58203125 2.332096 1.483424 -0.848672
1105.29296875 2.344481 1.425 -0.919481
1106.015625 2.108786 1.200438 -0.908348
1106.65625 1.968935 0.449664 -1.519271
1107.48828125 2.294511 1.413499 -0.881012
1108.23046875 2.292771 1.384987 -0.907784
1108.96875 2.2399 1.328738 -0.911162
1109.6875 2.088571 1.223571 -0.865
1110.3828125 2.238542 1.358789 -0.879753
1111.06640625 2.276488 1.349683 -0.926805
1111.77734375 2.31 1.36 -0.95
1112.515625 2.315841 1.31415 -1.001691
1113.265625 2.149687 1.217754 -0.931933
1113.9921875 2.260722 1.349789 -0.910933
1114.72265625 2.293431 1.364344 -0.929087
1115.4453125 2.365393 1.365 -1.000393
1116.16015625 2.254968 1.269312 -0.985656
1116.85546875 2.21 1.295 -0.915
1117.54296875 2.313543 1.381649 -0.931894
1118.2734375 2.362394 1.438144 -0.92425
1119.03125 2.3680209999999997 1.424 -0.944021
1119.76953125 2.439839 1.425249 -1.01459
1120.4921875 2.2094199999999997 1.36442 -0.845
1121.20703125 2.318785 1.483785 -0.835
1121.8984375 2.370969 1.521045 -0.849924
1122.6015625 2.460652 1.486437 -0.974215
1123.296875 2.462547 1.43459 -1.027957
1123.9921875 2.359531 1.33 -1.029531
1124.7265625 2.304011 1.359067 -0.944944
1125.50390625 2.414136 1.458119 -0.956017
1126.234375 2.492266 1.48 -1.012266
1126.94140625 2.521782 1.524888 -0.996894
1127.6484375 2.4492770000000004 1.438684 -1.010593
1128.328125 2.338593 1.35957 -0.979023
1129.03515625 2.447216 1.457646 -0.98957
1129.7421875 2.478958 1.458958 -1.02
1130.4609375 2.5146439999999997 1.490422 -1.024222
1131.1875 2.6065440000000004 1.495 -1.111544
1131.96484375 2.391985 1.363301 -1.028684
1132.69921875 2.416113 1.448348 -0.967765
1133.21875 2.1558100000000002 0.557629 -1.598181
1134.08984375 2.5936120000000003 1.578634 -1.014978
1134.7734375 2.571982 1.517607 -1.054375
1135.5 2.364832 1.425 -0.939832
1136.22265625 2.4298070000000003 1.505328 -0.924479
1136.96875 2.547812 1.562812 -0.985
1137.703125 2.578721 1.58 -0.998721
1138.4765625 2.652784 1.6 -1.052784
1139.20703125 2.518418 1.475 -1.043418
1139.890625 2.416119 1.466943 -0.949176
1140.5859375 2.519908 1.589946 -0.929962
1141.28515625 2.632723 1.682723 -0.95
1142.0078125 2.611545 1.591875 -1.01967
1143.48828125 2.488303 1.473303 -1.015
1144.23046875 2.549983 1.494983 -1.055
1145.00390625 2.635769 1.598088 -1.037681
1145.703125 2.724006 1.649734 -1.074272
1146.3828125 2.544216 1.544216 -1.0
1147.08203125 2.526806 1.58687 -0.939936
1147.78125 2.601522 1.618738 -0.982784
1148.51953125 2.6847060000000003 1.634972 -1.049734
1149.2578125 2.540223 1.483705 -1.056518
1149.984375 2.401117 1.442793 -0.958324
1150.71875 2.536769 1.538309 -0.99846
1151.4609375 2.634619 1.554952 -1.079667
1152.14453125 2.4653400000000003 1.444957 -1.020383
1152.8203125 2.472566 1.54 -0.932566
1153.51171875 2.536898 1.545 -0.991898
1154.2109375 2.5599999999999996 1.505 -1.055
1154.953125 2.408705 1.354447 -1.054258
1155.6953125 2.4066590000000003 1.437391 -0.969268
1156.421875 2.50443 1.504447 -0.999983
1157.1328125 2.5472840000000003 1.517408 -1.029876
1157.85546875 2.338375 1.375 -0.963375
1158.546875 2.289161 1.38457 -0.904591
1159.22265625 2.433364 1.478773 -0.954591
1159.91796875 2.477616 1.495391 -0.982225
1160.62890625 2.405599 1.395902 -1.009697
1161.38671875 2.256827 1.316827 -0.94
1162.125 2.278032 1.43 -0.848032
1162.83984375 2.382177 1.507177 -0.875
1163.5390625 2.4385310000000002 1.5 -0.938531
1164.25390625 2.420691 1.465761 -0.95493
1164.94140625 2.258833 1.385 -0.873833
1165.62109375 2.3449999999999998 1.48 -0.865
1166.3203125 2.448848 1.53 -0.918848
1167.046875 2.489839 1.529854 -0.959985
1168.53515625 2.264867 1.3826 -0.882267
1169.25 2.317534 1.44 -0.877534
1169.95703125 2.407007 1.499507 -0.9075
1170.6796875 2.445115 1.500728 -0.944387
1171.375 2.322267 1.38 -0.942267
1172.0703125 2.236485 1.423725 -0.81276
1172.8046875 2.372451 1.528725 -0.843726
1173.53515625 2.463424 1.53358 -0.929844
1174.29296875 2.436171 1.458735 -0.977436
1175.01171875 2.2633739999999998 1.331853 -0.931521
1175.70703125 2.3528149999999997 1.493148 -0.859667
1176.3984375 2.4088890000000003 1.563889 -0.845
1177.1171875 2.488964 1.559011 -0.929953
1177.81640625 2.3229509999999998 1.4 -0.922951
1178.5234375 2.294752 1.47342 -0.821332
1179.26953125 2.448022 1.53994 -0.908082
1179.99609375 2.4651680000000002 1.530415 -0.934753
1180.73828125 2.362933 1.403691 -0.959242
1181.45703125 2.19161 1.293782 -0.897828
1182.1484375 2.267892 1.385 -0.882892
1182.828125 2.379374 1.44457 -0.934804
1183.55859375 2.453946 1.475 -0.978946
1184.28515625 2.4671060000000002 1.445 -1.022106
1185.0 2.2491760000000003 1.32 -0.929176
1185.7421875 2.3361520000000002 1.447257 -0.888895
1186.47265625 2.448655 1.549046 -0.899609
1187.203125 2.5134410000000003 1.58 -0.933441
1187.8984375 2.472963 1.473505 -0.999458
1188.5859375 2.359886 1.429886 -0.93
1189.28125 2.409971 1.52 -0.889971
1190.01953125 2.55959 1.625 -0.93459
1190.75 2.5935 1.635 -0.9585
1191.4765625 2.402728 1.468474 -0.934254
1192.21484375 2.382611 1.494151 -0.88846
1192.9375 2.515441 1.608636 -0.906805
1193.65625 2.621124 1.658594 -0.96253
1194.33984375 2.549327 1.574298 -0.975029
1195.02734375 2.421519 1.504809 -0.91671
1195.72265625 2.493426 1.535 -0.958426
1196.4765625 2.579594 1.555 -1.024594
1197.20703125 2.589629 1.575 -1.014629
1197.92578125 2.647341 1.58558 -1.061761
1198.65234375 2.508577 1.453804 -1.054773
1199.3515625 2.3996060000000003 1.484606 -0.915
1200.05859375 2.50251 1.589215 -0.913295
1200.7578125 2.5465 1.62 -0.9265
1201.4453125 2.523352 1.543352 -0.98
1202.140625 2.34 1.365 -0.975
1202.90625 2.33375 1.439219 -0.894531
1203.65234375 2.458505 1.499182 -0.959323
1204.37109375 2.445442 1.51237 -0.933072
1205.08984375 2.529826 1.529312 -1.000514
1205.78515625 2.342413 1.377593 -0.96482
1206.4921875 2.354534 1.449534 -0.905
1207.2109375 2.414922 1.505 -0.909922
1207.91796875 2.456419 1.491798 -0.964621
1208.62109375 2.442732 1.435759 -1.006973
1209.390625 2.224152 1.332314 -0.891838
1210.14453125 2.379469 1.479946 -0.899523
1210.86328125 2.441672 1.521726 -0.919946
1211.5546875 2.435015 1.460317 -0.974698
1212.2578125 2.298131 1.379798 -0.918333
1212.9609375 2.429094 1.449953 -0.979141
1213.6796875 2.452245 1.477267 -0.974978
1214.390625 2.365255 1.398121 -0.967134
1215.11328125 2.165042 1.268521 -0.896521
1215.875 2.31493 1.42 -0.89493
1216.6171875 2.336697 1.44 -0.896697
1217.328125 2.444876 1.484876 -0.96
1218.015625 2.2991409999999997 1.329141 -0.97
1218.7109375 2.209258 1.295 -0.914258
1219.421875 2.2977469999999998 1.399895 -0.897852
1220.15625 2.402523 1.464205 -0.938318
1220.875 2.394581 1.42 -0.974581
1221.60546875 2.199968 1.339994 -0.859974
1222.359375 2.310468 1.42 -0.890468
1223.1015625 2.341548 1.428245 -0.913303
1223.8046875 2.41 1.41 -1.0
1224.48828125 2.199392 1.259723 -0.939669
1225.1875 2.210227 1.330227 -0.88
1225.90625 2.304932 1.37 -0.934932
1226.65625 2.418485 1.444205 -0.97428
1227.390625 2.310663 1.346106 -0.964557
1228.1171875 2.138146 1.319506 -0.81864
1228.859375 2.29977 1.459077 -0.840693
1229.5859375 2.35956 1.439924 -0.919636
1230.26953125 2.409459 1.410283 -0.999176
1230.94140625 2.289681 1.249681 -1.04
1231.64453125 2.162312 1.259971 -0.902341
1232.359375 2.323957 1.389004 -0.934953
1233.1171875 2.417536 1.449802 -0.967734
1233.8359375 2.481628 1.434778 -1.04685
1234.55078125 2.228319 1.279462 -0.948857
1235.29296875 2.29 1.375 -0.915
1236.0078125 2.478237 1.4948 -0.983437
1236.69921875 2.504702 1.493925 -1.010777
1237.37890625 2.437278 1.422951 -1.014327
1238.09765625 2.267984 1.348688 -0.919296
1238.83984375 2.392682 1.462682 -0.93
1239.60546875 2.514787 1.474986 -1.039801
1240.3359375 2.621969 1.534869 -1.0871
1241.04296875 2.499775 1.395 -1.104775
1241.76171875 2.327197 1.298161 -1.029036
1242.46875 2.472949 1.498173 -0.974776
1243.16015625 2.564527 1.559565 -1.004962
1243.8515625 2.6441280000000003 1.557966 -1.086162
1244.5703125 2.516267 1.411267 -1.105
1245.32421875 2.403381 1.364541 -1.03884
1246.08984375 2.5880270000000003 1.498043 -1.089984
1246.8125 2.6016880000000002 1.473125 -1.128563
1247.5078125 2.7033329999999998 1.51 -1.193333
1248.23046875 2.502704 1.364971 -1.137733
1248.93359375 2.445701 1.425701 -1.02
1249.6328125 2.601571 1.54 -1.061571
1250.33984375 2.7077090000000004 1.620238 -1.087471
1251.07421875 2.733749 1.625798 -1.107951
1251.8203125 2.5886880000000003 1.478688 -1.11
1252.58203125 2.4235119999999997 1.408512 -1.015
1253.29296875 2.6270879999999996 1.568271 -1.058817
1253.96875 2.644205 1.619205 -1.025
1254.68359375 2.76 1.655 -1.105
1255.37890625 2.6303900000000002 1.530761 -1.099629
1256.08203125 2.6029269999999998 1.627927 -0.975
1256.80859375 2.68787 1.74 -0.94787
1257.5546875 2.718258 1.7788 -0.939458
1258.30859375 2.726887 1.65994 -1.066947
1259.05078125 2.474245 1.494253 -0.979992
1259.7578125 2.525 1.645 -0.88
1260.44140625 2.592963 1.72493 -0.868033
1261.16796875 2.646931 1.7634 -0.883531
1261.875 2.549779 1.63 -0.919779
1262.58984375 2.437801 1.60253 -0.835271
1263.32421875 2.510383 1.673448 -0.836935
1264.0703125 2.530152 1.675152 -0.855
1264.81640625 2.525124 1.600124 -0.925
1265.52734375 2.372477 1.454687 -0.91779
1266.21875 2.407586 1.5126 -0.894986
1266.90234375 2.438558 1.523614 -0.914944
1267.625 2.53728 1.52 -1.01728
1268.34375 2.3827369999999997 1.348309 -1.034428
1269.078125 2.28009 1.31901 -0.96108
1269.80859375 2.358013 1.404859 -0.953154
1270.53125 2.41 1.445 -0.965
1271.26171875 2.446901 1.419574 -1.027327
1271.96875 2.284901 1.289635 -0.995266
1272.65234375 2.284485 1.358552 -0.925933
1273.3359375 2.3993539999999998 1.474361 -0.924993
1274.07421875 2.4432799999999997 1.515 -0.92828
1274.8046875 2.399686 1.475 -0.924686
1275.5234375 2.2406449999999998 1.358935 -0.88171
1276.2578125 2.233345 1.410923 -0.822422
1276.97265625 2.33846 1.49 -0.84846
1277.6875 2.412167 1.527167 -0.885
1278.38671875 2.450052 1.551614 -0.898438
1279.0703125 2.299683 1.459683 -0.84
1279.7578125 2.435493 1.554792 -0.880701
1280.51953125 2.501113 1.614994 -0.886119
1281.2578125 2.509621 1.584804 -0.924817
1281.9765625 2.37753 1.481211 -0.896319
1282.70703125 2.2984 1.4734 -0.825
1283.41015625 2.422102 1.556947 -0.865155
1284.11328125 2.4506609999999998 1.564415 -0.886246
1284.81640625 2.50549 1.520701 -0.984789
1285.51171875 2.354603 1.469667 -0.884936
1286.20703125 2.427592 1.547592 -0.88
1286.95703125 2.486248 1.522444 -0.963804
1287.703125 2.343948 1.384561 -0.959387
1288.42578125 2.361542 1.49155 -0.869992
1289.1328125 2.4549399999999997 1.525 -0.92994
1289.82421875 2.483472 1.488472 -0.995
1290.51953125 2.370385 1.385531 -0.984854
1291.23046875 2.368271 1.44997 -0.918301
1291.9296875 2.45864 1.50864 -0.95
1292.63671875 2.518179 1.486281 -1.031898
1293.38671875 2.4211289999999996 1.343862 -1.077267
1294.12890625 2.290607 1.323107 -0.9675
1294.859375 2.4415620000000002 1.441562 -1.0
1295.54296875 2.568821 1.497937 -1.070884
1296.22265625 2.504485 1.427476 -1.077009
1296.91015625 2.346667 1.347097 -0.99957
1297.625 2.454689 1.455 -0.999689
1298.32421875 2.533002 1.528925 -1.004077
1299.03125 2.573331 1.538 -1.035331
1299.7734375 2.470744 1.457009 -1.013735
1300.53125 2.4473830000000003 1.503214 -0.944169
1301.2421875 2.576959 1.613811 -0.963148
1301.91796875 2.696365 1.670829 -1.025536
1302.60546875 2.5691509999999997 1.565 -1.004151
1303.29296875 2.528416 1.595654 -0.932762
1304.0078125 2.634188 1.624796 -1.009392
1304.73046875 2.68575 1.644897 -1.040853
1305.46484375 2.601057 1.531086 -1.069971
1306.20703125 2.4662879999999996 1.451307 -1.014981
1306.96875 2.525745 1.55 -0.975745
1307.671875 2.591919 1.604561 -0.987358
1308.34765625 2.658697 1.639491 -1.019206
1309.046875 2.580933 1.520933 -1.06
1309.7421875 2.449031 1.449521 -0.99951
1310.4765625 2.46822 1.533908 -0.934312
1311.22265625 2.55375 1.595 -0.95875
1311.95703125 2.612136 1.602136 -1.01
1312.6875 2.50518 1.47125 -1.03393
1313.4375 2.350863 1.3965 -0.954363
1314.140625 2.382505 1.520361 -0.862144
1314.8125 2.4325 1.5525 -0.88
1315.51171875 2.5178730000000002 1.569387 -0.948486
1316.22265625 2.431301 1.451301 -0.98
1316.87109375 2.104835 0.561384 -1.543451
1317.7265625 2.38881 1.481333 -0.907477
1318.45703125 2.399448 1.488368 -0.91108
1319.171875 2.4545570000000003 1.504396 -0.950161
1319.90625 2.38 1.455 -0.925
1320.60546875 2.324381 1.459962 -0.864419
1321.27734375 2.376497 1.454862 -0.921635
1321.98046875 2.43084 1.474987 -0.955853
1322.703125 2.422724 1.40457 -1.018154
1323.4609375 2.287536 1.32981 -0.957726
1324.203125 2.2608550000000003 1.384775 -0.87608
1324.921875 2.388489 1.489661 -0.898828
1325.62109375 2.4640560000000002 1.531789 -0.932267
1326.33984375 2.404992 1.46 -0.944992
1327.02734375 2.208614 1.353614 -0.855
1327.7109375 2.349816 1.509845 -0.839971
1328.42578125 2.412256 1.527256 -0.885
1329.15234375 2.459905 1.545 -0.914905
1329.90625 2.353594 1.438594 -0.915
1330.640625 2.152754 1.302754 -0.85
1331.34375 2.309978 1.436906 -0.873072
1332.0390625 2.426629 1.489754 -0.936875
1332.7578125 2.437313 1.457313 -0.98
1333.45703125 2.339938 1.349938 -0.99
1334.15234375 2.159672 1.294672 -0.865
1334.8828125 2.331783 1.459729 -0.872054
1335.62109375 2.386235 1.483107 -0.903128
1336.36328125 2.462299 1.474707 -0.987592
1337.08984375 2.313009 1.289298 -1.023711
1337.7890625 2.149946 1.209946 -0.94
1338.47265625 2.313147 1.354687 -0.95846
1339.19140625 2.444796 1.474796 -0.97
1339.890625 2.432959 1.423323 -1.009636
1340.59375 2.271731 1.274641 -0.99709
1341.3359375 2.199962 1.269962 -0.93
1342.0625 2.31861 1.36 -0.95861
1342.80859375 2.441586 1.43967 -1.001916
1343.5078125 2.4727259999999998 1.406986 -1.06574
1344.1953125 2.282672 1.277672 -1.005
1344.88671875 2.212241 1.318445 -0.893796
1345.60546875 2.3997669999999998 1.494943 -0.904824
1346.32421875 2.466961 1.552285 -0.914676
1347.03515625 2.478907 1.479254 -0.999653
1347.76171875 2.335 1.375 -0.96
1348.49609375 2.412521 1.502521 -0.91
1349.22265625 2.4873600000000002 1.544809 -0.942551
1349.9140625 2.608155 1.585422 -1.022733
1350.5859375 2.564543 1.504601 -1.059942
1351.27734375 2.3948590000000003 1.384859 -1.01
1352.01171875 2.4897489999999998 1.525 -0.964749
1352.73046875 2.574832 1.615 -0.959832
1353.44140625 2.744803 1.714803 -1.03
1354.171875 2.578283 1.534162 -1.044121
1354.890625 2.4161409999999997 1.452257 -0.963884
1355.609375 2.609141 1.594141 -1.015
1356.3046875 2.7235630000000004 1.683577 -1.039986
1356.984375 2.717031 1.65 -1.067031
1357.671875 2.693849 1.558871 -1.134978
1358.421875 2.495008 1.414798 -1.08021
1359.15625 2.5350349999999997 1.525 -1.010035
1359.875 2.649629 1.57 -1.079629
1360.60546875 2.734953 1.584953 -1.15
1361.3125 2.4975 1.3425 -1.155
1362.01953125 2.3497570000000003 1.319757 -1.03
1362.70703125 2.49557 1.463812 -1.031758
1363.3984375 2.556928 1.525 -1.031928
1364.08984375 2.60058 1.499535 -1.101045
1364.85546875 2.439912 1.35498 -1.084932
1365.6015625 2.489653 1.448144 -1.041509
1366.3203125 2.5097490000000002 1.492375 -1.017374
1367.03515625 2.589219 1.515 -1.074219
1367.7265625 2.4356530000000003 1.426144 -1.009509
1368.4375 2.278584 1.378542 -0.900042
1369.125 2.405 1.515 -0.89
1369.8203125 2.468217 1.558217 -0.91
1370.53125 2.529641 1.539641 -0.99
1371.296875 2.409678 1.429678 -0.98
1372.02734375 2.183593 1.304687 -0.878906
1372.73828125 2.363474 1.493862 -0.869612
1373.44140625 2.414832 1.524832 -0.89
1374.1171875 2.494895 1.55 -0.944895
1374.81640625 2.354745 1.424745 -0.93
1375.51953125 2.294734 1.43 -0.864734
1376.22265625 2.391016 1.5 -0.891016
1376.9453125 2.4008830000000003 1.51384 -0.887043
1377.70703125 2.4428099999999997 1.480414 -0.962396
1378.4375 2.30716 1.338125 -0.969035
1379.14453125 2.347022 1.394968 -0.952054
1379.83984375 2.4177560000000002 1.452762 -0.964994
1380.5234375 2.405 1.46 -0.945
1381.22265625 2.4287270000000003 1.434325 -0.994402
1381.94921875 2.304949 1.34549 -0.959459
1382.671875 2.294909 1.384909 -0.91
1383.390625 2.401134 1.463242 -0.937892
1384.15234375 2.454738 1.539826 -0.914912
1384.87890625 2.4469019999999997 1.497043 -0.949859
1385.578125 2.309766 1.439766 -0.87
1386.2578125 2.40639 1.50139 -0.905
1386.9453125 2.4479059999999997 1.49884 -0.949066
1387.65234375 2.509067 1.494712 -1.014355
1388.39453125 2.397849 1.404952 -0.992897
1389.1328125 2.2844 1.368616 -0.915784
1389.84765625 2.422179 1.464826 -0.957353
1390.6015625 2.506486 1.532852 -0.973634
1391.328125 2.513688 1.564734 -0.948954
1392.01953125 2.4245229999999998 1.535 -0.889523
1392.6875 2.485 1.615 -0.87
1393.3828125 2.598693 1.634028 -0.964665
1394.1015625 2.479765 1.597288 -0.882477
1394.8359375 2.584975 1.665 -0.919975
1395.55859375 2.60747 1.614779 -0.992691
1396.28125 2.474488 1.49457 -0.979918
1397.01171875 2.39 1.52 -0.87
1397.71875 2.5069879999999998 1.633214 -0.873774
1398.40625 2.584319 1.629375 -0.954944
1399.07421875 2.6290829999999996 1.550072 -1.079011
1399.7734375 2.4338930000000003 1.422471 -1.011422
1400.48828125 2.298037 1.433284 -0.864753
1401.2421875 2.471667 1.59 -0.881667
1401.9765625 2.522947 1.628072 -0.894875
1402.703125 2.5839619999999996 1.604542 -0.97942
1403.41796875 2.295241 1.352284 -0.942957
1404.13671875 2.34425 1.474636 -0.869614
1404.83203125 2.4815899999999997 1.55659 -0.925
1405.51171875 2.54994 1.575 -0.97494
1406.2265625 2.409215 1.46 -0.949215
1406.953125 2.101911 1.234654 -0.867257
1407.71484375 2.26174 1.487477 -0.774263
1408.453125 2.424308 1.575 -0.849308
1409.1640625 2.5021769999999997 1.629946 -0.872231
1409.85546875 2.494638 1.579902 -0.914736
1410.5859375 2.249873 1.374889 -0.874984
1411.28515625 2.1951330000000002 1.386026 -0.809107
1411.97265625 2.351673 1.523994 -0.827679
1412.70703125 2.450093 1.575749 -0.874344
1413.44140625 2.509813 1.639813 -0.87
1414.19140625 2.342989 1.474606 -0.868383
1414.921875 2.17922 1.334242 -0.844978
1415.62109375 2.269888 1.495 -0.774888
1416.31640625 2.4220569999999997 1.569683 -0.852374
1417.0390625 2.484 1.605 -0.879
1417.74609375 2.378326 1.496805 -0.881521
1418.4453125 2.15273 1.314535 -0.838195
1419.18359375 2.261199 1.480784 -0.780415
1419.84375 1.829718 0.6475 -1.182218
1420.671875 2.453546 1.594542 -0.859004
1421.3828125 2.386452 1.496452 -0.89
1422.08203125 2.197852 1.364078 -0.833774
1422.78515625 2.2877479999999997 1.452748 -0.835
1423.51171875 2.368437 1.495 -0.873437
1424.23046875 2.429986 1.484986 -0.945
1424.953125 2.404335 1.44 -0.964335
1425.69921875 2.180791 1.292175 -0.888616
1426.43359375 2.309948 1.429948 -0.88
1427.16796875 2.353187 1.445 -0.908187
1427.859375 2.415783 1.438092 -0.977691
1428.5390625 2.306296 1.349343 -0.956953
1429.23828125 2.312829 1.384372 -0.928457
1429.96484375 2.378845 1.447662 -0.931183
1430.6875 2.396544 1.44 -0.956544
1431.4140625 2.32 1.365 -0.955
1432.1484375 2.272355 1.369428 -0.902927
1432.87109375 2.302057 1.446093 -0.855964
1433.58984375 2.407257 1.497551 -0.909706
1434.28125 2.37685 1.491962 -0.884888
1434.94921875 2.434102 1.540254 -0.893848
1435.65625 2.384363 1.479531 -0.904832
1436.3984375 2.3641129999999997 1.517726 -0.846387
1437.1328125 2.4 1.525 -0.875
1437.84765625 2.44882 1.55882 -0.89
1438.58203125 2.453512 1.568512 -0.885
1439.2890625 2.481534 1.559698 -0.921836
1439.98828125 2.386272 1.491272 -0.895
1440.67578125 2.450519 1.549036 -0.901483
1441.3515625 2.478054 1.578908 -0.899146
1442.05859375 2.509629 1.569629 -0.94
1442.80859375 2.53776 1.549531 -0.988229
1443.55078125 2.404002 1.499002 -0.905
1444.26171875 2.503438 1.57 -0.933438
1444.984375 2.505 1.575 -0.93
1445.68359375 2.5938049999999997 1.584943 -1.008862
1446.3828125 2.4341749999999998 1.429239 -1.004936
1447.06640625 2.475546 1.494523 -0.981023
1447.7578125 2.504215 1.509572 -0.994643
1448.484375 2.612422 1.552422 -1.06
1449.2421875 2.542364 1.462693 -1.079671
1449.984375 2.45915 1.40415 -1.055
1450.70703125 2.4306289999999997 1.478368 -0.952261
1451.41796875 2.494623 1.553479 -0.941144
1452.10546875 2.587545 1.589994 -0.997551
1452.80859375 2.489734 1.49 -0.999734
1453.50390625 2.4022490000000003 1.408638 -0.993611
1454.203125 2.454368 1.53491 -0.919458
1454.93359375 2.535 1.59 -0.945
1455.6953125 2.599289 1.604289 -0.995
1456.296875 2.133607 0.524342 -1.609265
1457.1171875 1.83427 0.944521 -0.889749
1457.8046875 1.3669609999999999 0.75728 -0.609681
1458.484375 1.661212 0.904187 -0.757025
1459.18359375 1.889729 1.04 -0.849729
1459.87109375 2.101317 1.135 -0.966317
1460.56640625 2.220065 1.219745 -1.00032
1461.28515625 2.206123 1.266123 -0.94
1462.0390625 2.228738 1.305 -0.923738
1462.75 2.383437 1.395 -0.988437
1463.41796875 2.130358 1.144906 -0.985452
1464.0859375 2.124946 1.209946 -0.915
1464.75390625 2.2343919999999997 1.310954 -0.923438
1465.44140625 2.440083 1.401017 -1.039066
1466.13671875 2.1973700000000003 1.202954 -0.994416
1466.84765625 2.174775 1.219775 -0.955
1467.55078125 2.252892 1.274447 -0.978445
1468.296875 2.285 1.31 -0.975
1469.00390625 2.407888 1.357958 -1.04993
1469.67578125 2.131589 1.211596 -0.919993
1470.33984375 2.095894 1.155901 -0.939993
1471.0 2.2199999999999998 1.23 -0.99
1471.6796875 2.185763 1.29807 -0.887693
1472.3671875 2.178082 1.285 -0.893082
1473.0546875 2.222473 1.202473 -1.02
1473.74609375 2.1590350000000003 1.254035 -0.905
1474.43359375 2.148941 1.150808 -0.998133
1475.13671875 2.168134 1.203134 -0.965
1475.77734375 2.1894530000000003 1.165 -1.024453
1476.39453125 2.288061 1.220249 -1.067812
1476.9921875 2.19273 1.154485 -1.038245
1477.59375 2.198524 1.183594 -1.01493
1478.203125 1.976891 1.034643 -0.942248
1478.8359375 1.8453659999999998 0.985331 -0.860035
1479.5 1.665 0.95 -0.715
1480.18359375 1.869615 1.084832 -0.784783
1480.84765625 2.0339169999999998 1.151282 -0.882635
1481.54296875 2.070467 1.159953 -0.910514
1482.171875 1.973166 1.079447 -0.893719
1482.81640625 2.027104 1.14 -0.887104
1483.4453125 2.126433 1.236433 -0.89
1484.1015625 2.243996 1.301667 -0.942329
1484.7734375 2.334228 1.337009 -0.997219
1485.46484375 2.294428 1.335 -0.959428
1486.14453125 2.204922 1.289922 -0.915
1486.8125 2.171596 1.248571 -0.923025
1487.46875 2.276249 1.284258 -0.991991
1488.15234375 2.406609 1.361218 -1.045391
1488.796875 2.4159800000000002 1.33598 -1.08
1489.4375 2.414844 1.349844 -1.065
1490.109375 2.455394 1.400179 -1.055215
1490.80859375 2.2685969999999998 1.344749 -0.923848
1491.53515625 2.334072 1.35122 -0.982852
1492.26953125 2.489622 1.454993 -1.034629
1492.9609375 2.534778 1.509778 -1.025
1493.62109375 2.59204 1.504932 -1.087108
1494.30078125 2.20021 1.152118 -1.048092
1494.984375 1.9491209999999999 1.059121 -0.89
1495.65625 2.064877 1.15 -0.914877
1496.33203125 2.21 1.27 -0.94
1497.046875 2.324636 1.314663 -1.009973
1497.765625 2.438884 1.365 -1.073884
1498.484375 2.354851 1.28308 -1.071771
1499.18359375 2.17433 1.214577 -0.959753
1499.8515625 2.210095 1.245095 -0.965
1500.53125 2.265859 1.288906 -0.976953
1501.25 2.299859 1.335 -0.964859
1501.95703125 2.3328160000000002 1.37659 -0.956226
1502.66796875 2.4209180000000003 1.472444 -0.948474
1503.4140625 2.456019 1.504974 -0.951045
1504.15234375 2.54393 1.60393 -0.94
1504.91796875 2.5869720000000003 1.613785 -0.973187
1505.6328125 2.351451 1.461575 -0.889876
1506.328125 2.469393 1.574654 -0.894739
1507.05078125 2.5764839999999998 1.662407 -0.914077
1507.796875 2.628188 1.718844 -0.909344
1508.53515625 2.664161 1.717208 -0.946953
1509.28125 2.5 1.56 -0.94
1510.0390625 2.494384 1.569384 -0.925
1510.79296875 2.610277 1.610468 -0.999809
1511.5390625 2.640294 1.604832 -1.035462
1512.25 2.79945 1.67 -1.12945
1512.953125 2.680687 1.589297 -1.09139
1513.69921875 2.633467 1.573982 -1.059485
1514.33984375 2.4590319999999997 0.706267 -1.752765
1515.20703125 2.670562 1.493804 -1.176758
1515.953125 2.201211 1.149629 -1.051582
1516.703125 2.178035 1.234775 -0.94326
1517.4296875 2.361773 1.417267 -0.944506
1518.1484375 2.4699999999999998 1.53 -0.94
1518.83203125 2.534572 1.541564 -0.993008
1519.51953125 2.259729 1.319954 -0.939775
1520.25 2.284491 1.395 -0.889491
1520.98828125 2.412953 1.477953 -0.935
1521.71484375 2.440508 1.505 -0.935508
1522.44921875 2.558274 1.544548 -1.013726
1523.1640625 2.180056 1.275056 -0.905
1523.8828125 2.289517 1.432573 -0.856944
1524.59765625 2.369148 1.494156 -0.874992
1525.296875 2.499368 1.574542 -0.924826
1526.0 2.406274 1.47 -0.936274
1526.76953125 2.183027 1.334984 -0.848043
1527.53125 2.361562 1.492031 -0.869531
1528.26953125 2.409355 1.53 -0.879355
1529.00390625 2.499035 1.619035 -0.88
1529.703125 2.309142 1.424444 -0.884698
1530.43359375 2.185454 1.360701 -0.824753
1531.14453125 2.279355 1.45 -0.829355
1531.85546875 2.413858 1.514994 -0.898864
1532.6015625 2.451671 1.518245 -0.933426
1533.3984375 2.3434559999999998 1.432034 -0.911422
1534.15234375 2.429664 1.514664 -0.915
1534.8828125 2.477533 1.57778 -0.899753
1535.61328125 2.44 1.52 -0.92
1536.31640625 2.344542 1.434542 -0.91
1537.046875 2.435771 1.51 -0.925771
1537.765625 2.4231990000000003 1.508199 -0.915
1538.48828125 2.532888 1.568444 -0.964444
1539.26171875 2.461614 1.476614 -0.985
1540.04296875 2.420391 1.487266 -0.933125
1540.79296875 2.458735 1.518735 -0.94
1541.5078125 2.4749999999999996 1.535 -0.94
1542.2265625 2.575532 1.591007 -0.984525
1542.953125 2.450723 1.509643 -0.94108
1543.69921875 2.4677350000000002 1.50232 -0.965415
1544.4375 2.504458 1.485 -1.019458
1545.1875 2.483594 1.518594 -0.965
1545.984375 2.592924 1.609653 -0.983271
1546.75390625 2.444753 1.5 -0.944753
1547.48046875 2.4499940000000002 1.544994 -0.905
1548.1875 2.48 1.555 -0.925
1548.90625 2.539609 1.584609 -0.955
1549.6484375 2.587889 1.589521 -0.998368
1550.3984375 2.5127309999999996 1.479121 -1.03361
1551.14453125 2.52517 1.470271 -1.054899
1551.90234375 2.520771 1.48 -1.040771
1552.6953125 2.599456 1.569456 -1.03
1553.421875 2.662722 1.556578 -1.106144
1554.12109375 2.552961 1.41 -1.142961
1554.828125 2.484473 1.274473 -1.21
1555.53125 2.569 1.454 -1.115
1556.28125 2.698068 1.688068 -1.01
1557.03125 2.680727 1.725727 -0.955
1557.77734375 2.414212 1.579857 -0.834355
1558.51953125 2.533309 1.689961 -0.843348
1559.27734375 2.618614 1.773614 -0.845
1559.9765625 2.781796 1.817368 -0.964428
1560.65234375 2.533576 1.577169 -0.956407
1561.36328125 2.435693 1.495 -0.940693
1562.06640625 2.5309150000000002 1.575784 -0.955131
1562.8125 2.690148 1.682778 -1.00737
1563.5625 2.43891 1.438636 -1.000274
1564.3125 2.264714 1.365 -0.899714
1565.02734375 2.3883039999999998 1.47336 -0.914944
1565.765625 2.5863940000000003 1.587754 -0.99864
1566.46484375 2.690382 1.640382 -1.05
1567.14453125 2.29506 1.315275 -0.979785
1567.84765625 2.112142 1.274591 -0.837551
1568.55859375 2.2668049999999997 1.39 -0.876805
1569.30078125 2.476137 1.554523 -0.921614
1570.03125 2.458695 1.518594 -0.940101
1570.734375 2.189011 1.315643 -0.873368
1571.41796875 2.325472 1.370468 -0.955004
1572.09375 2.519011 1.589219 -0.929792
1572.734375 1.811506 0.988027 -0.823479
1573.3828125 1.6439300000000001 0.869337 -0.774593
1574.01171875 1.568289 0.818563 -0.749726
1574.70703125 1.585454 0.785 -0.800454
1575.38671875 1.529734 0.82 -0.709734
1576.1015625 1.720777 0.988358 -0.732419
1576.74609375 1.659701 0.913979 -0.745722
1577.42578125 1.8604409999999998 1.253302 -0.607139
1578.05078125 2.465516 1.612313 -0.853203
1578.74609375 3.032305 1.751312 -1.280993
1579.3671875 3.5648090000000003 2.324567 -1.240242
1580.02734375 3.328176 2.148176 -1.18
1580.6953125 3.395 1.91 -1.485
1581.38671875 3.383308 2.114732 -1.268576
1582.0703125 3.201312 2.266626 -0.934686
1582.765625 3.3141990000000003 1.954199 -1.36
1583.421875 3.416034 2.016085 -1.399949
1584.0390625 2.989712 1.654718 -1.334994
1584.7109375 2.114141 2.569859 0.455718
1585.34765625 1.834937 1.825 -0.009937
1586.015625 2.26588 1.24 -1.02588
1586.66796875 2.532687 1.098318 -1.434369
1587.34765625 2.8493690000000003 1.069672 -1.779697
1588.015625 3.12989 1.170117 -1.959773
1588.69921875 3.36432 1.33932 -2.025
1589.37109375 3.431514 1.456642 -1.974872
1590.0078125 3.5036 1.704312 -1.799288
1590.62890625 3.62658 1.98408 -1.6425
1591.29296875 3.739138 2.124588 -1.61455
1591.98046875 3.819802 2.249927 -1.569875
1592.671875 3.834086 2.339134 -1.494952
1593.359375 3.828679 2.400361 -1.428318
1594.07421875 3.858453 2.418453 -1.44
1594.7734375 3.8797930000000003 2.455 -1.424793
1595.47265625 3.9177609999999996 2.504402 -1.413359
1596.16015625 3.917775 2.54356 -1.374215
1596.8359375 3.911858 2.569887 -1.341971
1597.53125 3.834707 2.487754 -1.346953
1598.28125 3.7444439999999997 2.446929 -1.297515
1599.01953125 3.905109 2.664987 -1.240122
1599.7421875 3.953566 2.651286 -1.30228
1600.48046875 3.985186 2.650281 -1.334905
1601.19921875 4.013296 2.674522 -1.338774
1601.91796875 4.001289 2.637336 -1.363953
1602.61328125 4.0247139999999995 2.654714 -1.37
1603.30859375 4.02111 2.669349 -1.351761
1604.03125 4.010879 2.674629 -1.33625
1604.80078125 3.990173 2.644548 -1.345625
1605.55078125 3.91764 2.594548 -1.323092
1606.2890625 3.9984029999999997 2.64988 -1.348523
1607.0234375 3.963168 2.613292 -1.349876
1607.73828125 3.9912850000000004 2.589707 -1.401578
1608.4609375 3.999638 2.614911 -1.384727
1609.1640625 3.998271 2.659789 -1.338482
1609.86328125 3.915755 2.586272 -1.329483
1610.62109375 3.923687 2.611187 -1.3125
1611.39453125 3.959063 2.584994 -1.374069
1612.046875 3.815447 0.794025 -3.021422
1612.85546875 3.897882 2.464987 -1.432895
1613.5625 3.629539 2.275 -1.354539
1614.265625 3.893822 2.399714 -1.494108
1614.984375 3.9770890000000003 2.272326 -1.704763
1615.6796875 3.9267260000000004 2.39 -1.536726
1616.375 3.8833330000000004 2.535 -1.348333
1617.12890625 3.544483 2.415997 -1.128486
1617.890625 3.8325699999999996 2.851183 -0.981387
1618.61328125 3.953627 2.993728 -0.959899
1619.3125 4.013012 3.055446 -0.957566
1620.01171875 3.978638 3.018691 -0.959947
1620.7109375 3.69201 2.714785 -0.977225
1621.26171875 3.378025 0.694723 -2.683302
1622.140625 4.000192 2.912231 -1.087961
1622.85546875 4.064832 2.874978 -1.189854
1623.64453125 4.098377 2.864977 -1.2334
1624.390625 3.9146739999999998 2.68625 -1.228424
1625.1171875 3.962533 2.778303 -1.18423
1625.8203125 4.046973 2.846973 -1.2
1626.52734375 4.057387 2.797437 -1.25995
1627.2578125 3.945269 2.726544 -1.218725
1627.9921875 3.7304770000000005 2.535477 -1.195
1628.734375 4.001884 2.753274 -1.24861
1629.48828125 3.9981160000000004 2.689023 -1.309093
1630.265625 3.799102 2.499794 -1.299308
1631.00390625 3.800087 2.561601 -1.238486
1631.70703125 3.930096 2.652004 -1.278092
1632.41015625 3.971845 2.658536 -1.313309
1633.1015625 3.72275 2.462694 -1.260056
1633.83203125 3.596634 2.366825 -1.229809
1634.57421875 3.7910580000000005 2.537256 -1.253802
1635.3125 3.9027900000000004 2.604048 -1.298742
1636.0546875 3.888033 2.58 -1.308033
1636.828125 3.5252850000000002 2.316098 -1.209187
1637.5546875 3.648859 2.463859 -1.185
1638.23828125 3.7830060000000003 2.583006 -1.2
1638.94140625 3.803835 2.565765 -1.23807
1639.640625 3.6670059999999998 2.472231 -1.194775
1640.3828125 3.408398 2.273645 -1.134753
1641.14453125 3.741282 2.574986 -1.166296
1641.890625 3.774067 2.575111 -1.198956
1642.6484375 3.8071719999999996 2.572195 -1.234977
1643.41796875 3.783157 2.593755 -1.189402
1644.140625 3.635734 2.466414 -1.16932
1644.84375 3.679641 2.545297 -1.134344
1645.578125 3.790261 2.5981 -1.192161
1646.328125 3.815487 2.593895 -1.221592
1647.109375 3.782398 2.527493 -1.254905
1647.87109375 3.6450000000000005 2.43 -1.215
1648.62890625 3.7817230000000004 2.561723 -1.22
1649.38671875 3.821059 2.587219 -1.23384
1650.1171875 3.8451310000000003 2.591575 -1.253556
1650.83984375 3.8125980000000004 2.595 -1.217598
1651.55859375 3.809424 2.529697 -1.279727
1652.296875 3.7745689999999996 2.529588 -1.244981
1653.08203125 3.7860709999999997 2.5404 -1.245671
1653.875 3.8247530000000003 2.58 -1.244753
1654.6328125 3.810307 2.575927 -1.23438
1655.36328125 3.8132219999999997 2.548644 -1.264578
1656.0 3.3650590000000005 0.405 -2.960059
1656.82421875 3.804506 2.49 -1.314506
1657.52734375 3.8449999999999998 2.565 -1.28
1658.26953125 3.817215 2.559949 -1.257266
1659.01171875 3.704613 2.449714 -1.254899
1659.796875 3.6991880000000004 2.504297 -1.194891
1660.56640625 3.8495999999999997 2.6096 -1.24
1661.296875 3.8546839999999998 2.634684 -1.22
1662.00390625 3.718833 2.508833 -1.21
1662.74609375 3.532336 2.378906 -1.15343
1663.45703125 3.805802 2.625829 -1.179973
1664.1640625 3.8897139999999997 2.654877 -1.234837
1664.91015625 3.787598 2.585059 -1.202539
1665.66015625 3.527839 2.347839 -1.18
1666.42578125 3.870806 2.673245 -1.197561
1667.16796875 3.926943 2.723469 -1.203474
1667.8828125 3.9677670000000003 2.72433 -1.243437
1668.58203125 3.766862 2.572963 -1.193899
1669.33984375 3.928082 2.740284 -1.187798
1670.0703125 4.039334 2.844653 -1.194681
1670.80078125 4.077591 2.827591 -1.25
1671.56640625 3.855887 2.634606 -1.221281
1672.3203125 3.915006 2.658725 -1.256281
1673.078125 4.120517 2.813702 -1.306815
1673.79296875 4.138755 2.833755 -1.305
1674.4921875 3.672256 2.478231 -1.194025
1675.19921875 3.97994 2.73 -1.24994
1675.94140625 4.179507 2.874507 -1.305
1676.48828125 3.773269 0.581859 -3.19141
1677.4296875 4.028385 2.658632 -1.369753
1678.171875 3.7089790000000002 2.389272 -1.319707
1678.9296875 4.129315 2.83251 -1.296805
1679.66796875 4.16458 2.874588 -1.289992
1680.3671875 4.048027 2.799302 -1.248725
1681.06640625 3.724681 2.519681 -1.205
1681.796875 4.011573 2.754812 -1.256761
1682.5625 4.081478000000001 2.802045 -1.279433
1683.328125 4.057717 2.748445 -1.309272
1684.0625 3.912723 2.615 -1.297723
1684.8125 3.646435 2.420658 -1.225777
1685.546875 3.90559 2.648324 -1.257266
1686.28125 3.943161 2.638679 -1.304482
1686.9765625 3.865951 2.658684 -1.207267
1687.6640625 3.573223 2.399718 -1.173505
1688.4296875 3.820015 2.590015 -1.23
1689.03125 3.52672 2.107821 -1.418899
1689.94921875 3.881252 2.638472 -1.24278
1690.6953125 3.7316260000000003 2.511626 -1.22
1691.4375 3.530445 2.328654 -1.201791
1692.1640625 3.844757 2.584908 -1.259849
1692.89453125 3.844967 2.594967 -1.25
1693.60546875 3.742058 2.509918 -1.23214
1694.33203125 3.5671720000000002 2.368812 -1.19836
1695.1328125 3.766093 2.544572 -1.221521
1695.8984375 3.7930479999999998 2.568187 -1.224861
1696.63671875 3.801271 2.566681 -1.23459
1697.375 3.7750000000000004 2.54 -1.235
1698.1015625 3.658944 2.453944 -1.205
1698.8359375 3.5398570000000005 2.344857 -1.195
1699.5703125 3.7194000000000003 2.4844 -1.235
1700.30859375 3.756695 2.519947 -1.236748
1701.07421875 3.6833489999999998 2.47649 -1.206859
1701.859375 3.277858 2.193307 -1.084551
1702.62109375 3.576816 2.450656 -1.12616
1703.33984375 3.720271 2.546766 -1.173505
1704.046875 3.753977 2.578977 -1.175
1704.765625 3.722676 2.552676 -1.17
1705.5078125 3.536442 2.411676 -1.124766
1706.234375 3.615436 2.475885 -1.139551
1706.984375 3.697402 2.522617 -1.174785
1707.77734375 3.731661 2.588877 -1.142784
1708.546875 3.679905 2.54991 -1.129995
1709.28125 3.4588140000000003 2.348814 -1.11
1710.0078125 3.70431 2.549521 -1.154789
1710.72265625 3.749791 2.602436 -1.147355
1711.46875 3.758625 2.596987 -1.161638
1712.22265625 3.636509 2.505 -1.131509
1712.98828125 3.62875 2.504714 -1.124036
1713.7578125 3.788033 2.628745 -1.159288
1714.5625 3.829942 2.679286 -1.150656
1715.30078125 3.595025 2.502768 -1.092257
1716.0078125 3.683771 2.538824 -1.144947
1716.734375 3.844092 2.659287 -1.184805
1717.4609375 3.9097470000000003 2.686404 -1.223343
1718.2109375 3.888485 2.669851 -1.218634
1718.96484375 3.562895 2.45743 -1.105465
1719.71875 3.8132140000000003 2.678761 -1.134453
1720.4921875 3.905563 2.767187 -1.138376
1721.2421875 3.928732 2.769241 -1.159491
1721.95703125 3.544217 2.45514 -1.089077
1722.65234375 3.7913759999999996 2.669501 -1.121875
1723.36328125 3.973904 2.797892 -1.176012
1724.1015625 3.96639 2.791437 -1.174953
1724.86328125 3.720787 2.570955 -1.149832
1725.62109375 3.8149939999999996 2.640058 -1.174936
1726.36328125 3.933362 2.788362 -1.145
1727.12890625 3.964589 2.77908 -1.185509
1727.859375 3.899423 2.717686 -1.181737
1728.55859375 3.578406 2.435842 -1.142564
1729.2734375 3.896559 2.696609 -1.19995
1730.00390625 3.9875860000000003 2.76779 -1.219796
1730.77734375 3.980306 2.749525 -1.230781
1731.5546875 3.724519 2.531759 -1.19276
1732.3046875 3.819171 2.619404 -1.199767
1733.05859375 3.985141 2.764726 -1.220415
1733.8125 4.014794 2.741923 -1.272871
1734.5234375 3.761222 2.56396 -1.197262
1735.22265625 3.685599 2.471386 -1.214213
1735.953125 3.9541899999999996 2.684268 -1.269922
1736.69140625 4.024102 2.724739 -1.299363
1737.46875 4.022854 2.713641 -1.309213
1738.2265625 3.7936430000000003 2.528643 -1.265
1738.9609375 3.734623 2.544637 -1.189986
1739.69921875 3.994561 2.734561 -1.26
1740.44140625 4.0947569999999995 2.789757 -1.305
1741.16015625 4.052093 2.767682 -1.284411
1741.87109375 3.8008420000000003 2.556117 -1.244725
1742.62890625 3.8187539999999998 2.603906 -1.214848
1743.40625 4.020392 2.760192 -1.2602
1744.1875 4.017167 2.752167 -1.265
1744.9453125 3.982612 2.737931 -1.244681
1745.66015625 3.698195 2.549308 -1.148887
1746.39453125 3.6048400000000003 2.484916 -1.119924
1747.13671875 3.866955 2.732667 -1.134288
1747.859375 3.8655559999999998 2.735 -1.130556
1748.6015625 3.89 2.705 -1.185
1749.37109375 3.771266 2.566601 -1.204665
1750.15234375 3.450594 2.353641 -1.096953
1750.9375 3.723646 2.603646 -1.12
1751.66796875 3.782615 2.578271 -1.204344
1752.375 3.809259 2.475 -1.334259
1753.12109375 3.645828 2.240828 -1.405
1753.8671875 3.366088 2.146309 -1.219779
1754.5234375 4.483035 2.612218 -1.870817
1755.3828125 3.750383 2.675 -1.075383
1756.14453125 3.788168 2.66997 -1.118198
1756.921875 3.713914 2.623239 -1.090675
1757.65234375 3.3992250000000004 2.366674 -1.032551
1758.359375 3.7120550000000003 2.648317 -1.063738
1759.0625 3.737346 2.633661 -1.103685
1759.8125 3.783082 2.616538 -1.166544
1760.546875 3.403609 2.304807 -1.098802
1761.28515625 3.636109 2.531109 -1.105
1762.04296875 3.741048 2.603487 -1.137561
1762.78515625 3.8146519999999997 2.588508 -1.226144
1763.52734375 3.549298 2.379707 -1.169591
1764.2421875 3.4802159999999995 2.359056 -1.12116
1764.94921875 3.7229980000000005 2.570965 -1.152033
1765.67578125 3.776929 2.586929 -1.19
1766.4453125 3.684152 2.513832 -1.17032
1767.20703125 3.268068 2.185 -1.083068
1767.9609375 3.684905 2.544919 -1.139986
1768.73046875 3.745462 2.569994 -1.175468
1769.46484375 3.7566939999999995 2.543474 -1.21322
1770.1953125 3.459303 2.264617 -1.194686
1770.91796875 3.5572790000000003 2.357279 -1.2
1771.625 3.734725 2.505 -1.229725
1772.37890625 3.785184 2.498058 -1.287126
1773.16796875 3.689271 2.464271 -1.225
1773.9375 3.4779099999999996 2.314062 -1.163848
1774.6796875 3.743149 2.561759 -1.18139
1775.4296875 3.79006 2.609617 -1.180443
1776.171875 3.8170149999999996 2.622025 -1.19499
1776.91015625 3.583705 2.425071 -1.158634
1777.6328125 3.778571 2.38 -1.398571
1778.37109375 4.054333 2.676805 -1.377528
1779.15234375 3.597811 2.308606 -1.289205
1779.89453125 3.834718 2.474993 -1.359725
1780.6015625 3.8071260000000002 2.430389 -1.376737
1781.2890625 3.8707080000000005 2.499979 -1.370729
1781.953125 4.004612 2.679612 -1.325
1782.62890625 3.20526 3.126265 -0.078995
1783.3046875 2.732017 2.76384 0.031823
1783.96875 3.082986 2.178008 -0.904978
1784.63671875 3.403659 1.879023 -1.524636
1785.37109375 3.577377 1.878089 -1.699288
1786.08203125 3.758982 1.963772 -1.79521
1786.78125 3.949147 2.047949 -1.901198
1787.453125 3.9690510000000003 2.169051 -1.8
1788.109375 3.469228 1.819257 -1.649971
1788.76953125 3.700837 2.224982 -1.475855
1789.453125 3.9794280000000004 2.554447 -1.424981
1790.14453125 4.0999859999999995 2.679986 -1.42
1790.83203125 4.056932 2.701771 -1.355161
1791.55859375 3.699952 2.424952 -1.275
1792.296875 3.363442 2.184134 -1.179308
1793.00390625 3.838317 2.693192 -1.145125
1793.66796875 3.8668 2.7168 -1.15
1794.33984375 3.904546 2.725202 -1.179344
1795.015625 3.748929 2.527949 -1.22098
1795.71875 3.421289 2.239219 -1.18207
1796.4375 3.8189469999999996 2.623947 -1.195
1797.16796875 3.849976 2.650022 -1.199954
1797.91796875 3.8224970000000003 2.627511 -1.194986
1798.68359375 3.6802900000000003 2.492316 -1.187974
1799.4140625 3.423253 2.280527 -1.142726
1800.109375 3.7058169999999997 2.540885 -1.164932
1800.8203125 3.765822 2.578032 -1.18779
1801.55078125 3.700692 2.505017 -1.195675
1802.13671875 3.1314390000000003 0.182002 -2.949437
1803.07421875 3.711365 2.486423 -1.224942
1803.82421875 3.6873820000000004 2.478359 -1.209023
1804.6171875 3.5694369999999997 2.42 -1.149437
