4.31640625 2.125034 1.299451 -0.825583
4.9296875 2.13326 1.382656 -0.750604
5.5546875 2.074314 1.278519 -0.795795
6.21484375 2.08197 1.195237 -0.886733
6.87890625 1.9833859999999999 1.07025 -0.913136
7.515625 1.89447 1.024219 -0.870251
8.15234375 2.095377 1.353546 -0.741831
8.79296875 2.01641 1.210376 -0.806034
9.4140625 2.012628 1.157675 -0.854953
10.0546875 1.957983 1.104734 -0.853249
10.6796875 1.953979 1.115683 -0.838296
11.28125 2.064508 1.148057 -0.916451
11.92578125 2.165579 1.318599 -0.84698
12.58203125 2.02874 1.202255 -0.826485
13.2421875 1.9974729999999998 1.093265 -0.904208
13.9140625 1.9584289999999998 1.015 -0.943429
14.57421875 2.088029 1.153694 -0.934335
15.22265625 2.1124549999999997 1.223086 -0.889369
15.83984375 1.9556179999999999 1.136315 -0.819303
16.46875 1.9398300000000002 1.037759 -0.902071
17.0703125 1.957622 0.964383 -0.993239
17.7109375 2.039794 1.07985 -0.959944
18.390625 1.9667590000000001 0.99209 -0.974669
19.0703125 1.972296 1.00418 -0.968116
19.7421875 2.180876 1.277911 -0.902965
20.390625 2.065053 1.238217 -0.826836
21.03125 2.032291 1.119082 -0.913209
21.67578125 1.9724599999999999 1.035 -0.93746
22.33203125 1.985285 0.968864 -1.016421
22.953125 1.992025 0.990489 -1.001536
23.59375 1.969184 1.106298 -0.862886
24.2421875 2.051178 1.132042 -0.919136
24.91015625 1.987966 1.063508 -0.924458
25.56640625 1.961345 1.056625 -0.90472
26.1953125 2.039975 1.11873 -0.921245
26.8515625 2.076976 1.160706 -0.91627
27.515625 1.97412 0.989754 -0.984366
28.16015625 2.072271 1.0294 -1.042871
28.81640625 2.139611 1.179611 -0.96
29.4453125 1.975801 0.996941 -0.97886
30.12109375 1.9378600000000001 1.003382 -0.934478
30.8359375 2.1648 1.23 -0.9348
31.53515625 2.059809 1.158129 -0.90168
32.20703125 1.9982579999999999 1.061871 -0.936387
32.86328125 1.8965230000000002 1.029883 -0.86664
33.51953125 2.019165 1.054861 -0.964304
34.17578125 1.931529 0.978889 -0.95264
34.8046875 1.991658 1.015429 -0.976229
35.4375 2.01649 1.082803 -0.933687
36.12890625 1.9762950000000001 1.092313 -0.883982
36.796875 1.963091 1.104281 -0.85881
37.46484375 1.8209369999999998 0.971447 -0.84949
38.109375 1.866778 0.944452 -0.922326
38.7578125 1.955558 0.94939 -1.006168
39.40625 2.024921 1.047357 -0.977564
40.03515625 2.009877 1.03006 -0.979817
40.6640625 1.973095 0.969481 -1.003614
41.24609375 1.8745319999999999 0.958204 -0.916328
41.87890625 1.961242 1.054177 -0.907065
42.546875 1.906366 0.952773 -0.953593
43.19921875 1.9896190000000002 1.040245 -0.949374
43.8359375 2.079525 1.239723 -0.839802
44.49609375 1.97495 1.285107 -0.689843
45.12890625 1.944989 1.155 -0.789989
45.7578125 1.956862 1.03524 -0.921622
46.36328125 2.019252 1.176672 -0.84258
46.97265625 2.032035 1.120252 -0.911783
47.625 1.948869 1.045 -0.903869
48.28125 1.9991750000000001 1.109506 -0.889669
48.94140625 1.979594 1.099759 -0.879835
49.578125 1.923136 1.014429 -0.908707
50.2109375 1.974495 1.034517 -0.939978
50.84375 1.963566 1.073815 -0.889751
51.453125 2.018842 1.174675 -0.844167
52.08203125 1.994575 1.079626 -0.914949
52.70703125 1.895477 0.943863 -0.951614
53.19140625 1.912579 0.908261 -1.004318
53.90234375 2.0983009999999997 1.126672 -0.971629
54.55859375 2.0073540000000003 1.132235 -0.875119
55.20703125 1.925129 1.065129 -0.86
55.85546875 1.964922 0.999922 -0.965
56.484375 1.890721 0.952195 -0.938526
57.109375 1.9648409999999998 1.017947 -0.946894
57.7265625 2.04625 1.124573 -0.921677
58.32421875 2.048922 1.154587 -0.894335
58.921875 2.007294 1.213961 -0.793333
59.53515625 1.988407 1.195848 -0.792559
60.1875 1.934224 1.117969 -0.816255
60.8671875 1.9659659999999999 1.092172 -0.873794
61.55078125 1.873109 1.056079 -0.81703
62.19140625 1.924603 1.154668 -0.769935
62.828125 1.8674840000000001 1.101704 -0.76578
63.44140625 1.881829 0.9777 -0.904129
64.0703125 1.801615 0.856615 -0.945
64.69921875 1.9761190000000002 1.02 -0.956119
65.28515625 1.89775 1.030556 -0.867194
65.91796875 1.868757 0.937902 -0.930855
66.5546875 1.720158 0.851006 -0.869152
67.13671875 1.906806 1.00253 -0.904276
67.828125 2.061396 1.198494 -0.862902
68.44921875 1.944172 1.131742 -0.81243
69.08984375 1.872605 1.033992 -0.838613
69.71484375 1.857059 1.031573 -0.825486
70.31640625 1.9922279999999999 1.11821 -0.874018
70.82421875 1.8474620000000002 1.094702 -0.75276
71.4921875 1.9340769999999998 1.106838 -0.827239
72.1328125 1.866396 1.012131 -0.854265
72.80078125 1.8361519999999998 1.021861 -0.814291
73.45703125 1.835718 1.048628 -0.78709
74.0859375 1.948637 1.288937 -0.6597
74.69921875 2.016476 1.29826 -0.718216
75.32421875 2.004363 1.045369 -0.958994
75.94140625 1.9671340000000002 0.993341 -0.973793
76.5390625 1.923875 0.984609 -0.939266
77.1171875 1.897904 0.98462 -0.913284
77.73828125 2.065349 1.133537 -0.931812
78.38671875 2.0336239999999997 1.127587 -0.906037
79.03515625 1.958342 1.115986 -0.842356
79.6640625 1.9095049999999998 1.084671 -0.824834
80.28515625 1.85884 1.017797 -0.841043
80.921875 1.8710170000000002 1.053419 -0.817598
81.55078125 1.995654 1.174058 -0.821596
82.15234375 1.9623780000000002 1.116862 -0.845516
82.734375 1.86105 1.048827 -0.812223
83.33203125 1.9515829999999998 1.117138 -0.834445
83.95703125 1.936688 1.129324 -0.807364
84.60546875 1.969976 1.124976 -0.845
85.25390625 1.8904509999999999 1.067346 -0.823105
85.8984375 1.9049999999999998 1.025 -0.88
86.54296875 1.922755 1.078872 -0.843883
87.17578125 1.975007 1.077373 -0.897634
87.8125 1.822852 0.953367 -0.869485
88.4296875 1.8947129999999999 0.996798 -0.897915
89.05078125 1.892337 1.086162 -0.806175
89.72265625 1.8913829999999998 1.019027 -0.872356
90.40234375 1.889416 0.96421 -0.925206
91.078125 1.815499 0.919612 -0.895887
91.75 1.88757 1.01 -0.87757
92.39453125 1.850333 0.969157 -0.881176
93.0390625 1.9026429999999999 0.974246 -0.928397
93.66796875 1.799042 0.990067 -0.808975
94.2265625 1.831944 1.058781 -0.773163
94.91796875 1.897218 1.072824 -0.824394
95.52734375 1.900547 0.976087 -0.92446
96.171875 1.7996889999999999 0.895987 -0.903702
96.82421875 1.946678 1.033548 -0.91313
97.49609375 1.829388 1.014016 -0.815372
98.1484375 1.811541 0.968763 -0.842778
98.7734375 1.820535 0.943377 -0.877158
99.3984375 1.8645809999999998 1.037375 -0.827206
100.00390625 1.8577629999999998 1.025556 -0.832207
100.47265625 1.8727639999999999 1.027764 -0.845
101.1328125 1.918647 1.06244 -0.856207
101.78515625 1.945685 1.13467 -0.811015
102.4375 1.9953699999999999 1.173099 -0.822271
103.1015625 1.986164 1.122543 -0.863621
103.7265625 1.929165 1.016578 -0.912587
104.37109375 1.851628 0.928663 -0.922965
104.98828125 1.845818 0.966812 -0.879006
105.60546875 2.026126 1.151126 -0.875
106.234375 1.973732 1.148732 -0.825
106.83984375 1.893297 1.082628 -0.810669
107.43359375 1.818247 0.954677 -0.86357
108.05078125 1.863413 1.008202 -0.855211
108.6953125 2.028832 1.200937 -0.827895
109.34765625 1.90394 1.114207 -0.789733
109.96484375 1.764259 0.947564 -0.816695
110.58984375 1.674932 0.940677 -0.734255
111.22265625 1.812758 0.923159 -0.889599
111.83203125 1.758257 0.811359 -0.946898
112.4375 1.923843 0.965185 -0.958658
113.01171875 1.863774 0.982329 -0.881445
113.6328125 2.019502 1.033938 -0.985564
114.28515625 2.09628 1.217541 -0.878739
114.9375 1.921764 1.096935 -0.824829
115.5859375 1.8927589999999999 1.074298 -0.818461
116.20703125 2.052022 1.205388 -0.846634
116.828125 2.044067 1.212933 -0.831134
117.4375 2.068329 1.358471 -0.709858
117.921875 1.950634 1.203157 -0.747477
118.640625 2.0401990000000003 1.18534 -0.854859
119.25390625 1.902898 1.078906 -0.823992
119.921875 2.127835 1.31544 -0.812395
120.6015625 2.036691 1.303953 -0.732738
121.23046875 2.019731 1.184731 -0.835
121.9140625 1.9367199999999998 1.058539 -0.878181
122.5625 1.839866 0.991525 -0.848341
123.21875 1.9521410000000001 1.178261 -0.77388
123.83984375 2.023883 1.110001 -0.913882
124.45703125 1.953726 1.020973 -0.932753
125.04296875 1.9221400000000002 1.000561 -0.921579
125.6640625 2.0240679999999998 1.194742 -0.829326
126.30078125 1.949244 1.126685 -0.822559
126.953125 2.012706 1.096011 -0.916695
127.6015625 1.937624 1.034003 -0.903621
128.23828125 2.018167 1.13684 -0.881327
128.85546875 2.014793 1.109793 -0.905
129.46875 1.9324029999999999 1.024375 -0.908028
130.078125 2.056006 1.156442 -0.899564
130.69921875 2.023724 1.08843 -0.935294
131.3046875 1.874012 0.968947 -0.905065
131.94140625 2.126613 1.088029 -1.038584
132.609375 2.099349 1.194814 -0.904535
133.24609375 2.043154 1.139435 -0.903719
133.88671875 2.007699 1.109204 -0.898495
134.5234375 1.910599 1.001759 -0.90884
135.15625 1.957929 1.085956 -0.871973
135.7890625 2.008794 1.129772 -0.879022
136.41796875 1.968759 1.099639 -0.86912
137.01171875 1.90692 1.032259 -0.874661
137.6484375 1.969793 1.076903 -0.89289
138.28515625 2.0025440000000003 1.081452 -0.921092
138.9375 1.9465530000000002 1.003276 -0.943277
139.609375 1.9566309999999998 0.926778 -1.029853
140.2421875 2.046522 0.987693 -1.058829
140.875 2.031675 1.11 -0.921675
141.4921875 2.079686 1.128799 -0.950887
142.1171875 1.9597700000000002 1.036631 -0.923139
142.73828125 1.934285 1.071424 -0.862861
143.328125 2.046043 1.140539 -0.905504
143.98828125 2.1046959999999997 1.229161 -0.875535
144.66796875 1.9645839999999999 1.079842 -0.884742
145.33203125 1.9402249999999999 1.007209 -0.933016
145.984375 2.037926 1.217926 -0.82
146.61328125 2.028458 1.23831 -0.790148
147.2421875 2.011659 1.046659 -0.965
147.8671875 1.77654 0.889858 -0.886682
148.36328125 1.7702529999999999 1.17718 -0.593073
149.02734375 1.8304040000000001 1.094675 -0.735729
149.640625 2.043161 0.901647 -1.141514
150.26171875 1.986197 0.691897 -1.2943
150.5078125 0.9376070000000001 0.299009 -0.638598
150.890625 2.011485 0.861711 -1.149774
151.5234375 2.111833 1.188467 -0.923366
152.1484375 2.002276 1.084865 -0.917411
152.78125 1.870488 0.893998 -0.97649
153.4140625 1.8933010000000001 0.934503 -0.958798
154.0234375 1.97488 1.099221 -0.875659
154.63671875 2.0770779999999998 1.340372 -0.736706
155.21484375 2.0109440000000003 0.950275 -1.060669
155.8515625 2.1125559999999997 1.007556 -1.105
156.2734375 1.02665 -0.31835 -1.345
156.51953125 2.149598 1.169939 -0.979659
157.16015625 2.01905 1.106938 -0.912112
157.62890625 2.173534 1.166168 -1.007366
158.29296875 1.934298 0.91205 -1.022248
158.9296875 1.809123 0.864568 -0.944555
159.54296875 2.136824 1.010229 -1.126595
160.14453125 1.999524 1.14986 -0.849664
160.734375 2.107553 1.284277 -0.823276
161.35546875 2.204791 1.374791 -0.83
161.99609375 1.9984000000000002 1.163947 -0.834453
162.640625 2.00203 1.072558 -0.929472
163.28515625 1.9061050000000002 0.963346 -0.942759
163.921875 1.883398 0.868717 -1.014681
164.55078125 1.941064 0.967473 -0.973591
165.19140625 1.945762 1.043326 -0.902436
165.8046875 2.000851 1.075851 -0.925
166.41796875 1.9127619999999999 0.903925 -1.008837
167.00390625 1.8025250000000002 0.808473 -0.994052
167.625 1.769972 0.735 -1.034972
168.28125 1.845967 0.880662 -0.965305
168.9375 1.850093 0.960136 -0.889957
169.59765625 1.72447 0.879412 -0.845058
170.25 1.699973 0.9 -0.799973
170.87890625 1.8916620000000002 1.134066 -0.757596
171.5 1.864167 1.075 -0.789167
172.12109375 1.823457 1.009659 -0.813798
172.7578125 1.8207300000000002 0.923196 -0.897534
173.3984375 1.778857 0.883335 -0.895522
174.0625 1.7837480000000001 0.885848 -0.8979
174.74609375 1.81351 0.87 -0.94351
175.4140625 1.77968 0.899728 -0.879952
176.0703125 1.8359779999999999 0.918178 -0.9178
176.73046875 1.8597869999999999 0.899787 -0.96
177.390625 1.8848500000000001 0.952947 -0.931903
178.046875 1.83842 0.902214 -0.936206
178.6953125 1.72492 0.803895 -0.921025
179.30078125 1.792373 0.962363 -0.83001
179.953125 1.859235 1.121315 -0.73792
180.60546875 1.819819 1.299819 -0.52
181.26953125 1.657279 1.12 -0.537279
181.9453125 1.761545 0.992177 -0.769368
182.578125 1.880823 1.04327 -0.837553
183.2109375 1.826117 0.991146 -0.834971
183.8203125 1.8918409999999999 1.033067 -0.858774
184.4375 1.86035 1.182984 -0.677366
185.0390625 1.8238889999999999 1.099705 -0.724184
185.66796875 1.867899 1.098531 -0.769368
186.3359375 1.9448590000000001 1.104875 -0.839984
187.015625 1.800862 0.8975 -0.903362
187.65234375 1.783341 0.921734 -0.861607
188.28515625 1.8446289999999999 0.957286 -0.887343
188.91796875 1.955698 1.036972 -0.918726
189.55859375 2.086415 1.233707 -0.852708
190.1953125 2.072296 1.238401 -0.833895
190.80859375 1.9493019999999999 1.097691 -0.851611
191.4140625 1.824418 0.968912 -0.855506
192.046875 2.002477 1.078315 -0.924162
192.6875 1.870202 0.998729 -0.871473
193.2109375 1.831922 0.912962 -0.91896
193.9375 1.922866 0.999535 -0.923331
194.57421875 1.911963 1.054151 -0.857812
195.21484375 1.9428429999999999 1.03324 -0.909603
195.82421875 1.800523 0.947311 -0.853212
196.421875 1.7832759999999999 0.929438 -0.853838
197.0 1.969863 1.055 -0.914863
197.6328125 1.944458 1.12288 -0.821578
198.3125 1.928304 1.03847 -0.889834
198.98828125 1.833052 0.942591 -0.890461
199.65625 1.818646 0.95921 -0.859436
200.29296875 1.989287 1.098454 -0.890833
200.94140625 1.973311 1.053482 -0.919829
201.58203125 1.861977 0.95227 -0.909707
202.203125 1.9179849999999998 1.08381 -0.834175
202.83984375 1.90584 1.098072 -0.807768
203.46484375 1.5922450000000001 0.88975 -0.702495
204.10546875 0.916921 0.494904 -0.422017
204.7734375 1.473619 0.791653 -0.681966
205.41796875 1.547855 0.83463 -0.713225
206.0625 1.418099 0.828099 -0.59
206.70703125 1.744271 1.063552 -0.680719
207.33984375 1.509647 0.880558 -0.629089
207.97265625 1.498786 0.77764 -0.721146
208.578125 1.14525 0.551112 -0.594138
209.1640625 1.34571 0.639839 -0.705871
209.80859375 1.650104 0.921669 -0.728435
210.46484375 1.7801010000000002 0.893352 -0.886749
211.1328125 1.795466 0.872915 -0.922551
211.80859375 1.891788 1.069554 -0.822234
212.44921875 1.886064 1.020036 -0.866028
213.1015625 1.8037239999999999 0.95457 -0.849154
213.71875 1.866576 0.997352 -0.869224
214.34375 1.9959250000000002 1.188061 -0.807864
214.98046875 2.034276 1.074645 -0.959631
215.59375 1.843062 0.975407 -0.867655
216.2421875 1.862419 1.041247 -0.821172
216.88671875 2.041153 1.189853 -0.8513
217.5390625 2.068312 1.339607 -0.728705
218.1875 1.986308 1.298849 -0.687459
218.8046875 1.8183799999999999 1.20338 -0.615
219.42578125 1.808389 1.484163 -0.324226
220.04296875 1.6515 1.305 -0.3465
220.62890625 1.832972 1.09 -0.742972
221.00390625 0.41399600000000003 -0.110934 -0.52493
221.20703125 1.963255 0.943702 -1.019553
221.80078125 1.9544510000000002 0.872373 -1.082078
222.43359375 2.040523 0.997574 -1.042949
223.0703125 2.132264 1.04613 -1.086134
223.69921875 2.082106 1.121559 -0.960547
224.296875 1.9615399999999998 0.976525 -0.985015
224.8984375 2.037833 1.003383 -1.03445
225.48828125 2.074358 1.133244 -0.941114
226.078125 2.054837 1.09424 -0.960597
226.671875 1.9424860000000002 1.000318 -0.942168
227.24609375 2.089122 1.181497 -0.907625
227.86328125 2.052447 1.166182 -0.886265
228.515625 1.9563929999999998 1.047998 -0.908395
229.1484375 1.971851 1.071241 -0.90061
229.77734375 1.883495 1.076231 -0.807264
230.3671875 1.839614 1.339614 -0.5
230.97265625 1.770988 1.235238 -0.53575
231.58203125 1.922534 1.144315 -0.778219
232.171875 1.932362 1.084129 -0.848233
232.76171875 1.998918 1.022826 -0.976092
233.3125 1.9488050000000001 1.0941 -0.854705
233.9296875 1.959592 1.130109 -0.829483
234.55859375 1.924776 1.040865 -0.883911
235.17578125 1.895802 1.068211 -0.827591
235.8125 2.077245 1.30881 -0.768435
236.42578125 2.035441 1.260802 -0.774639
237.046875 1.989222 1.109367 -0.879855
237.6328125 1.929415 1.065287 -0.864128
238.19140625 1.9519060000000001 1.164787 -0.787119
238.80859375 2.0906450000000003 1.344095 -0.74655
239.39453125 1.875962 1.091841 -0.784121
240.0390625 2.037396 1.184851 -0.852545
240.67578125 1.9953059999999998 1.158165 -0.837141
241.3203125 2.128476 1.424992 -0.703484
241.92578125 2.136183 1.357381 -0.778802
242.52734375 2.104903 1.262278 -0.842625
243.140625 2.010118 1.106593 -0.903525
243.734375 2.074306 1.160049 -0.914257
244.33984375 2.161143 1.28439 -0.876753
244.9453125 2.115412 1.177639 -0.937773
245.5390625 1.952677 1.294289 -0.658388
246.1640625 2.0446660000000003 1.234666 -0.81
246.7890625 2.008583 1.014448 -0.994135
247.41796875 1.934529 0.916815 -1.017714
248.05078125 1.913973 0.846361 -1.067612
248.671875 2.136879 1.117879 -1.019
249.26953125 2.144367 1.074957 -1.06941
249.8671875 1.962322 0.927205 -1.035117
250.453125 1.8856570000000001 0.812294 -1.073363
251.015625 1.8371300000000002 1.265741 -0.571389
251.60546875 1.909885 1.014885 -0.895
252.203125 1.902167 1.359633 -0.542534
252.828125 1.861695 1.199301 -0.662394
253.4453125 2.117172 1.298619 -0.818553
254.03125 1.93759 1.504238 -0.433352
254.61328125 2.021678 1.339695 -0.681983
255.19140625 2.024775 1.379795 -0.64498
255.7578125 1.906112 1.578039 -0.328073
256.33203125 1.860449 1.197138 -0.663311
256.91015625 1.968553 1.017965 -0.950588
257.453125 1.862138 0.994237 -0.867901
258.04296875 1.800361 1.126299 -0.674062
258.46484375 1.8981160000000001 0.858384 -1.039732
259.12890625 1.761837 0.961088 -0.800749
259.73046875 1.4249310000000002 1.199931 -0.225
260.296875 1.6135359999999999 0.908681 -0.704855
260.875 1.574939 0.71 -0.864939
261.44140625 1.659363 0.534657 -1.124706
262.015625 1.7563170000000001 0.696641 -1.059676
262.5703125 1.785678 0.712399 -1.073279
263.10546875 1.874956 0.704956 -1.17
263.65625 1.794171 0.687192 -1.106979
264.1328125 1.806404 0.61259 -1.193814
264.80859375 2.017456 0.843201 -1.174255
265.41796875 2.038728 0.758273 -1.280455
265.984375 1.9884270000000002 0.845379 -1.143048
266.55078125 2.025537 0.819777 -1.20576
267.0078125 1.907533 0.809267 -1.098266
267.625 2.104913 0.875 -1.229913
268.16796875 1.907155 0.46052 -1.446635
268.70703125 2.113904 0.773567 -1.340337
269.23828125 2.130565 0.985565 -1.145
269.796875 2.043163 1.170151 -0.873012
270.38671875 2.087756 1.12 -0.967756
270.95703125 2.041839 1.125726 -0.916113
271.53515625 2.2003399999999997 1.385 -0.81534
272.0859375 2.1228540000000002 1.35484 -0.768014
272.6328125 1.944635 1.157745 -0.78689
273.1953125 2.027987 1.301749 -0.726238
273.7578125 2.014993 1.200547 -0.814446
274.296875 2.068534 1.328579 -0.739955
274.8359375 2.153811 1.529039 -0.624772
275.33984375 2.119814 1.338323 -0.781491
275.90234375 2.050561 1.274431 -0.77613
276.4765625 1.90298 1.06286 -0.84012
277.046875 1.932823 1.156579 -0.776244
277.6171875 2.035752 1.225721 -0.810031
278.17578125 2.007594 1.203738 -0.803856
278.74609375 1.971199 1.211156 -0.760043
279.28515625 1.973109 1.060792 -0.912317
279.83203125 2.06522 1.360849 -0.704371
280.35546875 2.1690259999999997 1.560301 -0.608725
280.8828125 2.170107 1.516606 -0.653501
281.40625 1.946973 1.317692 -0.629281
281.97265625 1.883756 1.213041 -0.670715
282.53125 1.911708 0.863093 -1.048615
283.1015625 2.043433 0.949437 -1.093996
283.6484375 1.786482 0.496716 -1.289766
284.19140625 2.1017230000000002 0.892677 -1.209046
284.72265625 2.014777 0.948103 -1.066674
285.26953125 2.019884 0.849962 -1.169922
285.79296875 1.98349 0.968378 -1.015112
286.33203125 1.9952200000000002 0.915849 -1.079371
286.859375 1.994707 0.935 -1.059707
287.375 2.019974 1.01 -1.009974
287.921875 2.083599 1.244414 -0.839185
288.45703125 2.125708 1.272705 -0.853003
289.03125 2.235537 1.38552 -0.850017
289.59765625 2.1483540000000003 1.478844 -0.66951
290.1640625 2.095419 1.356668 -0.738751
290.71875 2.11152 1.369462 -0.742058
291.26171875 2.120061 1.501816 -0.618245
291.79296875 1.973118 1.247225 -0.725893
292.31640625 1.9839000000000002 1.319066 -0.664834
292.8515625 2.090051 1.477017 -0.613034
293.3671875 2.081854 1.374467 -0.707387
293.91015625 1.894096 1.305757 -0.588339
294.4765625 1.9225430000000001 1.062543 -0.86
295.046875 2.0021329999999997 1.169417 -0.832716
295.62890625 2.074489 1.311615 -0.762874
296.1640625 2.0741940000000003 1.259848 -0.814346
296.7109375 2.144249 1.399405 -0.744844
297.2421875 1.9320370000000002 1.354416 -0.577621
297.7734375 2.034414 1.282253 -0.752161
298.171875 2.318653 1.783796 -0.534857
298.73828125 2.160567 1.582675 -0.577892
299.2734375 2.131151 1.34786 -0.783291
299.83984375 2.043864 1.395489 -0.648375
300.3984375 1.99858 1.140927 -0.857653
300.953125 2.055966 1.206784 -0.849182
301.49609375 2.033426 1.250456 -0.78297
302.05859375 2.077162 1.104903 -0.972259
302.59375 2.08827 1.183924 -0.904346
303.14453125 2.039164 1.049752 -0.989412
303.67578125 2.123724 1.133591 -0.990133
304.20703125 2.1777610000000003 1.262825 -0.914936
304.73046875 2.078445 0.985864 -1.092581
305.2265625 1.989748 1.036485 -0.953263
305.6171875 2.256538 1.327612 -0.928926
306.19921875 1.9278210000000002 1.065344 -0.862477
306.79296875 2.009734 1.173758 -0.835976
307.3828125 2.017361 0.912361 -1.105
307.92578125 1.976553 1.031479 -0.945074
308.4609375 2.134843 1.154906 -0.979937
308.9921875 2.089475 1.002477 -1.086998
309.5234375 2.061403 1.117519 -0.943884
310.0546875 2.2147889999999997 1.175727 -1.039062
310.578125 2.189213 1.302484 -0.886729
311.0859375 2.119306 0.984384 -1.134922
311.62890625 2.1561399999999997 1.120477 -1.035663
312.1953125 2.187601 1.317601 -0.87
312.6171875 2.33108 1.48463 -0.84645
313.1953125 2.0578250000000002 1.403696 -0.654129
313.765625 1.9751370000000001 1.177337 -0.7978
314.3046875 1.977233 1.441626 -0.535607
314.85546875 2.029788 1.269788 -0.76
315.40625 1.91227 1.153697 -0.758573
315.9375 1.9015250000000001 1.103347 -0.798178
316.47265625 2.017642 1.045276 -0.972366
316.98046875 2.056798 1.069623 -0.987175
317.49609375 2.034873 1.045018 -0.989855
318.04296875 2.097682 1.306787 -0.790895
318.61328125 2.111378 1.092637 -1.018741
319.171875 2.148539 1.248796 -0.899743
319.74609375 2.117756 1.20717 -0.910586
320.296875 2.203297 1.333343 -0.869954
320.85546875 2.344625 1.414625 -0.93
321.40234375 2.074862 1.080027 -0.994835
321.9453125 2.069131 1.000437 -1.068694
322.4765625 2.113042 1.108042 -1.005
323.0078125 2.059402 1.129212 -0.93019
323.5703125 2.0081100000000003 1.114246 -0.893864
324.1484375 2.126511 1.318033 -0.808478
324.73046875 2.115298 1.340298 -0.775
325.3046875 2.2116860000000003 1.490993 -0.720693
325.8828125 2.037072 1.383018 -0.654054
326.4375 2.085753 1.243032 -0.842721
327.0078125 2.087694 1.224213 -0.863481
327.5625 2.168708 1.319318 -0.84939
328.03125 1.942892 1.116744 -0.826148
328.67578125 1.951122 1.214326 -0.736796
329.2109375 1.948545 1.198826 -0.749719
329.77734375 2.040485 1.221462 -0.819023
330.35546875 2.184755 1.444755 -0.74
330.94140625 2.162245 1.397548 -0.764697
331.53515625 1.962441 1.102803 -0.859638
332.125 1.892727 1.195 -0.697727
332.6953125 1.8955769999999998 1.132115 -0.763462
333.26953125 2.064456 1.234773 -0.829683
333.8046875 2.020492 1.138547 -0.881945
334.34765625 2.1458630000000003 1.342823 -0.80304
334.90625 1.991298 1.075918 -0.91538
335.4453125 2.029336 1.127216 -0.90212
336.02734375 2.028627 1.218887 -0.80974
336.60546875 1.9697870000000002 1.069787 -0.9
337.203125 1.9111850000000001 1.09212 -0.819065
337.7734375 1.9415179999999999 1.050927 -0.890591
338.32421875 2.061638 1.214789 -0.846849
338.8671875 1.980424 1.014413 -0.966011
339.41015625 1.97443 1.004943 -0.969487
339.81640625 2.111764 1.125593 -0.986171
340.47265625 1.975594 0.892833 -1.082761
341.00390625 1.901237 0.906405 -0.994832
341.54296875 1.886165 0.900732 -0.985433
342.0859375 2.004952 1.104957 -0.899995
342.671875 2.01506 1.092634 -0.922426
343.24609375 1.861521 0.886771 -0.97475
343.8125 1.788778 0.526349 -1.262429
344.37109375 1.9867439999999998 0.636499 -1.350245
344.80859375 1.790781 0.664556 -1.126225
345.4609375 1.860166 0.758291 -1.101875
346.00390625 1.879699 0.897265 -0.982434
346.546875 1.968006 1.040705 -0.927301
347.0625 1.947344 1.343202 -0.604142
347.46484375 1.9508269999999999 1.591119 -0.359708
348.06640625 1.808976 0.90402 -0.904956
348.66015625 1.893039 1.03318 -0.859859
349.23046875 1.904535 1.01472 -0.889815
349.80078125 1.8578290000000002 0.86597 -0.991859
350.21484375 1.5939420000000002 0.849319 -0.744623
350.7890625 1.599625 0.729739 -0.869886
351.34765625 2.01592 0.895435 -1.120485
351.90234375 1.728103 1.104429 -0.623674
352.42578125 1.981182 1.609399 -0.371783
352.96875 1.7913649999999999 1.075921 -0.715444
353.50390625 1.823166 0.870336 -0.95283
354.078125 1.6979199999999999 0.609092 -1.088828
354.64453125 1.839161 0.819852 -1.019309
355.125 1.6349939999999998 0.705 -0.929994
355.74609375 1.737134 0.811973 -0.925161
356.30078125 1.838494 0.834022 -1.004472
356.8671875 1.755237 1.039329 -0.715908
357.41796875 1.834921 1.10855 -0.726371
357.796875 1.8783530000000002 0.983353 -0.895
358.42578125 1.705714 0.925714 -0.78
358.95703125 1.712504 0.910741 -0.801763
359.47265625 1.739847 0.888797 -0.85105
360.03515625 2.02558 1.140811 -0.884769
360.59765625 2.038347 0.983057 -1.05529
361.1875 1.623666 0.757339 -0.866327
361.765625 1.805674 0.997109 -0.808565
362.32421875 1.6048209999999998 0.791677 -0.813144
362.765625 1.780456 0.789534 -0.990922
363.390625 1.712533 0.891308 -0.821225
363.9296875 1.694453 0.942702 -0.751751
364.46484375 1.840434 0.977161 -0.863273
364.99609375 1.905007 1.116169 -0.788838
365.54296875 1.8975590000000002 1.145617 -0.751942
366.10546875 1.694868 0.974868 -0.72
366.68359375 1.739895 1.128884 -0.611011
367.23046875 1.768642 0.958642 -0.81
367.796875 1.833227 1.07332 -0.759907
368.3359375 1.799024 0.994246 -0.804778
368.8828125 1.796408 1.00746 -0.788948
369.32421875 1.724872 1.010895 -0.713977
369.94921875 1.826454 1.293694 -0.53276
370.5 1.669978 0.94 -0.729978
371.01953125 1.481353 0.841854 -0.639499
371.5625 1.682357 0.975937 -0.70642
372.12109375 1.5890209999999998 1.024082 -0.564939
372.69921875 1.554478 0.901835 -0.652643
373.28125 1.5686710000000001 1.02675 -0.541921
373.83203125 1.5138449999999999 1.192913 -0.320932
374.41015625 1.319407 0.866876 -0.452531
374.9765625 1.194058 0.786978 -0.40708
375.5078125 1.5151400000000002 0.819277 -0.695863
376.0546875 1.618712 0.812115 -0.806597
376.49609375 1.295515 0.541 -0.754515
377.08984375 1.374536 0.598081 -0.776455
377.6484375 1.316882 0.829092 -0.48779
377.8828125 0.316768 0.079239 -0.237529
378.2265625 1.167205 0.653071 -0.514134
378.80859375 1.354555 0.764647 -0.589908
379.3828125 1.385435 0.72747 -0.657965
379.94921875 1.352487 0.698893 -0.653594
380.49609375 1.39446 0.71946 -0.675
381.03515625 1.4134920000000002 0.743809 -0.669683
381.57421875 1.502862 0.785196 -0.717666
382.12890625 1.3679070000000002 0.640484 -0.727423
382.6640625 1.428948 0.544651 -0.884297
383.07421875 1.352135 0.614885 -0.73725
383.6953125 1.427431 0.758518 -0.668913
384.25390625 1.3898860000000002 0.775468 -0.614418
384.8203125 1.3569369999999998 0.776937 -0.58
385.390625 1.398493 0.679959 -0.718534
385.8046875 1.666697 1.106632 -0.560065
386.39453125 1.351578 0.764988 -0.58659
386.9609375 1.2787199999999999 0.729677 -0.549043
387.5234375 1.442652 0.785578 -0.657074
388.0546875 1.578512 0.938928 -0.639584
388.5859375 1.5195219999999998 0.869589 -0.649933
389.08203125 1.540948 0.890948 -0.65
389.62109375 1.394136 0.814136 -0.58
390.16796875 1.510329 1.018315 -0.492014
390.7578125 1.521364 0.960695 -0.560669
391.3125 1.406592 0.874028 -0.532564
391.87890625 1.6314199999999999 1.102158 -0.529262
392.39453125 1.5499450000000001 0.819967 -0.729978
392.85546875 1.4461810000000002 0.734485 -0.711696
393.45703125 1.61528 0.850113 -0.765167
393.9921875 1.6179299999999999 0.824159 -0.793771
394.53125 1.5411009999999998 0.737629 -0.803472
395.05078125 1.492661 0.769759 -0.722902
395.484375 1.538109 0.858109 -0.68
396.13671875 1.6594630000000001 0.987275 -0.672188
396.72265625 1.499931 0.823857 -0.676074
397.2890625 1.559929 0.894929 -0.665
397.8515625 1.505 0.935 -0.57
398.4140625 1.583459 0.93923 -0.644229
398.99609375 1.463347 0.807172 -0.656175
399.54296875 1.475401 0.778636 -0.696765
400.0546875 1.479667 0.779852 -0.699815
400.62890625 1.771638 0.976767 -0.794871
401.15234375 1.713529 0.91871 -0.794819
401.7109375 1.6697410000000001 0.879846 -0.789895
402.2890625 1.660194 0.886146 -0.774048
402.8671875 1.806269 0.948256 -0.858013
403.45703125 1.733644 0.89142 -0.842224
404.04296875 1.762211 0.967356 -0.794855
404.609375 1.804999 1.024999 -0.78
405.16796875 1.829786 1.061594 -0.768192
405.72265625 1.852643 1.043064 -0.809579
406.28125 1.705319 0.923892 -0.781427
406.84765625 1.754119 1.002942 -0.751177
407.40625 1.833023 1.044318 -0.788705
408.0 1.819966 1.005 -0.814966
408.625 1.674901 0.895 -0.779901
409.22265625 1.602976 0.891101 -0.711875
409.828125 1.804868 0.98751 -0.817358
410.42578125 1.784661 1.011103 -0.773558
411.01953125 1.569508 0.87482 -0.694688
411.453125 1.575918 0.853219 -0.722699
412.171875 1.7301859999999998 1.096145 -0.634041
412.78125 1.659438 0.995938 -0.6635
413.34765625 1.5283259999999999 0.881589 -0.646737
413.94921875 1.538611 0.861517 -0.677094
414.55078125 1.67395 0.930444 -0.743506
415.1796875 1.77844 1.002731 -0.775709
415.8125 1.722122 0.924349 -0.797773
416.40625 1.578538 0.812238 -0.7663
417.0078125 1.626494 0.93788 -0.688614
417.4609375 1.681196 0.974731 -0.706465
418.13671875 1.759396 1.135854 -0.623542
418.7265625 1.640326 0.964011 -0.676315
419.28125 1.692297 0.996923 -0.695374
419.89453125 1.652445 0.960298 -0.692147
420.5234375 1.731775 1.007951 -0.723824
421.16015625 1.655575 0.916573 -0.739002
421.58203125 1.71893 1.014294 -0.704636
421.953125 1.8263790000000002 1.176975 -0.649404
422.31640625 1.669343 1.090462 -0.578881
422.68359375 1.767872 1.194851 -0.573021
423.0625 1.776938 1.181938 -0.595
423.43359375 1.841881 1.213132 -0.628749
423.8046875 1.841864 1.1541 -0.687764
424.1796875 1.764553 1.097601 -0.666952
424.546875 1.7529240000000001 1.122924 -0.63
424.9140625 1.695703 1.023744 -0.671959
425.2734375 1.7310940000000001 1.011214 -0.71988
425.640625 1.639925 0.908877 -0.731048
426.02734375 1.567805 0.853504 -0.714301
426.41796875 1.665296 0.955666 -0.70963
426.81640625 1.639668 0.899668 -0.74
427.21875 1.8470389999999999 1.105735 -0.741304
427.59765625 1.8526600000000002 1.078785 -0.773875
427.98046875 1.869914 1.109914 -0.76
428.34765625 1.790233 0.99356 -0.796673
428.9609375 1.5449410000000001 0.7 -0.844941
429.56640625 1.4746519999999999 0.62296 -0.851692
430.1484375 1.436369 0.690778 -0.745591
430.70703125 1.390198 0.682996 -0.707202
431.25390625 1.459041 0.714041 -0.745
431.8515625 1.649175 0.854175 -0.795
432.48828125 1.659573 0.82539 -0.834183
432.92578125 1.719344 0.966177 -0.753167
433.2890625 1.899338 1.169908 -0.72943
433.89453125 1.643855 0.929192 -0.714663
434.50390625 1.691561 0.915124 -0.776437
435.109375 1.8030879999999998 0.978088 -0.825
435.70703125 1.702076 0.923865 -0.778211
436.31640625 1.5889769999999999 0.843998 -0.744979
436.92578125 1.569898 0.889734 -0.680164
437.5390625 1.73457 0.94988 -0.78469
438.171875 1.7630970000000001 0.98732 -0.775777
438.83984375 1.729363 0.935858 -0.793505
439.50390625 1.550437 0.809464 -0.740973
440.1640625 1.573794 0.984412 -0.589382
440.8203125 1.7433130000000001 1.050076 -0.693237
441.45703125 1.795375 1.036276 -0.759099
442.015625 1.7888760000000001 0.990121 -0.798755
442.69140625 1.599346 0.839366 -0.75998
443.28125 1.592522 0.861201 -0.731321
443.93359375 1.768263 1.025777 -0.742486
444.59375 1.753657 0.993112 -0.760545
445.2578125 1.7315809999999998 0.926708 -0.804873
445.92578125 1.637296 0.928155 -0.709141
446.54296875 1.7598500000000001 0.999303 -0.760547
447.171875 1.8235999999999999 1.084347 -0.739253
447.7890625 1.7570579999999998 1.024522 -0.732536
448.42578125 1.698242 0.963305 -0.734937
449.05078125 1.7765270000000002 1.105685 -0.670842
449.671875 1.785215 1.081589 -0.703626
450.33203125 1.810006 1.103557 -0.706449
450.9609375 1.779175 1.034393 -0.744782
451.65234375 1.731206 1.024944 -0.706262
452.30078125 1.762999 1.079591 -0.683408
452.95703125 1.9037169999999999 1.188005 -0.715712
453.609375 1.841371 1.120117 -0.721254
454.265625 1.69631 0.957109 -0.739201
454.88671875 1.66155 0.921905 -0.739645
455.50390625 1.740889 0.980895 -0.759994
456.15234375 1.852852 1.08049 -0.772362
456.84375 1.756743 0.907697 -0.849046
457.53515625 1.716948 0.947288 -0.76966
458.19921875 1.72237 0.97141 -0.75096
458.84765625 1.846427 1.128436 -0.717991
459.48828125 1.766119 1.075572 -0.690547
460.12109375 1.685956 0.995229 -0.690727
460.75390625 1.813527 1.078879 -0.734648
461.37109375 1.8374700000000002 1.128181 -0.709289
462.03125 1.780975 1.019739 -0.761236
462.71484375 1.597196 0.908895 -0.688301
463.37890625 1.6859639999999998 0.946672 -0.739292
464.02734375 1.75893 1.104014 -0.654916
464.6640625 1.818764 1.07444 -0.744324
465.32421875 1.8653370000000002 1.030342 -0.834995
465.8515625 1.677105 0.879507 -0.797598
466.6015625 1.661506 0.925009 -0.736497
467.21484375 1.768048 0.982238 -0.78581
467.87890625 1.7810929999999998 0.946301 -0.834792
468.55078125 1.775589 0.936286 -0.839303
469.2109375 1.669874 0.859956 -0.809918
469.8828125 1.723512 0.881934 -0.841578
470.5234375 1.770102 0.946179 -0.823923
471.16015625 1.7420740000000001 0.890138 -0.851936
471.80859375 1.666823 0.863255 -0.803568
472.43359375 1.624569 0.899569 -0.725
473.04296875 1.821457 1.053905 -0.767552
473.69921875 1.8554089999999999 1.04947 -0.805939
474.39453125 1.7795299999999998 0.919816 -0.859714
475.078125 1.736016 0.876525 -0.859491
475.72265625 1.9185889999999999 0.986445 -0.932144
476.359375 1.920378 0.979312 -0.941066
477.01171875 1.8288769999999999 0.868877 -0.96
477.63671875 1.7526700000000002 0.87072 -0.88195
478.265625 1.7888350000000002 0.92849 -0.860345
478.90234375 1.926291 1.043833 -0.882458
479.515625 1.889311 0.988008 -0.901303
480.171875 1.885208 0.982461 -0.902747
480.828125 1.748874 0.888255 -0.860619
481.5 1.809987 0.975 -0.834987
482.1640625 1.938791 1.089562 -0.849229
482.8125 1.96792 1.122895 -0.845025
483.29296875 1.867516 1.072962 -0.794554
484.0234375 1.857088 1.046135 -0.810953
484.67578125 1.769137 0.940218 -0.828919
485.27734375 1.812544 1.045995 -0.766549
485.91796875 1.882698 1.12185 -0.760848
486.58203125 1.93476 1.150133 -0.784627
487.24609375 1.8742379999999998 1.061562 -0.812676
487.8984375 1.8157139999999998 0.966749 -0.848965
488.53515625 1.885648 1.033099 -0.852549
489.16796875 1.890724 1.046572 -0.844152
489.67578125 1.870608 0.997259 -0.873349
490.40625 1.837839 0.954306 -0.883533
491.0390625 1.8075459999999999 0.855711 -0.951835
491.6640625 1.857977 0.969689 -0.888288
492.296875 1.874322 1.029368 -0.844954
492.9609375 1.854679 0.994816 -0.859863
493.61328125 1.737047 0.954444 -0.782603
494.24609375 1.7843 1.008948 -0.775352
494.890625 1.8384019999999999 1.137394 -0.701008
495.5234375 1.92042 1.144624 -0.775796
496.16796875 1.790403 1.012873 -0.77753
496.79296875 1.8134519999999998 1.071909 -0.741543
497.3984375 1.948049 1.226468 -0.721581
498.0546875 1.8876209999999998 1.139552 -0.748069
498.7421875 1.7632919999999999 1.039154 -0.724138
499.421875 1.7402769999999999 1.001506 -0.738771
500.08203125 1.909238 1.113386 -0.795852
500.71484375 1.8745120000000002 1.060823 -0.813689
501.34375 1.771022 1.046537 -0.724485
501.95703125 1.85602 1.07727 -0.77875
502.4921875 1.9340069999999998 1.129624 -0.804383
503.16015625 1.9335140000000002 1.080921 -0.852593
503.79296875 1.819353 0.935782 -0.883571
504.44140625 1.741096 0.883755 -0.857341
505.07421875 1.837868 0.966412 -0.871456
505.70703125 1.945554 1.037673 -0.907881
506.33203125 1.936166 1.03993 -0.896236
506.98828125 1.815902 0.949174 -0.866728
507.45703125 1.948072 1.189972 -0.7581
507.84765625 2.143403 1.498923 -0.64448
508.41796875 1.871 1.072157 -0.798843
509.16796875 1.920456 1.101267 -0.819189
509.8359375 1.943993 1.099185 -0.844808
510.50390625 1.911241 1.061614 -0.849627
511.15625 1.827957 0.999384 -0.828573
511.8125 1.779749 0.972696 -0.807053
512.4453125 1.8993449999999998 1.09099 -0.808355
513.0703125 1.920348 1.081729 -0.838619
513.6875 1.791984 0.953049 -0.838935
514.2890625 1.818972 1.019758 -0.799214
514.89453125 1.9095550000000001 1.119934 -0.789621
515.43359375 1.8579620000000001 1.074602 -0.78336
516.140625 1.782181 0.927779 -0.854402
516.8046875 1.796411 0.991622 -0.804789
517.45703125 1.8434009999999998 1.169323 -0.674078
518.09375 1.8194050000000002 1.151094 -0.668311
518.66015625 1.712475 1.03311 -0.679365
519.36328125 1.8381180000000001 1.074824 -0.763294
520.0078125 1.9094769999999999 1.113268 -0.796209
520.640625 1.914803 1.079803 -0.835
521.265625 1.84684 0.960478 -0.886362
521.76171875 1.691047 0.825214 -0.865833
522.546875 1.917527 1.052902 -0.864625
523.20703125 1.9947759999999999 1.004722 -0.990054
523.875 1.925 1.06 -0.865
524.52734375 1.9522110000000001 1.084837 -0.867374
525.16015625 1.977648 1.142648 -0.835
525.78125 1.993369 1.019675 -0.973694
526.40234375 1.954837 0.973991 -0.980846
527.01953125 1.901446 0.954651 -0.946795
527.6328125 1.6999970000000002 0.68715 -1.012847
528.28515625 1.821303 0.801871 -1.019432
528.95703125 1.93635 0.98053 -0.95582
529.62109375 1.957529 0.937658 -1.019871
530.25 1.9023599999999998 0.95 -0.95236
530.8828125 1.788123 0.904642 -0.883481
531.51171875 1.926568 1.021532 -0.905036
532.14453125 1.9656920000000002 1.034704 -0.930988
532.7890625 1.9783490000000001 1.059328 -0.919021
533.41015625 1.823507 0.947329 -0.876178
534.06640625 1.764982 0.941184 -0.823798
534.734375 1.848139 1.026843 -0.821296
535.3984375 1.8565580000000002 1.019846 -0.836712
536.06640625 1.916895 1.052726 -0.864169
536.71875 1.787325 0.99 -0.797325
537.3671875 1.840831 1.056664 -0.784167
538.015625 1.9131490000000002 1.093501 -0.819648
538.65234375 1.878346 1.014782 -0.863564
539.24609375 1.895577 0.914146 -0.981431
539.88671875 1.8101319999999999 0.920945 -0.889187
540.5703125 1.8538459999999999 0.939523 -0.914323
541.25 1.9798269999999998 1.035 -0.944827
541.8984375 1.932862 0.999727 -0.933135
542.54296875 1.879758 0.952358 -0.9274
543.18359375 1.7635580000000002 0.919788 -0.84377
543.7578125 1.834358 0.99458 -0.839778
544.421875 1.943486 1.06224 -0.881246
545.046875 2.062424 1.102586 -0.959838
545.671875 1.91523 1.040276 -0.874954
546.32421875 1.919915 0.979204 -0.940711
546.984375 1.80925 0.988794 -0.820456
547.640625 1.8541279999999998 1.03154 -0.822588
548.2734375 1.975251 1.092567 -0.882684
548.91796875 2.012452 1.155651 -0.856801
549.5625 2.0379490000000002 1.147949 -0.89
550.1875 1.871854 1.103367 -0.768487
550.8046875 1.893964 1.146191 -0.747773
551.3984375 2.010983 1.257418 -0.753565
552.046875 2.036929 1.25337 -0.783559
552.64453125 1.9447269999999999 1.15493 -0.789797
553.38671875 1.8118400000000001 1.098772 -0.713068
554.05859375 1.9704490000000001 1.16697 -0.803479
554.72265625 1.9988700000000001 1.234285 -0.764585
555.3671875 1.893988 1.106598 -0.78739
555.78125 2.056858 1.338629 -0.718229
556.140625 2.089406 1.459276 -0.63013
556.53125 2.112245 1.305325 -0.80692
556.9609375 1.833997 1.162463 -0.671534
557.51171875 1.98853 1.240342 -0.748188
557.984375 2.058767 1.463767 -0.595
558.375 2.154896 1.68 -0.474896
558.77734375 2.130392 1.598991 -0.531401
559.16796875 2.080289 1.452715 -0.627574
559.55859375 2.052204 1.404168 -0.648036
559.953125 2.050029 1.249842 -0.800187
560.32421875 2.031914 1.36993 -0.661984
560.71484375 2.042883 1.279306 -0.763577
561.08203125 2.160758 1.341327 -0.819431
561.46484375 2.114102 1.204618 -0.909484
561.84375 2.109495 1.224671 -0.884824
562.21875 2.081792 1.323516 -0.758276
562.60546875 1.98 1.26 -0.72
562.98046875 2.0822510000000003 1.229748 -0.852503
563.33203125 2.076413 1.357823 -0.71859
563.71484375 2.097722 1.274544 -0.823178
564.09375 2.159811 1.390356 -0.769455
564.47265625 2.189806 1.304142 -0.885664
564.86328125 2.1992149999999997 1.31768 -0.881535
565.2578125 2.186436 1.248829 -0.937607
565.65234375 2.101903 1.237767 -0.864136
566.05078125 2.111974 1.298026 -0.813948
566.4296875 2.1323670000000003 1.316383 -0.815984
566.8203125 2.151063 1.252447 -0.898616
567.1953125 2.054408 1.241919 -0.812489
567.5625 2.203732 1.272143 -0.931589
567.92578125 2.196537 1.399595 -0.796942
568.2890625 2.174277 1.379863 -0.794414
568.64453125 2.24899 1.459984 -0.789006
569.0078125 2.2306600000000003 1.423213 -0.807447
569.34375 2.197788 1.318975 -0.878813
569.71875 2.119688 1.298272 -0.821416
570.1015625 2.05251 1.364405 -0.688105
570.48828125 2.118158 1.325966 -0.792192
570.890625 2.156679 1.368882 -0.787797
571.28125 2.0319149999999997 1.197255 -0.83466
571.66015625 2.094801 1.277077 -0.817724
572.046875 2.186102 1.281908 -0.904194
572.4140625 2.252262 1.408183 -0.844079
572.78125 2.289268 1.452568 -0.8367
573.15234375 2.201491 1.49123 -0.710261
573.5234375 2.211658 1.39809 -0.813568
573.8984375 2.237451 1.466284 -0.771167
574.26953125 2.203682 1.369739 -0.833943
574.62890625 2.130777 1.370475 -0.760302
574.98828125 2.119637 1.276545 -0.843092
575.34765625 2.0202109999999998 1.280563 -0.739648
575.71484375 2.091087 1.329393 -0.761694
576.1015625 2.0477060000000002 1.284585 -0.763121
576.4921875 2.0779389999999998 1.346793 -0.731146
576.875 2.209918 1.5 -0.709918
577.26953125 2.258529 1.429844 -0.828685
577.640625 2.1799049999999998 1.452996 -0.726909
578.01953125 2.1842230000000002 1.31499 -0.869233
578.3984375 2.12487 1.337182 -0.787688
578.77734375 2.02527 1.295205 -0.730065
579.16015625 2.072469 1.249617 -0.822852
579.53125 2.073184 1.162423 -0.910761
579.8984375 1.873134 1.042483 -0.830651
580.26953125 1.9892979999999998 1.114928 -0.87437
580.64453125 1.9106490000000003 1.119776 -0.790873
581.0 1.9997699999999998 1.17 -0.82977
581.34765625 1.940611 1.151197 -0.789414
581.7265625 2.082222 1.343396 -0.738826
582.1171875 2.165884 1.408062 -0.757822
582.51953125 2.112835 1.269617 -0.843218
582.90234375 2.126746 1.292196 -0.83455
583.30859375 2.142681 1.280485 -0.862196
583.8359375 1.944854 1.069854 -0.875
584.44140625 1.892732 1.022948 -0.869784
585.03515625 1.932599 1.051987 -0.880612
585.64453125 1.8871499999999999 1.034722 -0.852428
586.2265625 1.8556190000000001 1.068264 -0.787355
586.83984375 1.9318969999999998 1.112124 -0.819773
587.45703125 1.953173 1.074218 -0.878955
588.12109375 2.000385 1.07246 -0.927925
588.80078125 2.033435 1.149591 -0.883844
589.48828125 2.061729 1.221959 -0.83977
590.17578125 2.042483 1.162974 -0.879509
590.87109375 1.9152489999999998 1.042339 -0.87291
591.52734375 2.059734 1.11549 -0.944244
592.1875 2.0407900000000003 1.083722 -0.957068
592.81640625 1.957836 1.159398 -0.798438
593.4140625 1.8463749999999999 1.200586 -0.645789
593.89453125 1.739843 1.119995 -0.619848
594.6796875 2.028644 1.300139 -0.728505
595.35546875 1.8928180000000001 1.013654 -0.879164
596.01953125 1.960223 1.005299 -0.954924
596.640625 1.871718 0.909271 -0.962447
597.26953125 2.004817 1.034932 -0.969885
597.875 2.025594 1.145 -0.880594
598.48828125 2.035008 1.125454 -0.909554
599.09765625 1.868321 1.038749 -0.829572
599.53125 2.04653 1.266364 -0.780166
599.90234375 2.120821 1.481474 -0.639347
600.296875 2.065955 1.286151 -0.779804
600.6796875 2.1050709999999997 1.367757 -0.737314
601.0546875 2.193812 1.474172 -0.71964
601.4453125 2.106403 1.333419 -0.772984
601.83203125 2.090137 1.368812 -0.721325
602.21484375 1.999401 1.268686 -0.730715
602.59765625 2.013813 1.24157 -0.772243
602.98046875 1.8648630000000002 1.034863 -0.83
603.37109375 1.947951 1.156337 -0.791614
603.75 1.954921 1.065 -0.889921
604.1328125 2.060963 1.161673 -0.89929
604.51953125 2.04548 1.140584 -0.904896
604.890625 2.26488 1.3354 -0.92948
605.25390625 2.175581 1.293201 -0.88238
605.63671875 2.198963 1.462479 -0.736484
606.0234375 2.194683 1.450134 -0.744549
606.41015625 2.091042 1.445849 -0.645193
606.8046875 2.131083 1.41 -0.721083
607.18359375 2.187538 1.411589 -0.775949
607.57421875 2.164376 1.344885 -0.819491
607.95703125 2.18644 1.317065 -0.869375
608.32421875 2.063873 1.142389 -0.921484
608.7109375 2.1291640000000003 1.154212 -0.974952
609.0859375 2.0856649999999997 1.125595 -0.96007
609.4609375 2.21962 1.254675 -0.964945
609.83203125 2.144566 1.200726 -0.94384
610.19140625 2.263378 1.34849 -0.914888
610.5625 2.236393 1.402571 -0.833822
610.91796875 2.259491 1.427824 -0.831667
611.25390625 2.2464 1.38843 -0.85797
611.6328125 2.197795 1.362528 -0.835267
612.01171875 2.152496 1.199896 -0.9526
612.3984375 2.170683 1.19 -0.980683
612.796875 2.194154 1.277302 -0.916852
613.1796875 2.234919 1.318622 -0.916297
613.56640625 2.112021 1.293169 -0.818852
613.9609375 2.255223 1.420596 -0.834627
614.31640625 2.26049 1.502969 -0.757521
614.67578125 2.2215439999999997 1.484132 -0.737412
615.0390625 2.139191 1.429347 -0.709844
615.40625 2.153216 1.349678 -0.803538
615.78125 2.18431 1.275711 -0.908599
616.1484375 2.1265780000000003 1.176465 -0.950113
616.5078125 2.097499 1.184465 -0.913034
616.8671875 2.11747 1.249597 -0.867873
617.20703125 2.204132 1.310139 -0.893993
617.5625 2.222559 1.395 -0.827559
617.95703125 2.213247 1.391995 -0.821252
618.328125 2.382119 1.517026 -0.865093
618.7109375 2.158628 1.302081 -0.856547
619.109375 2.192161 1.273394 -0.918767
619.484375 2.096847 1.058957 -1.03789
619.87109375 2.033034 1.127214 -0.90582
620.25390625 2.0930400000000002 1.163948 -0.929092
620.63671875 2.068342 1.223735 -0.844607
621.03125 2.309917 1.320769 -0.989148
621.51953125 2.079237 1.188922 -0.890315
622.0625 2.062417 1.254687 -0.80773
622.60546875 2.034727 1.189727 -0.845
623.125 2.037627 1.115 -0.922627
623.6796875 1.9458090000000001 0.985738 -0.960071
624.28515625 1.8682050000000001 0.92826 -0.939945
624.921875 2.167157 1.115488 -1.051669
625.6015625 2.060388 1.195294 -0.865094
626.26171875 2.023385 1.176225 -0.84716
626.9453125 2.0115089999999998 1.125109 -0.8864
627.65234375 2.066821 1.198212 -0.868609
628.33984375 2.028816 1.177119 -0.851697
629.01953125 1.9691269999999998 1.129989 -0.839138
629.703125 2.010628 1.10473 -0.905898
630.40234375 2.0490760000000003 1.094726 -0.95435
631.09765625 2.035405 1.061036 -0.974369
631.78125 1.837635 0.960455 -0.87718
632.4609375 1.844845 0.984932 -0.859913
633.12109375 1.9260030000000001 1.026003 -0.9
633.75390625 1.996354 1.140761 -0.855593
634.36328125 2.050413 1.191648 -0.858765
634.9921875 1.95146 1.119919 -0.831541
635.59765625 1.9289239999999999 1.057515 -0.871409
636.23828125 1.798301 0.973086 -0.825215
636.8984375 1.908668 1.061645 -0.847023
637.3828125 1.843643 1.098253 -0.74539
638.16015625 2.0476270000000003 1.199775 -0.847852
638.79296875 1.843858 1.031058 -0.8128
639.41015625 1.7840719999999999 1.069389 -0.714683
640.015625 1.900077 1.079505 -0.820572
640.625 2.034847 1.245 -0.789847
641.22265625 2.039784 1.196849 -0.842935
641.8515625 1.908297 1.0654 -0.842897
642.49609375 1.753923 1.029015 -0.724908
643.125 1.901542 1.095 -0.806542
643.75390625 1.958729 1.228033 -0.730696
644.390625 1.964662 1.220964 -0.743698
644.99609375 1.937493 1.178719 -0.758774
645.62109375 1.808402 1.165727 -0.642675
646.12890625 1.7547409999999999 1.171614 -0.583127
646.82421875 1.9960689999999999 1.338152 -0.657917
647.421875 1.926145 1.225328 -0.700817
648.03515625 1.932433 1.219389 -0.713044
648.68359375 1.897363 1.213029 -0.684334
649.27734375 1.7648220000000001 1.205897 -0.558925
649.98046875 1.966068 1.404983 -0.561085
650.58984375 1.7781440000000002 1.399264 -0.37888
651.19921875 1.8139029999999998 1.191916 -0.621987
651.80078125 1.786775 1.030139 -0.756636
652.2734375 1.828026 1.082464 -0.745562
652.94921875 2.090501 1.365501 -0.725
653.5625 2.015962 1.335962 -0.68
654.22265625 1.914353 1.28 -0.634353
654.89453125 1.8447719999999999 1.169881 -0.674891
655.54296875 1.7603469999999999 1.02227 -0.738077
656.17578125 1.918189 1.139017 -0.779172
656.7890625 1.8951660000000001 1.177666 -0.7175
657.41796875 1.823292 1.039343 -0.783949
658.04296875 1.89126 1.04101 -0.85025
658.64453125 1.9333390000000001 1.041616 -0.891723
659.23828125 2.052327 1.189444 -0.862883
659.85546875 1.879763 1.069763 -0.81
660.50390625 1.742814 1.06916 -0.673654
661.10546875 1.8398979999999998 1.304898 -0.535
661.80078125 1.9052660000000001 1.288591 -0.616675
662.4296875 1.852401 1.163658 -0.688743
663.078125 1.832574 1.138024 -0.69455
663.68359375 2.067792 1.329432 -0.73836
664.19140625 1.86796 1.139838 -0.728122
664.875 1.79991 1.055 -0.74491
665.484375 1.8558789999999998 1.173182 -0.682697
666.13671875 1.950522 1.203858 -0.746664
666.77734375 1.9782000000000002 1.304415 -0.673785
667.3125 1.778232 1.12125 -0.656982
668.03125 1.966983 1.240289 -0.726694
668.6484375 2.024113 1.324316 -0.699797
669.28515625 1.8841480000000002 1.064438 -0.81971
669.89453125 1.875278 0.930299 -0.944979
670.515625 1.927457 1.034871 -0.892586
671.11328125 1.886573 1.002382 -0.884191
671.703125 1.71 0.941752 -0.768248
672.328125 1.8104490000000002 1.054915 -0.755534
672.9453125 1.960572 1.143363 -0.817209
673.56640625 1.967001 1.100875 -0.866126
674.1796875 1.74275 0.90012 -0.84263
674.796875 1.7774649999999999 0.944221 -0.833244
675.39453125 1.9703779999999997 1.065581 -0.904797
675.984375 1.898949 0.997727 -0.901222
676.578125 1.86672 0.900786 -0.965934
677.1484375 1.760796 0.775 -0.985796
677.7578125 1.7436639999999999 0.813928 -0.929736
678.3828125 1.86588 0.931396 -0.934484
679.0234375 1.890624 0.935 -0.955624
679.6796875 1.847166 0.939811 -0.907355
680.30078125 1.7200890000000002 0.850948 -0.869141
680.91015625 1.7431869999999998 0.965178 -0.778009
681.51171875 1.96739 1.11389 -0.8535
682.1328125 1.927907 1.092759 -0.835148
682.75390625 1.852696 1.014882 -0.837814
683.33984375 1.748447 0.903315 -0.845132
683.97265625 1.8559290000000002 0.983091 -0.872838
684.5625 1.8969740000000002 1.028099 -0.868875
685.2421875 1.858003 0.975484 -0.882519
685.8828125 1.760481 0.899528 -0.860953
686.4921875 1.8135539999999999 0.964392 -0.849162
687.12109375 1.952731 1.124748 -0.827983
687.7421875 1.94866 1.094816 -0.853844
688.33984375 1.84181 1.035823 -0.805987
688.94921875 1.75 1.038753 -0.711247
689.52734375 1.8520150000000002 1.077557 -0.774458
690.16015625 1.971654 1.175 -0.796654
690.8203125 1.895041 1.057548 -0.837493
691.4765625 1.802305 0.968514 -0.833791
692.11328125 1.799537 1.004295 -0.795242
692.71875 1.905456 1.098935 -0.806521
693.328125 1.9667690000000002 1.099185 -0.867584
693.94921875 1.8007140000000001 0.991129 -0.809585
694.54296875 1.782694 0.988636 -0.794058
695.1328125 1.933375 1.089671 -0.843704
695.75 1.980587 1.1 -0.880587
696.3984375 1.832063 0.99 -0.842063
697.0390625 1.779359 0.98462 -0.794739
697.6640625 1.927705 1.019171 -0.908534
698.28125 1.991403 1.077445 -0.913958
698.9140625 1.977153 1.03894 -0.938213
699.546875 1.7405620000000002 0.903289 -0.837273
700.14453125 1.811716 1.009995 -0.801721
700.7578125 1.864096 1.029355 -0.834741
701.33984375 1.8714149999999998 1.085446 -0.785969
701.94140625 1.886829 1.024759 -0.86207
702.61328125 1.737746 0.914003 -0.823743
703.25390625 1.787737 0.933604 -0.854133
703.90625 1.8923199999999998 1.020325 -0.871995
704.5390625 2.003475 1.02977 -0.973705
705.15625 1.829228 0.899961 -0.929267
705.76953125 1.812732 0.949969 -0.862763
706.36328125 1.86319 0.954444 -0.908746
706.97265625 1.84059 1.080509 -0.760081
707.46484375 1.773543 1.080177 -0.693366
708.1953125 1.8457020000000002 1.057201 -0.788501
708.859375 1.692971 0.898057 -0.794914
709.48046875 1.733918 0.918918 -0.815
710.109375 1.9718300000000002 1.050332 -0.921498
710.63671875 1.873977 0.990133 -0.883844
711.31640625 1.897083 0.972774 -0.924309
711.93359375 1.79156 0.924298 -0.867262
712.55078125 1.795987 0.975875 -0.820112
713.14453125 1.8871769999999999 1.019827 -0.86735
713.6015625 1.935305 1.223387 -0.711918
714.3125 1.962888 1.184949 -0.777939
714.97265625 1.7673860000000001 1.047584 -0.719802
715.63671875 1.799789 1.112002 -0.687787
716.28515625 1.9952960000000002 1.260823 -0.734473
716.90234375 1.899512 1.261341 -0.638171
717.5234375 1.9588959999999997 1.166208 -0.792688
718.12890625 1.7919239999999999 0.996172 -0.795752
718.73046875 1.764989 0.964989 -0.8
719.32421875 1.8777979999999999 1.038389 -0.839409
719.94921875 1.9039419999999998 1.092377 -0.811565
720.60546875 1.8202979999999997 1.000298 -0.82
721.2578125 1.837135 1.011127 -0.826008
721.89453125 1.939226 1.034803 -0.904423
722.51953125 2.009561 1.134864 -0.874697
723.140625 1.921336 1.075921 -0.845415
723.76171875 1.895812 1.060526 -0.835286
724.40234375 1.7753079999999999 0.940868 -0.83444
725.01953125 1.904312 1.029779 -0.874533
725.62890625 1.972534 1.069296 -0.903238
726.265625 1.9542359999999999 1.041138 -0.913098
726.9296875 1.818896 0.968945 -0.849951
727.59375 1.77688 0.996731 -0.780149
728.22265625 1.881538 1.144872 -0.736666
728.859375 1.88611 1.283005 -0.603105
729.5 1.9303029999999999 1.24 -0.690303
730.125 1.954974 1.175 -0.779974
730.68359375 1.9386519999999998 1.169905 -0.768747
731.3359375 1.933335 1.114933 -0.818402
731.984375 1.914701 1.044217 -0.870484
732.65625 1.883686 0.989523 -0.894163
733.3203125 1.7227109999999999 0.883388 -0.839323
733.78515625 1.9021780000000001 1.140914 -0.761264
734.1875 2.097797 1.364254 -0.733543
734.73046875 2.099954 1.274954 -0.825
735.203125 1.9390209999999999 1.278683 -0.660338
735.578125 2.016995 1.500329 -0.516666
735.9609375 2.038071 1.524764 -0.513307
736.32421875 2.074851 1.574489 -0.500362
736.69921875 2.0341560000000003 1.542437 -0.491719
737.0703125 2.03894 1.458426 -0.580514
737.4296875 1.947233 1.255711 -0.691522
737.8203125 2.034327 1.24316 -0.791167
738.21875 1.985071 1.207131 -0.77794
738.61328125 1.987932 1.153086 -0.834846
739.01953125 1.966536 1.144674 -0.821862
739.4140625 1.889446 0.979802 -0.909644
739.8046875 1.8641139999999998 1.035145 -0.828969
740.1875 2.010335 1.1264 -0.883935
740.57421875 1.988885 1.063226 -0.925659
740.96875 1.835079 1.096161 -0.738918
741.3671875 1.6021260000000002 0.941606 -0.66052
741.73828125 1.422841 0.843444 -0.579397
742.109375 1.3344179999999999 0.826439 -0.507979
742.48046875 1.279897 0.679897 -0.6
742.84375 1.288097 0.657113 -0.630984
743.1875 1.3784900000000002 0.751801 -0.626689
743.55859375 1.2927170000000001 0.718537 -0.57418
743.94140625 1.3036889999999999 0.698847 -0.604842
744.32421875 1.3656320000000002 0.782456 -0.583176
744.703125 1.6665800000000002 0.963593 -0.702987
745.0859375 1.878771 1.157227 -0.721544
745.48046875 2.155584 1.235584 -0.92
745.859375 2.0980879999999997 1.243482 -0.854606
746.234375 2.040354 1.137135 -0.903219
746.61328125 2.13463 1.184522 -0.950108
746.9765625 2.1959720000000003 1.284226 -0.911746
747.34765625 2.1809760000000002 1.265107 -0.915869
747.7109375 2.295044 1.419748 -0.875296
748.06640625 2.292433 1.449903 -0.84253
748.42578125 2.270573 1.532988 -0.737585
748.7734375 2.2001239999999997 1.489347 -0.710777
749.33203125 1.812296 0.93694 -0.875356
749.91796875 1.758922 0.943109 -0.815813
750.50390625 1.780864 0.971374 -0.80949
751.078125 1.740723 0.987656 -0.753067
751.63671875 1.8992170000000002 1.126795 -0.772422
752.19140625 1.8540360000000002 1.069101 -0.784935
752.74609375 1.77921 0.935166 -0.844044
753.29296875 1.949904 0.958851 -0.991053
753.8515625 1.841844 0.982827 -0.859017
754.3984375 1.881246 1.035095 -0.846151
754.9765625 2.0625739999999997 1.295494 -0.76708
755.32421875 1.9288310000000002 1.345895 -0.582936
756.078125 1.9120970000000002 1.27669 -0.635407
756.703125 1.8661349999999999 1.092031 -0.774104
757.36328125 1.925992 1.090424 -0.835568
758.02734375 1.915416 1.095985 -0.819431
758.6484375 1.85853 1.092264 -0.766266
759.2734375 1.694577 0.89327 -0.801307
759.87109375 1.817358 1.009956 -0.807402
760.47265625 2.0343750000000003 1.248436 -0.785939
761.07421875 2.027667 1.225022 -0.802645
761.64453125 1.824259 1.0147 -0.809559
762.28125 1.6395140000000001 1.136492 -0.503022
762.91796875 1.794249 0.98346 -0.810789
763.546875 1.839543 1.268684 -0.570859
764.15234375 1.93452 1.227782 -0.706738
764.7421875 1.956464 1.066471 -0.889993
765.32421875 1.898719 0.993365 -0.905354
765.859375 1.8642180000000002 0.909421 -0.954797
766.4921875 1.875982 0.82275 -1.053232
767.06640625 1.859561 0.814678 -1.044883
767.62890625 1.739189 0.795291 -0.943898
768.203125 1.777578 0.834405 -0.943173
768.80078125 2.021019 1.194422 -0.826597
769.41015625 1.971786 0.988383 -0.983403
770.0 1.944866 0.94 -1.004866
770.58203125 2.0647960000000003 1.2795 -0.785296
771.16015625 1.948862 1.079784 -0.869078
771.75 1.8299310000000002 1.1 -0.729931
772.30859375 1.903152 1.139175 -0.763977
772.8671875 2.058615 1.349941 -0.708674
773.40234375 2.174786 1.472793 -0.701993
774.0 2.2198960000000003 1.475 -0.744896
774.62109375 2.181107 1.469663 -0.711444
775.22265625 1.933859 1.136726 -0.797133
775.6484375 1.993217 1.274666 -0.718551
776.3359375 2.085894 1.355 -0.730894
776.92578125 1.99218 1.211732 -0.780448
777.50390625 1.916338 1.106123 -0.810215
778.0859375 2.063465 1.163602 -0.899863
778.53515625 2.015229 1.259195 -0.756034
779.171875 2.214413 1.345909 -0.868504
779.796875 2.13324 1.290248 -0.842992
780.44921875 2.1290459999999998 1.259952 -0.869094
781.1171875 1.956395 1.083196 -0.873199
781.7734375 1.959071 1.15792 -0.801151
782.41796875 2.047116 1.294768 -0.752348
783.0859375 1.944153 1.224325 -0.719828
783.6875 2.651471 1.88225 -0.769221
784.34765625 2.1207960000000003 1.393612 -0.727184
784.96875 2.085628 1.296413 -0.789215
785.578125 2.082253 1.231881 -0.850372
786.23046875 1.9398680000000001 1.029868 -0.91
786.87109375 1.916022 1.061123 -0.854899
787.5234375 2.059844 1.187029 -0.872815
788.171875 2.185302 1.29605 -0.889252
788.8046875 2.1067299999999998 1.24396 -0.86277
789.4375 1.906389 1.0704 -0.835989
790.046875 1.81108 0.988932 -0.822148
790.66796875 1.920312 1.121106 -0.799206
791.27734375 2.087582 1.185781 -0.901801
791.70703125 2.052735 1.438564 -0.614171
792.296875 2.169006 1.216967 -0.952039
792.78125 1.8648889999999998 0.991744 -0.873145
793.1875 2.0918669999999997 1.113276 -0.978591
793.59375 2.036372 1.015398 -1.020974
793.98828125 2.009948 0.942016 -1.067932
794.37109375 2.080466 1.142547 -0.937919
794.75390625 2.103757 1.171696 -0.932061
795.140625 2.217692 1.402406 -0.815286
795.53515625 2.1836729999999998 1.213673 -0.97
795.90625 2.173713 1.375047 -0.798666
796.27734375 2.175809 1.265788 -0.910021
796.65234375 2.1640610000000002 1.336603 -0.827458
797.01171875 2.122785 1.228455 -0.89433
797.359375 2.1126560000000003 1.312656 -0.8
797.73046875 2.079838 1.219838 -0.86
798.10546875 2.009792 1.239792 -0.77
798.5 1.8848880000000001 1.085 -0.799888
798.890625 2.072609 1.323942 -0.748667
799.29296875 2.01046 1.293011 -0.717449
799.70703125 2.089444 1.403061 -0.686383
800.09765625 2.305946 1.465 -0.840946
800.46484375 2.1552819999999997 1.426532 -0.72875
800.8515625 2.158127 1.353726 -0.804401
801.1953125 2.161674 1.422898 -0.738776
801.55078125 2.198549 1.451816 -0.746733
801.9140625 2.196658 1.58902 -0.607638
802.5 1.774956 0.94 -0.834956
803.16796875 1.6803789999999998 0.838861 -0.841518
803.76171875 1.820509 0.859132 -0.961377
804.3671875 1.9957420000000001 0.992051 -1.003691
804.984375 2.066502 1.150179 -0.916323
805.5546875 1.920682 1.161171 -0.759511
805.76953125 0.589209 0.274544 -0.314665
806.16796875 1.8902889999999999 1.070393 -0.819896
806.74609375 2.0624700000000002 1.248947 -0.813523
807.3515625 2.121743 1.283043 -0.8387
807.9765625 2.038203 1.226282 -0.811921
808.453125 1.7900909999999999 1.015936 -0.774155
809.17578125 2.304878 1.319191 -0.985687
809.4140625 1.264287 0.400275 -0.864012
809.79296875 1.937066 0.835248 -1.101818
810.44921875 2.0264629999999997 1.340153 -0.68631
811.109375 1.904271 1.173737 -0.730534
811.74609375 1.808308 1.160271 -0.648037
812.38671875 2.0295900000000002 1.409682 -0.619908
813.02734375 2.158512 1.439119 -0.719393
813.6484375 1.969948 1.247265 -0.722683
814.23046875 1.969821 1.214821 -0.755
814.87109375 2.056506 1.22092 -0.835586
815.4765625 1.9411299999999998 1.121816 -0.819314
816.1328125 1.9645069999999998 1.114815 -0.849692
816.79296875 1.98449 1.176303 -0.808187
817.28515625 1.833259 1.118181 -0.715078
818.046875 1.90784 1.00515 -0.90269
818.6875 1.785547 0.839679 -0.945868
819.32421875 1.874291 0.933331 -0.94096
819.921875 1.9813260000000001 0.989824 -0.991502
820.54296875 2.13108 1.076741 -1.054339
821.140625 2.064628 1.0313 -1.033328
821.76953125 1.82717 0.886575 -0.940595
822.40625 1.7699129999999998 0.979312 -0.790601
823.04296875 1.804503 1.112515 -0.691988
823.68359375 2.14761 1.354021 -0.793589
824.3203125 1.967124 1.266734 -0.70039
824.953125 2.008531 1.294193 -0.714338
825.5625 2.0762039999999997 1.336094 -0.74011
826.1796875 2.051443 1.332273 -0.71917
826.796875 2.019436 1.273579 -0.745857
827.38671875 1.880534 1.15686 -0.723674
828.02734375 1.868986 1.23169 -0.637296
828.69140625 1.8998309999999998 1.21 -0.689831
829.359375 1.856965 1.148007 -0.708958
830.0234375 1.962577 1.20223 -0.760347
830.6484375 1.8698540000000001 1.091093 -0.778761
831.28515625 1.726634 0.93373 -0.792904
831.8984375 1.690776 0.940393 -0.750383
832.52734375 1.834238 0.990566 -0.843672
833.15625 1.90761 1.024872 -0.882738
833.7890625 1.819557 0.994605 -0.824952
834.44921875 1.67124 0.888026 -0.783214
835.109375 1.70317 0.859792 -0.843378
835.76953125 1.702215 0.889976 -0.812239
836.4140625 1.7428780000000001 0.873193 -0.869685
837.0625 1.723506 0.87 -0.853506
837.69921875 1.743754 0.875495 -0.868259
838.27734375 1.8475519999999999 0.884998 -0.962554
838.9609375 1.742998 0.693227 -1.049771
839.58203125 1.682849 0.66299 -1.019859
840.24609375 1.729659 0.79317 -0.936489
840.9296875 1.712835 0.858041 -0.854794
841.61328125 1.832748 0.888755 -0.943993
842.265625 1.797326 0.797699 -0.999627
842.91015625 1.9242949999999999 1.040881 -0.883414
843.55078125 1.897218 0.916011 -0.981207
844.1328125 1.851739 0.78958 -1.062159
844.85546875 1.859939 0.874939 -0.985
845.48828125 1.772356 0.791738 -0.980618
846.14453125 1.7593969999999999 0.854805 -0.904592
846.8125 1.698691 0.857649 -0.841042
847.45703125 1.744788 0.883321 -0.861467
848.08984375 2.063838 1.199942 -0.863896
848.69921875 1.643994 0.961788 -0.682206
849.3359375 1.7782680000000002 1.117722 -0.660546
849.9765625 1.857422 1.119012 -0.73841
850.59375 1.881205 1.064331 -0.816874
850.8984375 1.100306 0.418335 -0.681971
851.1875 1.758835 1.153341 -0.605494
851.43359375 0.899913 0.388542 -0.511371
851.8125 1.596704 1.057831 -0.538873
852.45703125 1.702077 0.923579 -0.778498
853.06640625 1.7992720000000002 1.06055 -0.738722
853.734375 1.557303 0.699043 -0.85826
854.09765625 0.423145 -0.341855 -0.765
854.37890625 1.444105 0.991903 -0.452202
855.02734375 1.75388 0.868389 -0.885491
855.64453125 1.794341 0.979715 -0.814626
856.12890625 1.773529 1.057773 -0.715756
856.83203125 1.541557 1.242739 -0.298818
857.43359375 1.7238920000000002 0.759739 -0.964153
858.078125 2.012752 0.815871 -1.196881
858.72265625 1.923657 0.731399 -1.192258
859.3671875 1.711925 0.672051 -1.039874
859.98046875 1.7791260000000002 0.689126 -1.09
860.5859375 1.879558 0.71462 -1.164938
861.20703125 1.8202859999999998 0.820129 -1.000157
861.80859375 2.01305 1.004073 -1.008977
862.23046875 1.9674180000000001 1.229942 -0.737476
862.796875 1.92738 1.103045 -0.824335
863.2421875 1.743124 1.098401 -0.644723
863.62109375 2.0806180000000003 1.511805 -0.568813
864.00390625 2.018042 1.478067 -0.539975
864.39453125 1.9479000000000002 1.453594 -0.494306
864.77734375 2.023125 1.539239 -0.483886
865.15625 1.999793 1.501947 -0.497846
865.54296875 1.9862810000000002 1.520196 -0.466085
865.9375 1.8372060000000001 1.293719 -0.543487
866.328125 1.877931 1.299333 -0.578598
866.72265625 1.9517529999999998 1.349692 -0.602061
867.09375 1.837116 1.242116 -0.595
867.484375 2.0162500000000003 1.46625 -0.55
867.86328125 2.0619069999999997 1.577181 -0.484726
868.234375 2.069048 1.519048 -0.55
868.76171875 1.830901 1.366363 -0.464538
869.453125 1.612832 1.213213 -0.399619
870.0703125 1.776395 1.352614 -0.423781
870.69921875 1.900068 1.37277 -0.527298
871.3203125 1.7906019999999998 1.223323 -0.567279
871.93359375 1.684647 1.167778 -0.516869
872.50390625 1.6726189999999999 1.176335 -0.496284
873.08984375 1.556586 1.06989 -0.486696
873.66015625 1.531789 1.087577 -0.444212
874.23828125 1.610607 1.150984 -0.459623
874.828125 1.676745 1.193419 -0.483326
875.390625 1.5938290000000002 1.103487 -0.490342
876.00390625 1.629462 1.009247 -0.620215
876.6796875 0.276973 -0.19 -0.466973
877.24609375 1.682144 0.909415 -0.772729
877.86328125 1.8198699999999999 0.838414 -0.981456
878.46875 1.7233239999999999 0.915285 -0.808039
879.08203125 1.7276799999999999 1.110849 -0.616831
879.68359375 1.852611 1.139252 -0.713359
880.29296875 1.676054 0.945507 -0.730547
880.83203125 1.660021 0.895399 -0.764622
881.4375 1.793538 0.886005 -0.907533
882.0390625 1.779557 0.889761 -0.889796
882.67578125 1.882377 1.000751 -0.881626
883.29296875 1.785933 0.903714 -0.882219
883.95703125 1.762842 1.048636 -0.714206
884.57421875 1.948799 1.253947 -0.694852
885.1796875 1.939195 1.254543 -0.684652
885.7890625 1.901647 1.201696 -0.699951
886.35546875 1.71 0.99 -0.72
886.99609375 1.870672 1.114769 -0.755903
887.6015625 1.776884 1.283443 -0.493441
888.23828125 1.738168 1.438551 -0.299617
888.87109375 1.867923 1.648004 -0.219919
889.3671875 1.68033 1.465969 -0.214361
890.09375 1.794982 1.380103 -0.414879
890.70703125 1.815733 1.326769 -0.488964
891.3359375 1.686443 1.126148 -0.560295
891.84375 1.6332780000000002 1.077614 -0.555664
892.53125 1.712679 1.107156 -0.605523
893.125 1.86313 1.145 -0.71813
893.7109375 1.829748 1.239793 -0.589955
894.33203125 1.812373 1.226359 -0.586014
894.98046875 1.9182069999999998 1.159922 -0.758285
895.609375 1.783372 1.095 -0.688372
896.234375 1.917619 1.184361 -0.733258
896.8671875 1.851906 0.895588 -0.956318
897.46875 1.8595389999999998 0.938746 -0.920793
898.0703125 1.978125 1.233527 -0.744598
898.66796875 1.917969 1.238482 -0.679487
899.25390625 1.738827 1.01239 -0.726437
899.83984375 1.809692 0.998708 -0.810984
900.5078125 1.8892280000000001 1.080228 -0.809
901.15625 1.730504 1.038129 -0.692375
901.7734375 1.6583679999999998 1.009542 -0.648826
902.3828125 1.754052 0.979227 -0.774825
902.92578125 1.7386119999999998 1.006011 -0.732601
903.57421875 1.6750120000000002 0.674065 -1.000947
904.18359375 1.447926 0.631784 -0.816142
904.76953125 1.296805 1.009885 -0.28692
905.3359375 1.4097499999999998 1.079456 -0.330294
905.9296875 1.264575 0.759963 -0.504612
906.546875 1.267443 0.627443 -0.64
907.15625 1.294988 0.655641 -0.639347
907.765625 1.322915 0.724227 -0.598688
908.37890625 1.3259539999999999 0.776003 -0.549951
908.96484375 1.333713 0.67572 -0.657993
909.55078125 1.178937 0.533125 -0.645812
910.11328125 1.3802500000000002 0.71845 -0.6618
910.69921875 1.471006 1.0 -0.471006
911.265625 1.5826310000000001 1.121016 -0.461615
911.859375 1.439433 1.104954 -0.334479
912.48828125 1.5915030000000001 1.219478 -0.372025
913.1328125 1.693726 1.19961 -0.494116
913.7734375 1.635758 1.11926 -0.516498
914.390625 1.5169130000000002 0.952559 -0.564354
915.0078125 1.534595 0.959804 -0.574791
915.609375 1.607618 1.059849 -0.547769
916.24609375 1.484138 0.920986 -0.563152
916.875 1.669897 0.725 -0.944897
917.46875 1.632857 0.777224 -0.855633
918.11328125 1.6074190000000002 0.950214 -0.657205
918.62890625 1.3939059999999999 0.81722 -0.576686
919.39453125 1.6610800000000001 0.904801 -0.756279
920.0546875 1.5871110000000002 0.908363 -0.678748
920.70703125 1.4980419999999999 0.911942 -0.5861
921.33984375 1.505871 0.984902 -0.520969
921.96875 1.711953 0.927942 -0.784011
922.58203125 1.7317999999999998 0.882218 -0.849582
923.1796875 1.7021860000000002 1.082594 -0.619592
923.796875 1.594796 1.055 -0.539796
924.296875 1.666507 1.052843 -0.613664
925.08984375 1.6104880000000001 1.122846 -0.487642
925.7421875 1.703271 1.20545 -0.497821
926.37109375 1.889776 1.359101 -0.530675
926.984375 1.9553099999999999 1.067482 -0.887828
927.59765625 1.9361869999999999 1.224043 -0.712144
928.21484375 1.8841830000000002 1.354389 -0.529794
928.8125 1.827324 1.259638 -0.567686
929.40625 1.940553 1.20545 -0.735103
930.0 2.0148200000000003 1.25 -0.76482
930.68359375 1.897258 1.133078 -0.76418
931.3203125 1.898917 1.160542 -0.738375
931.953125 1.9108180000000001 1.202422 -0.708396
932.57421875 1.98699 1.31914 -0.66785
933.2109375 1.968818 1.194054 -0.774764
933.8359375 1.809072 1.019096 -0.789976
934.4609375 1.899256 1.114365 -0.784891
935.06640625 1.970617 1.229611 -0.741006
935.671875 1.9085770000000002 1.223319 -0.685258
936.3359375 1.8347669999999998 1.229906 -0.604861
936.9921875 1.7086360000000003 1.186214 -0.522422
937.65625 1.872913 1.26 -0.612913
938.296875 1.881123 1.308332 -0.572791
938.9296875 1.875346 1.28431 -0.591036
939.5546875 1.731255 1.16501 -0.566245
940.1484375 1.708869 1.173869 -0.535
940.62890625 1.7101899999999999 0.961558 -0.748632
941.30859375 1.898038 0.843904 -1.054134
941.95703125 1.912247 1.132263 -0.779984
942.609375 1.849322 1.039898 -0.809424
943.25390625 1.9137469999999999 1.005399 -0.908348
943.89453125 1.878378 0.8948 -0.983578
944.515625 1.752629 0.817851 -0.934778
945.13671875 1.721811 0.765354 -0.956457
945.7578125 1.850657 0.809267 -1.04139
946.375 1.9348429999999999 1.045 -0.889843
946.9921875 1.834235 1.063012 -0.771223
947.5703125 1.7598449999999999 1.052702 -0.707143
948.203125 1.885132 1.154098 -0.731034
948.84765625 1.85381 1.157074 -0.696736
949.51171875 1.7996699999999999 1.115959 -0.683711
950.17578125 1.762606 1.088088 -0.674518
950.8046875 1.8982510000000001 1.154017 -0.744234
951.40234375 1.8794210000000002 1.070391 -0.80903
952.05859375 1.7897600000000002 1.019848 -0.769912
952.6796875 1.7940800000000001 1.084491 -0.709589
953.2890625 1.9985789999999999 1.219395 -0.779184
953.9296875 1.847105 1.052105 -0.795
954.4453125 1.7876910000000001 0.817129 -0.970562
955.26953125 2.056003 0.909732 -1.146271
955.94921875 1.8865279999999998 1.079087 -0.807441
956.609375 1.8381600000000002 1.066518 -0.771642
957.25 1.9649100000000002 1.1 -0.86491
957.90234375 2.0822249999999998 1.242981 -0.839244
958.5703125 2.116108 1.212054 -0.904054
959.19140625 1.895381 1.111108 -0.784273
959.8359375 1.849631 1.119666 -0.729965
960.5 1.997056 1.24 -0.757056
961.1640625 2.04288 1.311675 -0.731205
961.82421875 1.957914 1.224008 -0.733906
962.38671875 1.739608 1.060457 -0.679151
963.0703125 2.001991 0.854539 -1.147452
963.70703125 1.978362 0.994343 -0.984019
964.32421875 2.091155 1.317584 -0.773571
964.95703125 2.014787 1.206273 -0.808514
965.3671875 2.1508659999999997 1.33842 -0.812446
966.12890625 1.8955449999999998 0.959147 -0.936398
966.84375 1.892307 0.989219 -0.903088
967.51953125 2.001195 1.134963 -0.866232
968.03125 2.011104 1.16871 -0.842394
968.734375 2.106983 1.183468 -0.923515
969.3828125 1.9584869999999999 1.094188 -0.864299
970.03125 1.7824520000000001 1.098395 -0.684057
970.64453125 1.8481100000000001 1.226803 -0.621307
971.25 1.8298889999999999 1.015 -0.814889
971.90625 1.9411779999999998 1.166167 -0.775011
972.57421875 1.962534 1.314581 -0.647953
973.26171875 1.808306 1.193925 -0.614381
973.92578125 1.872636 1.217699 -0.654937
974.58203125 2.005133 1.256412 -0.748721
975.26171875 1.900465 1.181928 -0.718537
975.80859375 1.778484 1.074595 -0.703889
976.53515625 2.003355 0.931338 -1.072017
977.15234375 1.908384 1.400527 -0.507857
977.796875 1.778673 1.254417 -0.524256
978.46484375 1.856286 1.008072 -0.848214
979.13671875 1.916839 0.885511 -1.031328
979.8125 2.0542420000000003 1.034413 -1.019829
980.48828125 1.9157790000000001 0.963055 -0.952724
981.13671875 1.860669 0.938278 -0.922391
981.78125 1.8762660000000002 1.006428 -0.869838
982.41015625 2.025561 0.968284 -1.057277
983.0390625 2.168335 1.066836 -1.101499
983.6640625 2.109495 1.374675 -0.73482
984.3125 2.05347 1.45347 -0.6
984.9765625 2.061862 1.427391 -0.634471
985.61328125 2.028548 1.328242 -0.700306
986.25 2.05992 1.315 -0.74492
986.87890625 1.944414 1.256021 -0.688393
987.484375 2.05673 1.272332 -0.784398
988.015625 1.984553 1.117751 -0.866802
988.7109375 2.029748 1.49479 -0.534958
989.30859375 2.021462 1.523919 -0.497543
989.953125 2.149897 1.352727 -0.79717
990.609375 2.007094 1.117995 -0.889099
991.29296875 1.958687 1.131374 -0.827313
991.984375 1.942787 1.159997 -0.78279
992.625 1.9749880000000002 1.215 -0.759988
993.28515625 2.009949 1.353965 -0.655984
993.921875 2.04444 1.346967 -0.697473
994.56640625 2.088968 1.368968 -0.72
995.1953125 1.998252 1.210046 -0.788206
995.83203125 2.054182 1.124182 -0.93
996.546875 2.068993 1.257073 -0.81192
997.2578125 2.014506 1.424879 -0.589627
997.9375 2.1281470000000002 1.473519 -0.654628
998.51171875 1.9087749999999999 1.191825 -0.71695
999.234375 2.034374 1.164886 -0.869488
999.90625 2.108555 1.227395 -0.88116
1000.58203125 1.985828 1.205469 -0.780359
1001.203125 1.8834460000000002 1.170379 -0.713067
1001.6953125 2.012416 1.233836 -0.77858
1002.4453125 1.982282 1.104473 -0.877809
1003.140625 1.887194 0.958974 -0.92822
1003.8046875 1.869229 0.947524 -0.921705
1004.44921875 1.7758159999999998 1.655333 -0.120483
1005.09765625 1.897041 1.401257 -0.495784
1005.73828125 2.032236 1.130799 -0.901437
1006.3515625 2.1173859999999998 1.052776 -1.06461
1006.9609375 2.100419 0.93909 -1.161329
1007.5625 1.983854 0.933714 -1.05014
1008.21875 1.91921 1.048984 -0.870226
1008.890625 1.942238 1.153182 -0.789056
1009.54296875 2.082992 1.377635 -0.705357
1010.1953125 2.260386 1.486278 -0.774108
1010.8203125 1.952366 1.348807 -0.603559
1011.44140625 2.026305 1.111923 -0.914382
1012.078125 1.9424839999999999 1.290465 -0.652019
1012.7109375 1.9492639999999999 1.599356 -0.349908
1013.3203125 2.160351 1.656208 -0.504143
1013.9765625 1.9143700000000001 1.225 -0.68937
1014.640625 1.945935 1.177124 -0.768811
1015.3125 1.86057 1.307105 -0.553465
1015.984375 1.8893270000000002 1.410025 -0.479302
1016.65625 2.008154 1.425052 -0.583102
1017.32421875 1.991689 1.262666 -0.729023
1017.96484375 1.89492 1.161038 -0.733882
1018.578125 2.029256 1.159738 -0.869518
1019.12109375 1.963788 1.129281 -0.834507
1019.80859375 2.074369 1.234797 -0.839572
1020.46484375 2.069441 1.260848 -0.808593
1021.13671875 1.891581 1.272231 -0.61935
1021.796875 1.994452 1.227868 -0.766584
1022.3515625 1.977527 1.229349 -0.748178
1023.05859375 2.043426 1.334077 -0.709349
1023.6875 1.995031 1.263731 -0.7313
1024.3125 1.921534 1.198023 -0.723511
1024.9453125 1.940042 1.198949 -0.741093
1025.5234375 1.938941 1.320117 -0.618824
1026.1953125 1.978724 1.23301 -0.745714
1026.85546875 2.009768 1.164768 -0.845
1027.515625 1.915389 1.040025 -0.875364
1028.15625 1.752626 1.028065 -0.724561
1028.78125 1.8924539999999999 1.3005 -0.591954
1029.42578125 1.723524 1.081544 -0.64198
1030.04296875 1.8488 0.996888 -0.851912
1030.66015625 1.977763 1.275908 -0.701855
1031.2421875 1.9290059999999998 1.187077 -0.741929
1031.85546875 2.059857 1.249857 -0.81
1032.48828125 2.065292 1.156688 -0.908604
1033.14453125 1.96373 1.12084 -0.84289
1033.8125 1.9493580000000001 1.129679 -0.819679
1034.44140625 1.768808 0.696928 -1.07188
1035.05859375 1.832658 0.873312 -0.959346
1035.67578125 1.999472 1.316255 -0.683217
1036.28515625 2.020947 1.365829 -0.655118
1036.8984375 2.0188170000000003 1.25998 -0.758837
1037.4921875 2.138808 1.062103 -1.076705
1038.13671875 2.004944 0.915944 -1.089
1038.80078125 1.885969 0.922837 -0.963132
1039.4375 2.040827 1.109838 -0.930989
1040.0703125 2.048887 1.14921 -0.899677
1040.6796875 2.089651 1.143558 -0.946093
1041.30078125 1.969015 0.85009 -1.118925
1041.91796875 2.01431 1.48441 -0.5299
1042.51171875 2.069276 1.299132 -0.770144
1043.11328125 1.9663689999999998 0.963048 -1.003321
1043.68359375 1.980557 0.897575 -1.082982
1044.30859375 2.005073 1.142965 -0.862108
1044.94921875 2.238385 1.153885 -1.0845
1045.5859375 1.789143 0.68939 -1.099753
1046.23046875 1.959884 1.009884 -0.95
1046.8515625 2.248851 1.210733 -1.038118
1047.46875 2.2433899999999998 1.178807 -1.064583
1048.08203125 2.242718 1.099071 -1.143647
1048.6796875 2.119417 1.12997 -0.989447
1049.28515625 2.034215 1.238181 -0.796034
1049.9296875 1.842168 1.042593 -0.799575
1050.59375 1.97703 0.89 -1.08703
1051.25 1.946418 1.005 -0.941418
1051.88671875 1.864033 0.839747 -1.024286
1052.51171875 1.948039 0.828039 -1.12
1053.140625 1.970788 0.998015 -0.972773
1053.7578125 2.072097 1.075701 -0.996396
1054.3828125 2.2023479999999998 1.131051 -1.071297
1054.9375 1.952675 1.016284 -0.936391
1055.58984375 2.1563790000000003 1.137458 -1.018921
1056.234375 1.979157 0.970947 -1.00821
1056.88671875 1.866913 1.104522 -0.762391
1057.52734375 1.878825 1.061271 -0.817554
1058.16015625 2.058301 1.21864 -0.839661
1058.8125 1.983631 1.240451 -0.74318
1059.44921875 2.097348 1.397713 -0.699635
1060.07421875 2.102568 1.428889 -0.673679
1060.6796875 2.138413 1.294415 -0.843998
1061.26953125 1.974694 1.249957 -0.724737
1061.91015625 2.046123 1.184974 -0.861149
1062.5546875 2.154577 1.262771 -0.891806
1063.20703125 1.86117 1.106175 -0.754995
1063.86328125 1.9814129999999999 1.144186 -0.837227
1064.4765625 2.065604 1.076756 -0.988848
1065.08984375 2.153647 1.090879 -1.062768
1065.68359375 1.978468 1.030645 -0.947823
1066.296875 2.0143899999999997 1.174537 -0.839853
1066.91796875 2.116495 1.280442 -0.836053
1067.49609375 2.082367 1.284329 -0.798038
1068.1171875 2.045449 1.204819 -0.84063
1068.74609375 1.930034 1.131315 -0.798719
1069.38671875 1.93753 1.18753 -0.75
1070.0234375 2.034199 1.221325 -0.812874
1070.6328125 2.125959 1.232129 -0.89383
1071.265625 2.0593019999999997 1.092987 -0.966315
1071.890625 1.963136 1.013741 -0.949395
1072.35546875 1.9848350000000001 1.079835 -0.905
1073.0234375 2.013917 1.159708 -0.854209
1073.62890625 1.964204 0.980856 -0.983348
1074.265625 1.941302 0.774615 -1.166687
1074.9296875 1.870443 1.01435 -0.856093
1075.58984375 2.063235 1.309387 -0.753848
1076.23046875 1.959755 1.189755 -0.77
1076.8515625 1.916362 1.138104 -0.778258
1077.47265625 1.876114 1.160587 -0.715527
1078.08203125 1.983004 1.271058 -0.711946
1078.6953125 2.0579 1.299941 -0.757959
1079.296875 1.865981 1.109163 -0.756818
1079.9296875 1.8878650000000001 1.014831 -0.873034
1080.6015625 1.910402 1.137324 -0.773078
1081.25390625 2.003012 1.23114 -0.771872
1081.90234375 2.066934 1.309732 -0.757202
1082.5234375 1.8735150000000003 1.148578 -0.724937
1083.16015625 1.8591799999999998 1.169063 -0.690117
1083.79296875 1.9296630000000001 1.187484 -0.742179
1084.39453125 2.083987 1.339832 -0.744155
1085.00390625 2.063918 1.310403 -0.753515
1085.5859375 1.919493 1.229596 -0.689897
1086.20703125 1.8541820000000002 1.213011 -0.641171
1086.8515625 1.9952200000000002 1.213089 -0.782131
1087.484375 2.029538 1.197479 -0.832059
1088.1328125 1.857542 1.040451 -0.817091
1088.765625 2.036901 0.79869 -1.238211
1089.3828125 1.966378 0.687228 -1.27915
1089.96875 1.934136 0.916413 -1.017723
1090.58984375 2.011028 1.132796 -0.878232
1091.18359375 1.999226 1.00535 -0.993876
1091.8828125 2.016765 0.779267 -1.237498
1092.55859375 2.0218749999999996 0.797507 -1.224368
1093.2265625 1.8631739999999999 0.853174 -1.01
1093.85546875 1.8503 1.003406 -0.846894
1094.4765625 1.954884 1.147366 -0.807518
1095.125 1.993824 1.225 -0.768824
1095.7421875 2.032812 1.147966 -0.884846
1096.359375 1.869032 0.911908 -0.957124
1096.9765625 1.9154339999999999 1.061755 -0.853679
1097.5703125 1.870345 1.016191 -0.854154
1098.125 1.94 1.045 -0.895
1098.8125 1.9805129999999997 0.946803 -1.03371
1099.45703125 1.898515 0.846093 -1.052422
1100.1015625 1.860652 0.84617 -1.014482
1100.71875 1.936452 0.973137 -0.963315
1101.1640625 1.90385 0.939907 -0.963943
1101.87109375 1.83907 0.901326 -0.937744
1102.48046875 1.78985 0.92985 -0.86
1103.07421875 1.8088540000000002 0.984226 -0.824628
1103.66796875 1.9191859999999998 1.116777 -0.802409
1104.296875 1.903306 1.054492 -0.848814
1104.953125 1.9084409999999998 0.981304 -0.927137
1105.60546875 1.789995 0.879995 -0.91
1106.2265625 1.842483 0.939321 -0.903162
1106.8515625 1.881087 1.009476 -0.871611
1107.45703125 1.82863 1.007168 -0.821462
1108.06640625 1.877932 1.01318 -0.864752
1108.68359375 1.723401 0.68932 -1.034081
1109.26953125 1.869644 0.979875 -0.889769
1109.89453125 1.934679 1.169942 -0.764737
1110.51953125 1.914292 1.084851 -0.829441
1111.171875 1.9023539999999999 0.998548 -0.903806
1111.828125 1.801072 0.934917 -0.866155
1112.44921875 1.8390469999999999 0.98648 -0.852567
1113.09765625 1.8624070000000001 1.097326 -0.765081
1113.73046875 1.9398469999999999 1.134847 -0.805
1114.36328125 1.7978480000000001 0.9932 -0.804648
1114.9765625 1.853996 1.06292 -0.791076
1115.5703125 1.919261 1.150606 -0.768655
1116.21875 1.893276 1.108523 -0.784753
1116.890625 1.827294 0.857717 -0.969577
1117.5546875 1.786538 0.828469 -0.958069
1118.203125 1.8296830000000002 1.016191 -0.813492
1118.8203125 1.8912110000000002 1.244941 -0.64627
1119.3203125 1.8356949999999999 1.231965 -0.60373
1120.0390625 1.8147540000000002 1.213802 -0.600952
1120.66015625 1.749998 1.042182 -0.707816
1121.265625 1.704555 1.037889 -0.666666
1121.82421875 1.950104 1.287069 -0.663035
1122.5390625 1.9831470000000002 1.244957 -0.73819
1123.19921875 2.017088 1.274249 -0.742839
1123.8515625 1.878587 1.218415 -0.660172
1124.484375 1.856745 1.169925 -0.68682
1125.046875 1.830444 1.096913 -0.733531
1125.7734375 1.788983 1.027029 -0.761954
1126.39453125 1.716211 0.816285 -0.899926
1127.0078125 1.829178 0.614727 -1.214451
1127.609375 1.9178229999999998 0.97686 -0.940963
1128.25 1.7849300000000001 1.07 -0.71493
1128.90234375 1.716075 1.071243 -0.644832
1129.55078125 1.92265 1.08765 -0.835
1130.1875 1.802414 1.076525 -0.725889
1130.765625 1.796132 1.053008 -0.743124
1131.42578125 1.763285 0.98624 -0.777045
1132.03515625 1.804614 0.976024 -0.82859
1132.64453125 1.96899 1.074737 -0.894253
1133.2421875 1.686234 0.952776 -0.733458
1133.87890625 1.8781919999999999 1.123643 -0.754549
1134.51953125 1.904323 0.984812 -0.919511
1135.1796875 1.7198769999999999 0.810435 -0.909442
1135.8203125 1.800313 0.874593 -0.92572
1136.44140625 1.8984079999999999 0.943498 -0.95491
1137.0859375 1.8855080000000002 1.033627 -0.851881
1137.71484375 1.945463 1.117003 -0.82846
1138.34765625 1.81644 0.923204 -0.893236
1138.98046875 1.894977 1.014977 -0.88
1139.54296875 1.679789 0.911093 -0.768696
1140.23046875 1.764818 0.924818 -0.84
1140.87890625 1.6528 0.899435 -0.753365
1141.5390625 1.791775 0.984957 -0.806818
1142.2109375 1.879892 1.054957 -0.824935
1142.8359375 1.7098200000000001 0.959877 -0.749943
1143.46875 1.839788 1.035525 -0.804263
1144.0859375 1.869484 1.004554 -0.86493
1144.70703125 1.7134390000000002 0.927045 -0.786394
1145.3046875 1.7894079999999999 0.834408 -0.955
1145.9375 1.883193 0.761346 -1.121847
1146.60546875 1.879939 0.909939 -0.97
1147.28515625 1.719856 1.024856 -0.695
1147.9296875 1.852217 1.117256 -0.734961
1148.5625 1.851496 1.0934 -0.758096
1149.1953125 1.79176 0.92546 -0.8663
1149.83203125 1.690845 0.833471 -0.857374
1150.31640625 1.7289089999999998 0.81985 -0.909059
1151.02734375 1.871636 0.957693 -0.913943
1151.6484375 1.796258 0.909531 -0.886727
1152.28125 1.797281 1.02684 -0.770441
1152.92578125 1.777945 1.018191 -0.759754
1153.58203125 1.916839 1.064468 -0.852371
1154.2265625 1.884522 0.964009 -0.920513
1154.85546875 1.724983 0.834983 -0.89
1155.484375 1.7576230000000002 0.923809 -0.833814
1156.09375 1.857237 1.092237 -0.765
1156.5546875 1.849189 1.060019 -0.78917
1157.2421875 1.9240910000000002 1.106753 -0.817338
1157.88671875 1.888875 0.976267 -0.912608
1158.5546875 1.7692139999999998 0.725799 -1.043415
1159.2109375 1.8493819999999999 0.789526 -1.059856
1159.859375 1.9610859999999999 1.106545 -0.854541
1160.46875 2.053265 1.223587 -0.829678
1161.1015625 1.8581400000000001 1.042816 -0.815324
1161.7265625 1.8607230000000001 1.056799 -0.803924
1162.33203125 1.99209 1.147131 -0.844959
1162.95703125 1.9816600000000002 1.180948 -0.800712
1163.578125 1.9971290000000002 1.13158 -0.865549
1164.22265625 1.889901 1.05087 -0.839031
1164.8828125 1.9699740000000001 1.183148 -0.786826
1165.5390625 1.9515129999999998 1.151679 -0.799834
1166.19921875 2.0358840000000002 1.151062 -0.884822
1166.85546875 1.854983 0.959983 -0.895
1167.48828125 1.8301699999999999 1.033544 -0.796626
1168.12890625 1.949884 1.135002 -0.814882
1168.734375 1.936433 1.091923 -0.84451
1169.3359375 1.845567 0.980589 -0.864978
1169.98046875 1.89687 1.054788 -0.842082
1170.6328125 2.041737 1.116786 -0.924951
1171.3046875 1.960259 1.050633 -0.909626
1171.96484375 1.824153 0.972695 -0.851458
1172.59765625 1.893071 1.039275 -0.853796
1173.234375 1.905023 1.048891 -0.856132
1173.84375 1.9230520000000002 1.02347 -0.899582
1174.46484375 1.9047209999999999 1.02823 -0.876491
1174.9296875 1.738067 0.993067 -0.745
1175.640625 1.805909 1.117529 -0.68838
1176.29296875 1.873802 0.919344 -0.954458
1176.94140625 2.073288 0.83359 -1.239698
1177.6015625 1.940767 0.912455 -1.028312
1178.25 1.924947 0.995 -0.929947
1178.875 1.839877 1.045 -0.794877
1179.51953125 1.979422 1.124848 -0.854574
1180.11328125 1.955358 1.142158 -0.8132
1180.77734375 1.948102 1.073641 -0.874461
1181.375 1.7748680000000001 1.0 -0.774868
1182.00390625 1.815963 1.045291 -0.770672
1182.49609375 1.954412 1.140364 -0.814048
1183.25390625 1.861301 1.016566 -0.844735
1183.9453125 1.711164 0.922584 -0.78858
1184.5859375 1.8252929999999998 0.949233 -0.87606
1185.21484375 1.9266169999999998 0.935549 -0.991068
1185.8359375 1.976082 1.009826 -0.966256
1186.44921875 1.809676 0.945 -0.864676
1187.06640625 1.843255 1.053561 -0.789694
1187.68359375 2.001306 1.193309 -0.807997
1188.29296875 1.922822 1.132686 -0.790136
1189.0 1.814578 1.135 -0.679578
1189.65625 1.8339370000000002 1.090518 -0.743419
1190.30078125 1.997058 0.933256 -1.063802
1190.8359375 1.909779 0.754795 -1.154984
1191.55859375 1.8575 0.943876 -0.913624
1192.20703125 1.946888 1.083953 -0.862935
1192.8203125 2.014283 1.177737 -0.836546
1193.41015625 1.829323 1.058049 -0.771274
1194.04296875 1.8664199999999997 1.04642 -0.82
1194.68359375 1.949563 0.89825 -1.051313
1195.3359375 2.038948 1.114117 -0.924831
1195.984375 1.878129 1.167688 -0.710441
1196.6171875 1.820045 1.223668 -0.596377
1197.2578125 1.93011 1.245934 -0.684176
1197.8671875 1.937348 1.235425 -0.701923
1198.48828125 1.9106550000000002 1.173596 -0.737059
1199.08984375 1.8578320000000001 1.14324 -0.714592
1199.6953125 1.85164 1.172585 -0.679055
1200.35546875 1.994859 1.249859 -0.745
1201.01171875 2.0210790000000003 1.255408 -0.765671
1201.67578125 1.854558 1.090108 -0.76445
1202.16015625 1.76984 1.087576 -0.682264
1202.8515625 1.8795579999999998 1.180645 -0.698913
1203.5078125 1.9177380000000002 1.148451 -0.769287
1204.125 2.059791 1.235 -0.824791
1204.75390625 1.942074 1.067079 -0.874995
1205.36328125 1.8818160000000002 1.004258 -0.877558
1206.0 1.7449789999999998 0.945 -0.799979
1206.65625 1.855827 1.032031 -0.823796
1207.29296875 1.8943120000000002 1.077096 -0.817216
1207.95703125 1.909968 1.185616 -0.724352
1208.609375 1.910114 1.112303 -0.797811
1209.2421875 1.8670719999999998 0.947785 -0.919287
1209.86328125 1.907832 0.93603 -0.971802
1210.4375 1.936804 1.057799 -0.879005
1211.0859375 1.8818860000000002 1.024734 -0.857152
1211.6953125 1.8170870000000001 1.047028 -0.770059
1212.3359375 1.944159 1.079389 -0.86477
1212.9296875 1.798621 1.04138 -0.757241
1213.66015625 2.009121 1.145107 -0.864014
1214.30859375 1.981639 1.16 -0.821639
1214.95703125 1.918617 1.131645 -0.786972
1215.5859375 1.9231690000000001 1.128368 -0.794801
1216.2109375 1.8291659999999998 1.109324 -0.719842
1216.84375 2.019647 1.195726 -0.823921
1217.453125 2.0002269999999998 1.248138 -0.752089
1218.10546875 1.902381 1.076877 -0.825504
1218.74609375 1.935159 0.920749 -1.01441
1219.3671875 1.9416200000000001 0.796173 -1.145447
1220.0703125 1.848898 0.98291 -0.865988
1220.69140625 1.981045 1.17741 -0.803635
1221.33984375 1.9111829999999999 1.126228 -0.784955
1221.98046875 1.951034 1.0664 -0.884634
1222.6171875 1.8967479999999999 1.015367 -0.881381
1223.2265625 1.804651 1.087456 -0.717195
1223.84375 2.013477 1.264669 -0.748808
1224.50390625 1.9386590000000001 1.44327 -0.495389
1225.01953125 1.933875 1.344745 -0.58913
1225.796875 1.872527 1.273781 -0.598746
1226.44140625 1.9760649999999997 0.957378 -1.018687
1227.0703125 1.947553 0.744496 -1.203057
1227.6875 1.804385 0.914212 -0.890173
1228.296875 2.089249 1.155772 -0.933477
1228.8984375 2.024044 1.238385 -0.785659
1229.50390625 1.9965380000000001 1.246331 -0.750207
1230.14453125 2.129785 1.204883 -0.924902
1230.63671875 1.80072 0.774455 -1.026265
1231.3984375 1.86859 0.913121 -0.955469
1232.05859375 1.972579 1.173764 -0.798815
1232.6796875 2.124105 1.31526 -0.808845
1233.3125 2.0585009999999997 1.249545 -0.808956
1233.953125 1.970415 1.205186 -0.765229
1234.56640625 1.878709 1.159101 -0.719608
1235.171875 2.044146 1.178099 -0.866047
1235.76171875 2.057418 1.055918 -1.0015
1236.3984375 1.974065 1.036918 -0.937147
1237.0625 1.818006 1.178193 -0.639813
1237.69921875 1.9097659999999999 1.280317 -0.629449
1238.3203125 2.0187679999999997 1.420105 -0.598663
1238.9765625 2.028377 1.343377 -0.685
1239.58203125 1.912336 1.228315 -0.684021
1240.1875 1.837701 1.223333 -0.614368
1240.78125 2.031229 1.283967 -0.747262
1241.37109375 2.055129 1.253202 -0.801927
1242.015625 1.996698 1.194268 -0.80243
1242.6484375 1.932664 0.865217 -1.067447
1243.3046875 2.0568210000000002 0.887677 -1.169144
1243.9375 1.9965069999999998 1.157549 -0.838958
1244.55859375 1.897268 1.178575 -0.718693
1245.1953125 1.987269 1.15721 -0.830059
1245.8046875 2.031512 1.196512 -0.835
1246.3359375 1.9649240000000001 1.144627 -0.820297
1247.03125 1.877944 1.213697 -0.664247
1247.625 1.9649809999999999 1.27 -0.694981
1248.265625 2.002524 1.260387 -0.742137
1248.90625 2.033001 1.149419 -0.883582
1249.546875 1.9766629999999998 1.073705 -0.902958
1250.1953125 1.957015 1.221884 -0.735131
1250.82421875 2.084499 1.445461 -0.639038
1251.44921875 2.097603 1.424587 -0.673016
1252.04296875 1.9511669999999999 1.190509 -0.760658
1252.6484375 1.957706 0.970116 -0.98759
1253.23828125 1.958977 1.177608 -0.781369
1253.84375 2.120932 1.414595 -0.706337
1254.484375 2.067758 1.309659 -0.758099
1255.13671875 1.857644 1.125444 -0.7322
1255.78515625 1.995217 1.271795 -0.723422
1256.41015625 2.037108 1.395552 -0.641556
1257.02734375 2.132837 1.498391 -0.634446
1257.640625 2.0495959999999998 1.414999 -0.634597
1258.265625 1.88233 1.2303 -0.65203
1258.8828125 1.98726 1.31266 -0.6746
1259.46875 2.033811 1.224324 -0.809487
1260.0 2.003523 1.195 -0.808523
1260.71484375 2.005711 1.267801 -0.73791
1261.35546875 1.9252989999999999 1.285299 -0.64
1262.0 1.9608940000000001 1.33 -0.630894
1262.625 2.049881 1.38 -0.669881
1263.25390625 1.9491740000000002 1.228188 -0.720986
1263.87890625 1.9881539999999998 1.174864 -0.81329
1264.48828125 2.133841 1.027944 -1.105897
1265.09765625 2.125051 1.089739 -1.035312
1265.6875 1.8876150000000003 1.12 -0.767615
1266.328125 1.928301 1.344176 -0.584125
1267.0 2.0549809999999997 1.325 -0.729981
1267.6484375 2.119328 1.254063 -0.865265
1268.29296875 2.047089 0.93738 -1.109709
1268.90625 1.9301850000000003 0.890974 -1.039211
1269.52734375 1.983163 1.234702 -0.748461
1270.140625 1.937661 1.318013 -0.619648
1270.765625 1.984262 1.239617 -0.744645
1271.36328125 2.054474 1.240614 -0.81386
1272.01171875 2.1110860000000002 1.091724 -1.019362
1272.65625 1.9456639999999998 1.072252 -0.873412
1273.3046875 1.977785 1.252785 -0.725
1273.94140625 2.127622 1.3882 -0.739422
1274.578125 2.193188 1.384446 -0.808742
1275.2265625 2.0050559999999997 1.191898 -0.813158
1275.8359375 2.014637 1.109737 -0.9049
1276.44921875 1.979952 0.897047 -1.082905
1277.046875 2.169296 1.335 -0.834296
1277.6328125 2.082353 1.303346 -0.779007
1278.27734375 2.044734 1.279734 -0.765
1278.9140625 2.0009390000000002 1.167075 -0.833864
1279.55859375 1.927753 1.098694 -0.829059
1280.19921875 1.96988 1.149885 -0.819995
1280.62890625 2.161485 1.440499 -0.720986
1281.28125 2.010493 1.194839 -0.815654
1281.8984375 1.9552740000000002 1.222447 -0.732827
1282.4921875 2.116114 1.121199 -0.994915
1283.09375 2.143751 1.161656 -0.982095
1283.6953125 2.115199 1.33114 -0.784059
1284.3203125 2.0960270000000003 1.303406 -0.792621
1284.953125 1.9051909999999999 1.127205 -0.777986
1285.5859375 1.954376 1.174094 -0.780282
1286.22265625 2.097067 1.246175 -0.850892
1286.8515625 2.090661 1.283308 -0.807353
1287.4765625 1.955286 1.167899 -0.787387
1288.1015625 1.940329 1.152976 -0.787353
1288.734375 2.026989 1.143819 -0.88317
1289.328125 2.099387 1.098659 -1.000728
1289.96484375 2.0501899999999997 1.130674 -0.919516
1290.61328125 1.833008 1.0924 -0.740608
1291.29296875 1.924415 1.128739 -0.795676
1291.83984375 1.9902039999999999 1.156561 -0.833643
1292.58203125 2.028684 1.228684 -0.8
1293.23828125 1.925411 0.903356 -1.022055
1293.859375 1.873248 0.989921 -0.883327
1294.48046875 1.9733559999999999 1.366914 -0.606442
1295.10546875 1.9631100000000001 1.329989 -0.633121
1295.70703125 1.843267 1.126374 -0.716893
1296.359375 1.9329040000000002 0.969577 -0.963327
1297.03125 2.043793 1.108793 -0.935
1297.62890625 1.906282 1.15033 -0.755952
1298.31640625 1.984091 1.354111 -0.62998
1298.93359375 1.9821900000000001 1.299361 -0.682829
1299.55859375 1.9660259999999998 1.17813 -0.787896
1300.1875 1.893635 0.963023 -0.930612
1300.8046875 1.8860830000000002 1.083547 -0.802536
1301.40625 2.070837 1.373815 -0.697022
1302.0390625 2.082952 1.444123 -0.638829
1302.703125 1.90106 1.262322 -0.638738
1303.3828125 1.924058 1.179618 -0.74444
1304.03125 2.0827590000000002 1.172379 -0.91038
1304.51953125 2.014319 1.154903 -0.859416
1305.2890625 1.9728620000000001 1.261152 -0.71171
1305.9296875 1.790193 1.186835 -0.603358
1306.5546875 1.9266550000000002 1.223896 -0.702759
1307.1640625 2.027176 1.20873 -0.818446
1307.78125 1.970581 1.17 -0.800581
1308.44921875 1.908791 1.075183 -0.833608
1309.10546875 1.8549319999999998 0.894932 -0.96
1309.76953125 1.880423 1.129845 -0.750578
1310.390625 2.038095 1.366827 -0.671268
1311.015625 2.028635 1.318159 -0.710476
1311.65625 2.006513 1.2089 -0.797613
1312.2734375 1.905796 1.095186 -0.81061
1312.90234375 2.038219 1.105041 -0.933178
1313.515625 2.054734 1.160607 -0.894127
1314.16796875 1.955842 1.141142 -0.8147
1314.84375 1.906215 1.190013 -0.716202
1315.5 2.079936 1.24 -0.839936
1316.1640625 2.122806 1.179226 -0.94358
1316.828125 1.9202810000000001 1.036145 -0.884136
1317.37890625 1.819664 1.051831 -0.767833
1318.08203125 2.062121 1.174059 -0.888062
1318.703125 2.086287 1.269118 -0.817169
1319.3125 1.884841 1.210137 -0.674704
1319.95703125 1.918204 1.208615 -0.709589
1320.6015625 1.9700090000000001 1.265009 -0.705
1321.28125 2.042491 1.366955 -0.675536
1321.95703125 1.987168 1.200979 -0.786189
1322.59375 1.8932220000000002 0.947142 -0.94608
1323.23828125 1.92011 1.150709 -0.769401
1323.859375 1.996159 1.335 -0.661159
1324.48828125 1.932982 1.227761 -0.705221
1325.12109375 1.908701 1.022665 -0.886036
1325.734375 1.909775 1.004775 -0.905
1326.359375 1.9929540000000001 1.232656 -0.760298
1327.01953125 2.008629 1.196379 -0.81225
1327.66796875 1.862301 1.18991 -0.672391
1328.31640625 1.9391790000000002 1.234401 -0.704778
1328.94140625 2.043847 1.219201 -0.824646
1329.484375 1.9530880000000002 1.208088 -0.745
1330.1875 1.8975250000000001 1.232344 -0.665181
1330.8203125 1.9962870000000001 1.165122 -0.831165
1331.42578125 2.09402 1.041731 -1.052289
1331.8984375 1.857372 0.97338 -0.883992
1332.6640625 1.932886 1.234234 -0.698652
1333.35546875 1.975584 1.225584 -0.75
1334.0234375 2.003602 1.183836 -0.819766
1334.6484375 1.968947 1.081867 -0.88708
1335.28125 1.898825 0.917066 -0.981759
1335.90234375 2.055289 1.070636 -0.984653
1336.5234375 1.99106 1.011331 -0.979729
1337.1328125 1.900417 1.009304 -0.891113
1337.7421875 2.046751 1.100166 -0.946585
1338.39453125 2.104864 1.174934 -0.92993
1339.05078125 1.8845519999999998 1.061888 -0.822664
1339.69140625 1.932517 0.987704 -0.944813
1340.328125 2.07981 1.094261 -0.985549
1340.953125 2.054766 1.234766 -0.82
1341.58984375 1.948774 1.216626 -0.732148
1342.21875 1.904426 1.149674 -0.754752
1342.83984375 1.9185059999999998 1.136305 -0.782201
1343.4375 2.010089 1.208596 -0.801493
1344.06640625 1.998167 1.174032 -0.824135
1344.73046875 1.890297 1.150297 -0.74
1345.3984375 2.045312 0.999829 -1.045483
1346.06640625 2.128227 1.293849 -0.834378
1346.7109375 2.034974 1.454979 -0.579995
1347.375 2.0848139999999997 1.41 -0.674814
1348.01171875 1.949514 1.187355 -0.762159
1348.640625 1.992283 1.069384 -0.922899
1349.23828125 1.877456 0.983825 -0.893631
1349.890625 1.943048 1.07887 -0.864178
1350.5703125 2.044124 1.029617 -1.014507
1351.23046875 1.9999250000000002 0.959925 -1.04
1351.89453125 1.854438 1.139816 -0.714622
1352.52734375 2.059097 1.374512 -0.684585
1353.16796875 1.982731 1.200882 -0.781849
1353.79296875 1.871737 1.080726 -0.791011
1354.4140625 1.927022 1.089957 -0.837065
1355.05859375 2.024184 1.179737 -0.844447
1355.68359375 1.980743 1.100525 -0.880218
1356.33203125 1.8510659999999999 1.028074 -0.822992
1357.0 1.9299659999999998 1.115 -0.814966
1357.66796875 1.977348 1.174015 -0.803333
1358.33203125 1.94816 1.088844 -0.859316
1358.9921875 1.920738 1.080203 -0.840535
1359.63671875 1.994133 1.15675 -0.837383
1360.2578125 1.961888 1.112889 -0.848999
1360.87890625 1.913935 1.089946 -0.823989
1361.48828125 1.8231570000000001 0.999455 -0.823702
1362.125 2.004912 1.175 -0.829912
1362.80078125 2.049163 1.208826 -0.840337
1363.46875 2.100347 1.127224 -0.973123
1364.140625 1.884517 1.280189 -0.604328
1364.77734375 1.9617300000000002 1.248269 -0.713461
1365.41015625 2.023765 1.158553 -0.865212
1365.98046875 1.9999699999999998 1.05497 -0.945
1366.6953125 1.927808 0.976884 -0.950924
1367.31640625 1.914348 0.889348 -1.025
1367.96484375 2.03688 1.137378 -0.899502
1368.625 2.004921 1.205 -0.799921
1369.29296875 1.872661 1.130161 -0.7425
1369.95703125 1.911699 1.202335 -0.709364
1370.5859375 2.089462 1.219634 -0.869828
1371.25 2.0077920000000002 1.1 -0.907792
1371.890625 1.9593939999999999 1.005 -0.954394
1372.50390625 1.9072580000000001 0.954882 -0.952376
1373.1328125 1.879508 0.99715 -0.882358
1373.73046875 2.07494 1.14994 -0.925
1374.37890625 1.966926 1.080933 -0.885993
1375.0625 1.984368 1.100937 -0.883431
1375.734375 1.9472749999999999 0.913152 -1.034123
1376.3828125 1.919103 0.989816 -0.929287
1377.0078125 1.9971290000000002 1.077469 -0.91966
1377.63671875 2.040471 1.082116 -0.958355
1378.27734375 1.886529 0.945135 -0.941394
1378.890625 1.909597 0.976563 -0.933034
1379.49609375 1.930701 1.169781 -0.76092
1380.15625 2.007957 1.276859 -0.731098
1380.8203125 2.0182979999999997 1.134847 -0.883451
1381.47265625 1.932273 0.904087 -1.028186
1382.11328125 1.9549699999999999 0.8574 -1.09757
1382.7421875 1.9989540000000001 1.047465 -0.951489
1383.390625 2.0509250000000003 1.153013 -0.897912
1384.01171875 1.9615810000000002 1.066974 -0.894607
1384.62890625 1.9293740000000001 1.031136 -0.898238
1385.21875 2.02284 1.013789 -1.009051
1385.83203125 2.099165 0.98939 -1.109775
1386.48046875 1.864983 0.834983 -1.03
1387.12890625 1.94843 1.094707 -0.853723
1387.79296875 1.934259 1.135605 -0.798654
1388.44140625 2.0494060000000003 1.189521 -0.859885
1389.0625 2.046408 1.178192 -0.868216
1389.6953125 2.0085680000000004 1.071792 -0.936776
1390.30859375 2.028626 1.037191 -0.991435
1390.92578125 1.8494730000000001 1.003745 -0.845728
1391.53125 1.8931870000000002 1.023187 -0.87
1392.17578125 2.088723 1.116143 -0.97258
1392.83203125 2.03063 1.143965 -0.886665
1393.47265625 1.9922630000000001 1.023635 -0.968628
1394.12109375 1.94265 0.921736 -1.020914
1394.75 1.896141 0.9 -0.996141
1395.25390625 1.803512 0.869041 -0.934471
1395.97265625 1.916472 0.951209 -0.965263
1396.6015625 1.775146 0.932827 -0.842319
1397.20703125 1.9132600000000002 0.973292 -0.939968
1397.80859375 1.968794 0.921521 -1.047273
1398.296875 1.94685 0.793019 -1.153831
1399.0234375 1.8704360000000002 0.947239 -0.923197
1399.70703125 1.8874779999999998 1.033162 -0.854316
1400.3671875 1.82949 1.029336 -0.800154
1401.0 1.954929 1.0 -0.954929
1401.6328125 1.9283299999999999 0.967865 -0.960465
1402.2578125 1.925401 0.826375 -1.099026
1402.87109375 1.844566 0.855291 -0.989275
1403.46875 1.874078 1.059677 -0.814401
1404.12109375 1.916767 1.124344 -0.792423
1404.78515625 2.011899 1.148403 -0.863496
1405.453125 2.014015 1.129831 -0.884184
1406.11328125 1.962821 1.029729 -0.933092
1406.60546875 1.954882 1.034882 -0.92
1407.32421875 1.884804 0.981947 -0.902857
1407.98046875 1.899829 0.974829 -0.925
1408.6328125 1.749787 0.880866 -0.868921
1409.2421875 1.965064 0.817904 -1.14716
1409.71875 1.970888 0.930991 -1.039897
1410.42578125 1.8240509999999999 0.872648 -0.951403
1411.1015625 1.822975 1.086663 -0.736312
1411.76171875 1.912303 1.059482 -0.852821
1412.24609375 1.930282 1.089405 -0.840877
1412.9609375 2.079685 1.07972 -0.999965
1413.62890625 1.952917 0.932339 -1.020578
1414.25390625 1.858275 0.833004 -1.025271
1414.87109375 1.8458809999999999 0.80814 -1.037741
1415.47265625 2.04506 1.120795 -0.924265
1416.12890625 2.043481 1.266416 -0.777065
1416.80859375 2.034434 1.194611 -0.839823
1417.46484375 1.886074 1.027792 -0.858282
1418.12890625 1.864236 0.938195 -0.926041
1418.75390625 1.780813 0.933244 -0.847569
1419.375 2.009922 1.005 -1.004922
1420.00390625 2.0161670000000003 0.956156 -1.060011
1420.625 2.009874 0.955 -1.054874
1421.234375 1.987823 1.037823 -0.95
1421.8671875 1.9581520000000001 1.019816 -0.938336
1422.515625 2.025 1.116099 -0.908901
1423.18359375 1.949099 1.034632 -0.914467
1423.83203125 1.891298 0.949403 -0.941895
1424.46875 1.876655 0.774234 -1.102421
1425.109375 1.8324639999999999 0.900233 -0.932231
1425.7265625 1.997182 1.157966 -0.839216
1426.3515625 2.0556970000000003 1.190665 -0.865032
1426.95703125 1.929925 1.016929 -0.912996
1427.5546875 1.9086180000000001 0.992395 -0.916223
1428.20703125 1.9531880000000001 1.073557 -0.879631
1428.86328125 2.030436 1.107878 -0.922558
1429.5390625 1.967979 1.009053 -0.958926
1430.2109375 1.96117 1.019238 -0.941932
1430.84375 1.9207269999999999 1.027145 -0.893582
1431.4765625 1.9844870000000001 1.104487 -0.88
1432.09765625 2.056839 1.103788 -0.953051
1432.73046875 1.994826 1.054826 -0.94
1433.3515625 1.883099 1.037456 -0.845643
1433.984375 1.886778 1.003493 -0.883285
1434.6484375 2.0137490000000002 1.129898 -0.883851
1435.30078125 1.9541970000000002 1.038696 -0.915501
1435.95703125 1.8029410000000001 0.936032 -0.866909
1436.59375 1.9144929999999998 1.065462 -0.849031
1437.22265625 1.988159 1.089873 -0.898286
1437.859375 1.990257 1.075173 -0.915084
1438.4921875 1.9006850000000002 0.962732 -0.937953
1439.109375 1.9356209999999998 0.841036 -1.094585
1439.7109375 1.998928 1.009185 -0.989743
1440.3515625 1.9864899999999999 1.215693 -0.770797
1441.01953125 1.9841929999999999 1.14479 -0.839403
1441.703125 1.846847 0.922337 -0.92451
1442.359375 1.882074 0.93504 -0.947034
1443.01171875 2.0352069999999998 1.144752 -0.890455
1443.640625 1.900319 1.105121 -0.795198
1444.27734375 1.868407 1.121411 -0.746996
1444.91796875 1.928432 1.126966 -0.801466
1445.515625 2.034093 1.146843 -0.88725
1446.12109375 1.914279 1.065 -0.849279
1446.8515625 1.8791509999999998 0.832634 -1.046517
1447.5078125 2.044894 1.0291 -1.015794
1448.16796875 1.9325700000000001 1.140393 -0.792177
1448.7890625 1.8299539999999999 1.192276 -0.637678
1449.42578125 1.880608 1.228166 -0.652442
1450.0625 1.969677 1.279394 -0.690283
1450.68359375 1.950051 1.224006 -0.726045
1451.2890625 1.845503 1.169409 -0.676094
1451.90234375 1.87927 1.009496 -0.869774
1452.546875 1.999142 1.081544 -0.917598
1453.21875 1.9863009999999999 1.142537 -0.843764
1453.8671875 1.79764 1.122904 -0.674736
1454.515625 1.7868410000000001 1.141841 -0.645
1455.16015625 1.984007 1.030289 -0.953718
1455.78515625 1.972456 0.971573 -1.000883
1456.41015625 1.871422 1.057345 -0.814077
1457.01171875 1.876179 1.041908 -0.834271
1457.61328125 1.936841 1.137216 -0.799625
1458.2734375 1.988295 1.251225 -0.73707
1458.93359375 1.952264 1.205 -0.747264
1459.59375 1.869703 1.077966 -0.791737
1460.2265625 1.877488 1.012488 -0.865
1460.8515625 1.952237 1.130665 -0.821572
1461.48046875 2.0047099999999998 1.17471 -0.83
1462.0859375 2.003828 1.093986 -0.909842
1462.71875 1.848169 1.088883 -0.759286
1463.31640625 1.92834 1.183646 -0.744694
1463.8671875 1.891032 1.224068 -0.666964
1464.578125 2.070802 1.306799 -0.764003
1465.234375 1.9052449999999999 1.118109 -0.787136
1465.890625 1.792957 1.119921 -0.673036
1466.52734375 1.9441359999999999 1.163991 -0.780145
1467.17578125 2.042373 1.289668 -0.752705
1467.8046875 1.9398399999999998 1.19701 -0.74283
1468.4140625 2.0133400000000004 1.264377 -0.748963
1469.0234375 1.844277 1.130449 -0.713828
1469.62109375 1.922428 1.226963 -0.695465
1470.265625 2.0086310000000003 1.319082 -0.689549
1470.93359375 2.0230550000000003 1.263945 -0.75911
1471.58984375 1.928028 1.031492 -0.896536
1472.24609375 1.9039059999999999 1.145425 -0.758481
1472.87109375 1.987498 1.320625 -0.666873
1473.4921875 1.9733040000000002 1.328273 -0.645031
1474.109375 1.883941 1.144312 -0.739629
1474.67578125 1.7880719999999999 1.109087 -0.678985
1475.3359375 1.909783 1.159489 -0.750294
1475.96875 1.976207 1.292 -0.684207
1476.62109375 2.012266 1.311148 -0.701118
1477.28125 1.935897 1.105 -0.830897
1477.93359375 1.913612 1.048701 -0.864911
1478.55859375 1.9816699999999998 1.098482 -0.883188
1479.203125 2.053846 1.251965 -0.801881
1479.8359375 1.925588 1.173869 -0.751719
1480.47265625 1.895409 1.132223 -0.763186
1481.0859375 2.010949 1.214906 -0.796043
1481.68359375 2.08608 1.263551 -0.822529
1482.3359375 1.964896 1.169906 -0.79499
1483.01171875 1.9186489999999998 1.094485 -0.824164
1483.68359375 1.9271790000000002 1.073978 -0.853201
1484.3359375 1.864102 0.999393 -0.864709
1484.9609375 1.959566 1.059675 -0.899891
1485.58203125 1.98267 1.074782 -0.907888
1486.17578125 2.031915 1.110457 -0.921458
1486.80078125 2.08739 1.019087 -1.068303
1487.40234375 2.016995 1.011657 -1.005338
1488.02734375 1.935388 1.120826 -0.814562
1488.69140625 1.9172850000000001 1.187681 -0.729604
1489.33984375 1.986399 1.037807 -0.948592
1489.98046875 1.994541 0.974781 -1.01976
1490.59375 1.95146 1.174837 -0.776623
1491.23046875 2.089833 1.269833 -0.82
1491.87109375 1.989736 1.212108 -0.777628
1492.484375 2.003532 1.188293 -0.815239
1493.1015625 1.837405 1.065669 -0.771736
1493.69921875 1.897389 1.074589 -0.8228
1494.33203125 2.009053 1.13376 -0.875293
1494.9921875 1.99881 1.097766 -0.901044
1495.65234375 1.902304 0.967764 -0.93454
1496.296875 1.921188 0.955628 -0.96556
1496.9375 2.027812 1.021327 -1.006485
1497.55859375 2.020388 1.067667 -0.952721
1498.18359375 1.930527 1.043017 -0.88751
1498.80078125 1.925441 0.991312 -0.934129
1499.41015625 2.00431 0.998622 -1.005688
1500.078125 1.99428 1.00448 -0.9898
1500.7421875 1.971717 0.887973 -1.083744
1501.40625 1.867746 0.844234 -1.023512
1502.0625 1.959475 1.106786 -0.852689
1502.60546875 1.959805 1.124805 -0.835
1503.32421875 1.89357 1.015601 -0.877969
1503.9609375 1.9185750000000001 0.978892 -0.939683
1504.5859375 2.094586 1.054765 -1.039821
1505.21484375 2.007939 0.946309 -1.06163
1505.6640625 1.8157679999999998 0.808221 -1.007547
1506.42578125 1.895198 0.707128 -1.18807
1507.09765625 1.941239 0.747087 -1.194152
1507.77734375 1.994232 1.079429 -0.914803
1508.4375 1.995924 1.177004 -0.81892
1509.0703125 1.9546109999999999 1.185234 -0.769377
1509.6953125 1.824368 1.121553 -0.702815
1510.31640625 2.007927 1.19349 -0.814437
1510.9296875 2.052006 1.248693 -0.803313
1511.53125 1.976369 1.094558 -0.881811
1512.1796875 1.9096090000000001 0.99546 -0.914149
1512.84765625 1.911422 1.1 -0.811422
1513.51171875 2.0057080000000003 1.031246 -0.974462
1514.15625 2.09901 1.122766 -0.976244
1514.7890625 2.048115 1.104222 -0.943893
1515.42578125 1.909859 1.056612 -0.853247
1515.921875 1.9074309999999999 1.088676 -0.818755
1516.6328125 1.9973940000000001 1.162584 -0.83481
1517.26171875 2.056334 1.188502 -0.867832
1517.8984375 2.029198 1.175669 -0.853529
1518.55859375 2.105646 1.073372 -1.032274
1519.2265625 1.92533 1.062182 -0.863148
1519.89453125 1.999511 1.22991 -0.769601
1520.546875 2.119056 1.286506 -0.83255
1521.19921875 2.098883 1.220177 -0.878706
1521.8515625 1.9688569999999999 1.059421 -0.909436
1522.484375 1.888906 1.06495 -0.823956
1523.1015625 2.0360300000000002 1.201904 -0.834126
1523.70703125 2.052735 1.183713 -0.869022
1524.3828125 2.029916 1.098702 -0.931214
1525.0703125 1.934208 1.124941 -0.809267
1525.734375 1.9313259999999999 0.92504 -1.006286
1526.390625 2.062006 0.91243 -1.149576
1526.91015625 2.012489 1.007458 -1.005031
1527.6484375 1.90824 1.14496 -0.76328
1528.28515625 1.941207 1.135351 -0.805856
1528.921875 2.112094 1.185425 -0.926669
1529.34375 2.243246 1.438393 -0.804853
1529.94140625 2.154683 1.179795 -0.974888
1530.41796875 2.1007800000000003 1.197113 -0.903667
1530.83984375 2.229759 1.373529 -0.85623
1531.25390625 2.111793 1.253267 -0.858526
1531.66796875 2.254292 1.093122 -1.16117
1532.078125 2.160688 1.061264 -1.099424
1532.50390625 2.053884 1.219155 -0.834729
1533.109375 2.0452589999999997 1.180259 -0.865
1533.9140625 2.14181 1.359935 -0.781875
1534.5625 2.097304 1.397192 -0.700112
1535.171875 2.112203 1.41783 -0.694373
1535.7734375 2.074284 1.385447 -0.688837
1536.421875 2.099109 1.346808 -0.752301
1537.0703125 1.907933 1.277122 -0.630811
1537.71484375 1.9764030000000001 1.297368 -0.679035
1538.35546875 2.023175 1.298175 -0.725
1538.9765625 2.068375 1.245468 -0.822907
1539.59375 1.929803 1.050036 -0.879767
1540.19140625 2.0823460000000003 0.942888 -1.139458
1540.8125 2.125849 0.947537 -1.178312
1541.42578125 2.03638 1.081699 -0.954681
1542.06640625 1.954237 1.199673 -0.754564
1542.609375 1.9846590000000002 1.074659 -0.91
1543.359375 2.119755 1.157583 -0.962172
1544.02734375 1.993001 1.11349 -0.879511
1544.6796875 1.944784 1.189491 -0.755293
1545.31640625 2.047667 1.27404 -0.773627
1545.9609375 2.109211 1.254265 -0.854946
1546.60546875 2.044989 1.179989 -0.865
1547.21875 1.91879 1.065794 -0.852996
1547.71484375 1.984982 0.994389 -0.990593
1548.45703125 2.106371 0.937441 -1.16893
1549.1328125 2.061417 0.955636 -1.105781
1549.8125 1.8877199999999998 1.013725 -0.873995
1550.45703125 1.87369 1.143202 -0.730488
1551.09375 2.0907660000000003 1.256242 -0.834524
1551.70703125 2.1035310000000003 1.298872 -0.804659
1552.33203125 2.045449 1.237654 -0.807795
1552.91796875 1.843276 0.958328 -0.884948
1553.546875 1.972182 0.823147 -1.149035
1554.20703125 2.099906 1.155062 -0.944844
1554.88671875 2.064363 1.281825 -0.782538
1555.546875 1.8835709999999999 1.21953 -0.664041
1556.0546875 1.8188750000000002 1.208055 -0.61082
1556.78125 1.967054 1.30861 -0.658444
1557.42578125 2.075958 1.111562 -0.964396
1558.0546875 2.025203 1.019494 -1.005709
1558.59765625 1.815915 0.977771 -0.838144
1559.26953125 2.0342279999999997 1.294654 -0.739574
1559.89453125 2.079354 1.399848 -0.679506
1560.55078125 1.984053 1.269424 -0.714629
1561.2265625 1.930217 1.200217 -0.73
1561.890625 1.873771 1.226523 -0.647248
1562.55078125 1.9823719999999998 1.279424 -0.702948
1563.20703125 2.088476 1.338476 -0.75
1563.84765625 1.99919 1.262304 -0.736886
1564.4921875 1.8700799999999997 1.141336 -0.728744
1565.11328125 1.8970500000000001 1.073927 -0.823123
1565.734375 1.962386 1.130288 -0.832098
1566.41796875 1.989421 1.010755 -0.978666
1567.09375 1.8663669999999999 0.875517 -0.99085
1567.765625 1.824312 0.844897 -0.979415
1568.3984375 2.0237249999999998 1.101653 -0.922072
1569.0390625 1.997481 1.173859 -0.823622
1569.6875 1.9319039999999998 1.154199 -0.777705
1570.1875 1.7005379999999999 1.070962 -0.629576
1570.91015625 1.915394 1.078315 -0.837079
1571.53515625 1.973427 1.04502 -0.928407
1572.1796875 2.099552 1.212245 -0.887307
1572.6484375 2.150195 1.476296 -0.673899
1573.3828125 1.864884 1.136247 -0.728637
1574.0625 1.8201079999999998 1.168704 -0.651404
1574.7109375 1.9242310000000002 1.229313 -0.694918
1575.3515625 2.055447 1.285752 -0.769695
1575.98828125 2.003691 1.102219 -0.901472
1576.6015625 1.921908 0.992154 -0.929754
1577.21484375 1.896447 0.979013 -0.917434
1577.83203125 1.928923 1.097456 -0.831467
1578.43359375 1.998355 1.258974 -0.739381
1579.15625 1.990416 1.244289 -0.746127
1579.81640625 1.8766219999999998 1.148926 -0.727696
1580.46484375 1.9613649999999998 1.118159 -0.843206
1581.11328125 2.024687 1.209749 -0.814938
1581.734375 2.041538 1.234372 -0.807166
1582.3515625 1.885349 1.09605 -0.789299
1582.99609375 1.934639 1.165244 -0.769395
1583.61328125 2.009697 1.105064 -0.904633
1584.2578125 2.037634 0.919026 -1.118608
1584.91015625 1.92381 0.93097 -0.99284
1585.5703125 1.9229189999999998 1.072245 -0.850674
1586.23046875 1.999699 0.964699 -1.035
1586.859375 2.03901 1.103645 -0.935365
1587.51171875 2.018043 1.18591 -0.832133
1588.16015625 1.89286 1.147934 -0.744926
1588.78125 1.904649 1.154166 -0.750483
1589.37109375 1.927292 1.106221 -0.821071
1590.0 1.984967 1.095 -0.889967
1590.65625 1.957211 1.067156 -0.890055
1591.28515625 1.8169330000000001 0.971368 -0.845565
1591.98046875 1.8300999999999998 1.019823 -0.810277
1592.6171875 1.917906 1.031924 -0.885982
1593.23828125 2.04436 1.101108 -0.943252
1593.859375 1.932782 0.982192 -0.95059
1594.484375 1.8230369999999998 0.724938 -1.098099
1595.1015625 1.820999 0.755803 -1.065196
1595.71484375 1.829688 0.976856 -0.852832
1596.37109375 1.9448189999999999 1.216338 -0.728481
1596.87109375 1.857432 1.168658 -0.688774
1597.65625 1.8702839999999998 1.194416 -0.675868
1598.31640625 1.786808 1.034903 -0.751905
1598.953125 1.859704 0.877432 -0.982272
1599.6015625 1.909089 0.879089 -1.03
1600.23828125 2.021857 1.199906 -0.821951
1600.86328125 2.002026 1.3174 -0.684626
1601.44921875 1.900522 1.189811 -0.710711
1602.09765625 1.8855 1.142203 -0.743297
1602.6484375 1.756342 1.078047 -0.678295
1603.375 1.777146 1.005 -0.772146
1604.03125 2.020568 1.06113 -0.959438
1604.65625 1.983883 1.295138 -0.688745
1605.11328125 2.179415 1.329787 -0.849628
1605.7421875 1.956208 1.060568 -0.89564
1606.3515625 1.7899209999999999 1.125541 -0.66438
1606.9453125 1.882723 1.337973 -0.54475
1607.52734375 1.849518 1.390995 -0.458523
1608.16015625 1.8567040000000001 1.304252 -0.552452
1608.79296875 1.891016 1.196066 -0.69495
1609.4375 1.814587 1.137787 -0.6768
1610.0625 1.872541 1.149949 -0.722592
1610.66015625 1.650269 0.987571 -0.662698
1611.27734375 1.81901 1.070351 -0.748659
1611.875 1.829945 0.765 -1.064945
1612.47265625 1.824329 0.829732 -0.994597
1613.07421875 1.9052289999999998 0.947368 -0.957861
1613.6484375 1.868916 1.098299 -0.770617
1614.2734375 1.7251750000000001 1.173118 -0.552057
1614.89453125 1.795188 1.190299 -0.604889
1615.46484375 1.8024680000000002 1.171982 -0.630486
1615.6875 1.712938 1.165909 -0.547029
1616.1640625 1.9131299999999998 1.168958 -0.744172
1616.7890625 1.798206 1.024162 -0.774044
1617.3984375 1.7568000000000001 1.061881 -0.694919
1617.98828125 1.7815320000000001 0.712315 -1.069217
1618.48046875 1.852185 1.020872 -0.831313
1619.15234375 1.934674 0.975422 -0.959252
1619.73828125 1.630393 0.807188 -0.823205
1620.375 1.665299 0.8 -0.865299
1621.0234375 1.675646 0.91507 -0.760576
1621.66015625 1.719944 0.842907 -0.877037
1622.28125 1.898366 0.769595 -1.128771
1622.88671875 1.9371450000000001 1.037158 -0.899987
1623.48828125 1.836014 1.032259 -0.803755
1624.08984375 1.7622010000000001 1.070902 -0.691299
1624.6953125 1.814749 1.199749 -0.615
1625.2734375 1.8141950000000002 1.175024 -0.639171
1625.87890625 1.8571490000000002 1.192201 -0.664948
1626.49609375 1.861686 1.07914 -0.782546
1627.125 2.0011069999999997 1.005 -0.996107
1627.7734375 1.816448 0.824084 -0.992364
1628.390625 1.825609 0.947658 -0.877951
1629.015625 1.905681 1.136284 -0.769397
1629.63671875 1.8090359999999999 1.115 -0.694036
1630.1875 1.883618 0.849688 -1.03393
1630.83984375 1.83284 0.865 -0.96784
1631.4140625 1.6620759999999999 0.999012 -0.663064
1632.046875 1.8401 1.12725 -0.71285
1632.70703125 1.860074 1.231276 -0.628798
1633.27734375 1.801574 1.23745 -0.564124
1633.9921875 1.938714 1.271289 -0.667425
1634.61328125 1.881015 1.172253 -0.708762
1635.2421875 1.7736740000000002 1.020585 -0.753089
1635.85546875 1.839955 1.099955 -0.74
1636.44921875 1.7502710000000001 0.924677 -0.825594
1637.05859375 1.910871 0.982999 -0.927872
1637.65625 1.665024 0.727593 -0.937431
1638.28515625 1.862111 0.932458 -0.929653
1638.9140625 1.810864 0.749793 -1.061071
1639.546875 1.78592 0.598248 -1.187672
1640.171875 1.9763860000000002 1.147569 -0.828817
1640.78515625 1.995736 0.956893 -1.038843
1641.34375 1.831404 0.896414 -0.93499
1642.0078125 1.8865859999999999 1.027621 -0.858965
1642.6171875 2.0459140000000002 1.197156 -0.848758
1643.20703125 1.905081 1.302276 -0.602805
1643.78515625 1.829723 1.346263 -0.48346
1644.37109375 1.991119 1.342313 -0.648806
1645.046875 1.766994 1.05117 -0.715824
1645.6875 1.640351 1.104859 -0.535492
1646.3203125 1.971843 1.233231 -0.738612
1646.91796875 1.789587 0.970915 -0.818672
1647.5234375 1.7708430000000002 0.980812 -0.790031
1648.109375 1.898149 0.905061 -0.993088
1648.70703125 1.912827 0.938728 -0.974099
1649.296875 1.937294 0.977926 -0.959368
1649.90625 1.925538 0.968571 -0.956967
1650.54296875 2.11594 1.335868 -0.780072
1651.171875 1.929191 1.294391 -0.6348
1651.8203125 2.12226 1.38726 -0.735
1652.4453125 2.016792 1.077194 -0.939598
1653.05859375 1.949688 0.943696 -1.005992
1653.67578125 1.753344 0.891531 -0.861813
1654.26953125 1.8107220000000002 0.944907 -0.865815
1654.87109375 1.900282 0.921003 -0.979279
1655.41796875 1.838757 0.869808 -0.968949
1656.01171875 1.6973859999999998 0.812125 -0.885261
1656.61328125 1.745649 0.665 -1.080649
1657.23046875 1.784901 0.959901 -0.825
1657.8515625 1.957657 1.182637 -0.77502
1658.44140625 1.972488 1.303066 -0.669422
1659.03515625 1.808802 1.178498 -0.630304
1659.60546875 1.687044 1.122044 -0.565
1660.171875 1.730815 1.194285 -0.53653
1660.74609375 1.8065579999999999 1.061558 -0.745
1661.29296875 1.8867150000000001 1.008353 -0.878362
1661.87109375 1.7707920000000001 0.870919 -0.899873
1662.46484375 1.5493540000000001 0.850513 -0.698841
1662.9921875 1.689937 0.967528 -0.722409
1663.6640625 1.920436 0.834048 -1.086388
1664.26953125 1.9794299999999998 0.9448 -1.03463
1664.8359375 1.819237 1.059293 -0.759944
1665.4140625 1.772061 1.14864 -0.623421
1666.00390625 1.979031 1.214154 -0.764877
1666.58203125 1.926975 1.113864 -0.813111
1667.16015625 1.927585 1.127766 -0.799819
1667.71875 2.0151280000000003 1.235753 -0.779375
1668.3359375 1.925831 1.254824 -0.671007
1668.9609375 1.992973 1.208126 -0.784847
1669.5859375 1.828365 1.188582 -0.639783
1670.21484375 1.877122 1.179766 -0.697356
1670.65625 2.068156 1.423112 -0.645044
1671.33984375 1.7466780000000002 1.230757 -0.515921
1671.953125 1.797711 1.133474 -0.664237
1672.55859375 1.986928 1.134565 -0.852363
1673.140625 1.8856 1.092598 -0.793002
1673.71484375 1.807217 1.074578 -0.732639
1674.3359375 1.8840379999999999 1.06418 -0.819858
1674.9765625 1.866826 0.981826 -0.885
1675.60546875 1.78991 0.91991 -0.87
1676.140625 1.771968 1.029768 -0.7422
1676.78515625 2.0059109999999998 1.176416 -0.829495
1677.390625 1.9283640000000002 1.137356 -0.791008
1677.984375 1.8521830000000001 1.101375 -0.750808
1678.41015625 1.838663 1.154865 -0.683798
1679.1015625 1.864734 1.164607 -0.700127
1679.69921875 1.905811 1.159144 -0.746667
1680.30859375 2.057835 1.19884 -0.858995
1680.9453125 1.9542549999999999 1.177158 -0.777097
1681.5546875 1.897882 0.981185 -0.916697
1682.18359375 2.006457 0.974148 -1.032309
1682.80859375 2.0182320000000002 1.150336 -0.867896
1683.3203125 1.794675 1.124493 -0.670182
1684.0078125 1.835721 1.2197 -0.616021
1684.6015625 1.866939 1.155703 -0.711236
1685.2109375 1.859447 1.184447 -0.675
1685.80078125 1.7756150000000002 1.126783 -0.648832
1686.421875 1.9489930000000002 1.189256 -0.759737
1687.07421875 1.8506310000000001 1.006544 -0.844087
1687.71484375 1.830495 1.054531 -0.775964
1688.34375 2.039714 1.062313 -0.977401
1688.9453125 2.023495 1.132592 -0.890903
1689.546875 1.8655080000000002 0.911826 -0.953682
1690.13671875 1.836602 0.962841 -0.873761
1690.734375 1.974751 1.167306 -0.807445
1691.2890625 1.7678729999999998 1.213309 -0.554564
1691.91015625 1.927726 1.318554 -0.609172
1692.53515625 1.920321 1.320321 -0.6
1693.13671875 1.8734700000000002 1.213073 -0.660397
1693.63671875 2.053563 0.898893 -1.15467
1694.33203125 2.09314 1.018885 -1.074255
1694.94140625 1.945778 1.136002 -0.809776
1695.55859375 1.9364149999999998 1.383924 -0.552491
1696.17578125 2.065579 1.326465 -0.739114
1696.7890625 2.051235 1.217202 -0.834033
1697.375 2.02995 0.945 -1.08495
1697.9765625 1.955332 0.935332 -1.02
1698.61328125 1.896817 1.030545 -0.866272
1699.13671875 1.8987829999999999 1.444747 -0.454036
1699.8828125 2.056801 1.390986 -0.665815
1700.50390625 1.98815 1.186878 -0.801272
1701.109375 1.8782079999999999 1.147583 -0.730625
1701.70703125 2.006725 1.106255 -0.90047
1702.29296875 2.069164 1.104774 -0.96439
1702.88671875 2.011304 1.073113 -0.938191
1703.4453125 1.781253 1.028055 -0.753198
