21 
379 
713 
1053 
1357 
1651 
1994 
2305 
2596 
2941 
3280 
3594 
3966 
4306 
4618 
4959 
5302 
5620 
5967 
6311 
6619 
6952 
7294 
7606 
7951 
8294 
8625 
8972 
9313 
9609 
9937 
10255 
10547 
10850 
11168 
11445 
11729 
12039 
12327 
12603 
12926 
13229 
13518 
13849 
14150 
14436 
14746 
15039 
15315 
15632 
15956 
16253 
16572 
16883 
17179 
17493 
17810 
18097 
18415 
18726 
19007 
19273 
19526 
19786 
20041 
20283 
20545 
20815 
21079 
21368 
21708 
22033 
22367 
22696 
23003 
23312 
23638 
23934 
24237 
24554 
24843 
25142 
25501 
25804 
26094 
26453 
26757 
27032 
27290 
27539 
27795 
28063 
28321 
28593 
28877 
29156 
29507 
29861 
30204 
30555 
30864 
31180 
31512 
31811 
32088 
32386 
32704 
33004 
33321 
33646 
33908 
34168 
34429 
34699 
35073 
35406 
35749 
36089 
36405 
36740 
37081 
37383 
37731 
38065 
38359 
38671 
39004 
39311 
39607 
39941 
40213 
40483 
40765 
41063 
41449 
41808 
42133 
42475 
42798 
43109 
43443 
43749 
44031 
44332 
44626 
44907 
45190 
45544 
45880 
46167 
46506 
46830 
47103 
47363 
47625 
47878 
48142 
48506 
48844 
49201 
49537 
49874 
50227 
50544 
50853 
51195 
51516 
51817 
52132 
52426 
52706 
53036 
53327 
53590 
53861 
54124 
54482 
54821 
55153 
55505 
55831 
56153 
56472 
56761 
57089 
57394 
57686 
57984 
58306 
58587 
58869 
59132 
59384 
59653 
59911 
60186 
60535 
60869 
61218 
61563 
61872 
62178 
62509 
62812 
63120 
63438 
63742 
64037 
64374 
64681 
64972 
65288 
65614 
65907 
66258 
66568 
66859 
67181 
67501 
67790 
68111 
68428 
68718 
69040 
69325 
69593 
69856 
70108 
70366 
70619 
70876 
71132 
71390 
71750 
72076 
72409 
72762 
73084 
73423 
73778 
74094 
74414 
74739 
75040 
75358 
75698 
76010 
76334 
76675 
76991 
77315 
77664 
77969 
78303 
78631 
78931 
79251 
79552 
79811 
80066 
80329 
80582 
80878 
81253 
81595 
81937 
82263 
82587 
82928 
83243 
83558 
83881 
84177 
84504 
84839 
85139 
85468 
85793 
86092 
86428 
86757 
87056 
87363 
87640 
87894 
88156 
88419 
88693 
89078 
89428 
89772 
90122 
90436 
90780 
91115 
91419 
91739 
92064 
92365 
92653 
92971 
93277 
93561 
93865 
94142 
94443 
94765 
95069 
95392 
95714 
96009 
96321 
96610 
96913 
97234 
97531 
97828 
98129 
98387 
98640 
98900 
99156 
99427 
99769 
100109 
100420 
100778 
101100 
101431 
101758 
102051 
102369 
102683 
102973 
103294 
103611 
103884 
104188 
104501 
104787 
105061 
105345 
105595 
105848 
106108 
106366 
106649 
106979 
107301 
107626 
107970 
108278 
108409 
108601 
108887 
109182 
109474 
109781 
110062 
110348 
110653 
110946 
111235 
111539 
111799 
112058 
112318 
112569 
112837 
113152 
113474 
113772 
114083 
114381 
114688 
114951 
115209 
115469 
115714 
115951 
116200 
116479 
116748 
117011 
117295 
117599 
117945 
118269 
118611 
118941 
119255 
119590 
119903 
120202 
120520 
120811 
121075 
121333 
121578 
121827 
122089 
122384 
122680 
122999 
123319 
123616 
123923 
124217 
124484 
124749 
125002 
125248 
125497 
125742 
125987 
126254 
126591 
126931 
127286 
127624 
127937 
128274 
128632 
128939 
129276 
129623 
129922 
130241 
130567 
130860 
131150 
131416 
131682 
131944 
132210 
132503 
132853 
133196 
133541 
133865 
134184 
134518 
134844 
135151 
135482 
135779 
136079 
136394 
136683 
136985 
137298 
137587 
137867 
138124 
138378 
138635 
138881 
139140 
139426 
139726 
140100 
140439 
140751 
141029 
141297 
141556 
141806 
142051 
142287 
142535 
142779 
143020 
143272 
143537 
143808 
144091 
144358 
144635 
144933 
145259 
145590 
145947 
146270 
146600 
146952 
147267 
147565 
147875 
148147 
148408 
148676 
148942 
149269 
149657 
150025 
150393 
150730 
151068 
151421 
151737 
152062 
152366 
152664 
152985 
153279 
153541 
153806 
154084 
154397 
154766 
155101 
155455 
155778 
156092 
156430 
156753 
157038 
157315 
157575 
157835 
158109 
158465 
158793 
159135 
159479 
159798 
160116 
160412 
160734 
161062 
161367 
161691 
162013 
162315 
162625 
162930 
163228 
163549 
163845 
164139 
164476 
164767 
165071 
165403 
165697 
166001 
166320 
166627 
166923 
167251 
167564 
167852 
168169 
168488 
168775 
169098 
169418 
169708 
170015 
170331 
170623 
170923 
171196 
171464 
171717 
171969 
172216 
172472 
172742 
173093 
173441 
173789 
174100 
174414 
174753 
175062 
175373 
175708 
176009 
176340 
176688 
176979 
177308 
177641 
177939 
178264 
178613 
178913 
179241 
179555 
179854 
180170 
180478 
180767 
181083 
181398 
181689 
182018 
182338 
182630 
182937 
183268 
183565 
183895 
184209 
184499 
184821 
185117 
185401 
185707 
185993 
186269 
186571 
186865 
187155 
187467 
187776 
188064 
188394 
188716 
189017 
189354 
189681 
189973 
190293 
190599 
190887 
191200 
191507 
191792 
192106 
192451 
192747 
193060 
193383 
193689 
193974 
194298 
194601 
194852 
195112 
195357 
195597 
195847 
196102 
196442 
196716 
196990 
197272 
197590 
197916 
198220 
198542 
198853 
199157 
199469 
199798 
200096 
200443 
200795 
201118 
201465 
201802 
202131 
202468 
202798 
203125 
203437 
203773 
204085 
204419 
204751 
205059 
205366 
205694 
205985 
206269 
206546 
206795 
207048 
207297 
207542 
207809 
208187 
208544 
208909 
209249 
209565 
209896 
210215 
210527 
210851 
211156 
211460 
211805 
212111 
212453 
212793 
213114 
213432 
213766 
214068 
214403 
214726 
215018 
215332 
215650 
215935 
216245 
216558 
216852 
217184 
217513 
217823 
218146 
218481 
218780 
219090 
219398 
219690 
219973 
220293 
220622 
220919 
221186 
221437 
221693 
221960 
222275 
222567 
222900 
223238 
223518 
223815 
224112 
224389 
224682 
224984 
225269 
225589 
225902 
226187 
226518 
226842 
227139 
227458 
227780 
228071 
228403 
228715 
229020 
229343 
229659 
229960 
230311 
230632 
230966 
231300 
231613 
231917 
232268 
232589 
232881 
233221 
233550 
233849 
234170 
234482 
234758 
235065 
235370 
235659 
235983 
236299 
236598 
236931 
237231 
237517 
237832 
238136 
238424 
238749 
239072 
239366 
239701 
240036 
240344 
240673 
241005 
241305 
241639 
241961 
242249 
242559 
242895 
243192 
243483 
243798 
244097 
244386 
244711 
245031 
245317 
245641 
245952 
246235 
246526 
246826 
247099 
247371 
247671 
247972 
248251 
248568 
248894 
249189 
249515 
249848 
250146 
250474 
250809 
251100 
251423 
251748 
252030 
252329 
252647 
252936 
253251 
253588 
253881 
254187 
254501 
254816 
255113 
255439 
255759 
256056 
256381 
256707 
256994 
257294 
257597 
257883 
258175 
258483 
258781 
259058 
259349 
259648 
259927 
260245 
260584 
260900 
261220 
261540 
261829 
262142 
262456 
262749 
263037 
263340 
263644 
263930 
264248 
264557 
264852 
265179 
265491 
265777 
266081 
266390 
266687 
267014 
267346 
267647 
267952 
268245 
268494 
268752 
268999 
269229 
269471 
269710 
269987 
270270 
270637 
270988 
271318 
271669 
272015 
272349 
272696 
273013 
273329 
273644 
273927 
274225 
274530 
274814 
275114 
275415 
275699 
276032 
276336 
276630 
276957 
277297 
277598 
277950 
278288 
278599 
278925 
279247 
279536 
279880 
280211 
280508 
280839 
281145 
281431 
281751 
282059 
282335 
282661 
282977 
283243 
283500 
283753 
284003 
284254 
284536 
284831 
285213 
285564 
285911 
286262 
286592 
286929 
287253 
287550 
287864 
288172 
288460 
288791 
289093 
289365 
289651 
289974 
290265 
290591 
290955 
291274 
291582 
291913 
292215 
292518 
292823 
293094 
293387 
293735 
294063 
294371 
294703 
295012 
295300 
295608 
295930 
296220 
296556 
296857 
297165 
297496 
297800 
298109 
298425 
298723 
298998 
299298 
299620 
299918 
300232 
300553 
300846 
301140 
301441 
301733 
302010 
302309 
302607 
302878 
303186 
303497 
303781 
304086 
304409 
304692 
304992 
305266 
305513 
305764 
306016 
306261 
306564 
306934 
307280 
307632 
307972 
308286 
308627 
308928 
309222 
309532 
309864 
310151 
310480 
310801 
311089 
311400 
311718 
311997 
312290 
312597 
312887 
313178 
313518 
313871 
314182 
314521 
314852 
315156 
315480 
315817 
316102 
316427 
316748 
317033 
317350 
317665 
317952 
318229 
318552 
318884 
319177 
319504 
319833 
320118 
320445 
320769 
321053 
321378 
321694 
321981 
322277 
322614 
322924 
323229 
323547 
323855 
324133 
324441 
324743 
325017 
325313 
325610 
325886 
326168 
326484 
326784 
327076 
327385 
327709 
327997 
328341 
328673 
328967 
329290 
329631 
329940 
330264 
330602 
330911 
331207 
331535 
331859 
332151 
332470 
332789 
333074 
333382 
333691 
333971 
334287 
334609 
334914 
335193 
335505 
335809 
336091 
336404 
336723 
337012 
337314 
337629 
337917 
338208 
338518 
338788 
339046 
339297 
339540 
339788 
340036 
340286 
340532 
340780 
341049 
341422 
341754 
342079 
342437 
342763 
343088 
343447 
343784 
344073 
344344 
344609 
344849 
345095 
345338 
345582 
345840 
346110 
346401 
346778 
347134 
347469 
347831 
348168 
348492 
348830 
349159 
349503 
349842 
350147 
350488 
350818 
351121 
351458 
351764 
352043 
352350 
352661 
352953 
353281 
353609 
353905 
354228 
354535 
354824 
355157 
355491 
355786 
356120 
356441 
356726 
357033 
357317 
357592 
357900 
358242 
358529 
358855 
359184 
359480 
359765 
360035 
360281 
360524 
360765 
361008 
361267 
361628 
361996 
362325 
362687 
363043 
363373 
363707 
364051 
364369 
364692 
365009 
365315 
365608 
365927 
366242 
366530 
366859 
367177 
367475 
367764 
368043 
368309 
368599 
368874 
369179 
369489 
369776 
370056 
370336 
370596 
370857 
371120 
371398 
371659 
371916 
372194 
372464 
372725 
372982 
373251 
373515 
373758 
374016 
374267 
374505 
374757 
375005 
375260 
375517 
375778 
376056 
376324 
376591 
376904 
377236 
377558 
377906 
378239 
378522 
378832 
379141 
379437 
379775 
380098 
380426 
380735 
381021 
381333 
381669 
382019 
382358 
382705 
382978 
383252 
383525 
383790 
384071 
384410 
384763 
385134 
385496 
385831 
386182 
386510 
386808 
387132 
387448 
387737 
388029 
388164 
388340 
388597 
388868 
389142 
389396 
389649 
389913 
390175 
390445 
390764 
391098 
391437 
391772 
392086 
392392 
392739 
393072 
393370 
393695 
393997 
394280 
394593 
394905 
395200 
395525 
395869 
396145 
396402 
396660 
396913 
397180 
397463 
397814 
398169 
398529 
398869 
399226 
399563 
399874 
400191 
400519 
400809 
401117 
401437 
401737 
402011 
402275 
402539 
402791 
403058 
403357 
403660 
404038 
404374 
404702 
405048 
405370 
405674 
406000 
406297 
406586 
406912 
407260 
407565 
407907 
408218 
408546 
408876 
409181 
409537 
409884 
410184 
410509 
410823 
411089 
411346 
411608 
411863 
412138 
412506 
412839 
413193 
413524 
413839 
414182 
414488 
414779 
415109 
415430 
415739 
416073 
416399 
416694 
417021 
417325 
417619 
417933 
418232 
418520 
418840 
419141 
419433 
419764 
420081 
420384 
420711 
421038 
421327 
421649 
421942 
422221 
422526 
422829 
423115 
423445 
423787 
424080 
424405 
424745 
425048 
425350 
425684 
425986 
426259 
426549 
426687 
426844 
427062 
427311 
427569 
427851 
428240 
428592 
428952 
429312 
429644 
429996 
430337 
430649 
430962 
431279 
431583 
431879 
432193 
432516 
432812 
433146 
433472 
433765 
434071 
434371 
434650 
434955 
435248 
435537 
435860 
436174 
436473 
436796 
437102 
437380 
437690 
437979 
438261 
438563 
438851 
439114 
439372 
439630 
439880 
440148 
440495 
440833 
441189 
441537 
441842 
442176 
442505 
442808 
443116 
443450 
443753 
444038 
444356 
444664 
444950 
445260 
445552 
445836 
446145 
446451 
446747 
447079 
447431 
447745 
448050 
448360 
448655 
448959 
449304 
449630 
449943 
450267 
450582 
450871 
451189 
451507 
451799 
452105 
452415 
452698 
453005 
453333 
453630 
453906 
454206 
454499 
454786 
455080 
455366 
455626 
455866 
456112 
456348 
456591 
456843 
457100 
457388 
457678 
457948 
458228 
458502 
458761 
459013 
459331 
459618 
459889 
460161 
460436 
460700 
460963 
461233 
461498 
461743 
461990 
