151 
319 
490 
660 
833 
1006 
1176 
1341 
1514 
1690 
1863 
2032 
2202 
2373 
2544 
2719 
2892 
3063 
3232 
3406 
3586 
3759 
3930 
4100 
4272 
4444 
4620 
4790 
4960 
5128 
5301 
5470 
5640 
5806 
5976 
6142 
6316 
6488 
6655 
6823 
6993 
7169 
7340 
7509 
7675 
7842 
8009 
8180 
8356 
8522 
8690 
8859 
9035 
9205 
9377 
9547 
9720 
9890 
10065 
10242 
10415 
10585 
10759 
10935 
11110 
11279 
11450 
11620 
11791 
11965 
12140 
12309 
12477 
12649 
12824 
12997 
13166 
13336 
13506 
13678 
13855 
14024 
14197 
14365 
14540 
14715 
14888 
15058 
15230 
15402 
15581 
15758 
15931 
16101 
16274 
16450 
16623 
16793 
16963 
17133 
17301 
17473 
17649 
17816 
17984 
18154 
18329 
18497 
18667 
18836 
19007 
19176 
19349 
19521 
19690 
19860 
20034 
20212 
20382 
20549 
20717 
20889 
21061 
21233 
21403 
21573 
21744 
21919 
22095 
22268 
22436 
22604 
22774 
22947 
23120 
23291 
23461 
23627 
23798 
23970 
24141 
24306 
24474 
24642 
24814 
24987 
25158 
25328 
25496 
25668 
25840 
26011 
26177 
26344 
26513 
26683 
26856 
27022 
27192 
27357 
27529 
27698 
27867 
28033 
28199 
28367 
28538 
28709 
28877 
29045 
29212 
29381 
29551 
29721 
29885 
30049 
30215 
30384 
30554 
30720 
30889 
31054 
31226 
31398 
31570 
31738 
31908 
32078 
32253 
32428 
32599 
32770 
32941 
33116 
33287 
33458 
33628 
33797 
33967 
34138 
34312 
34481 
34652 
34825 
35003 
35171 
35341 
35510 
35684 
35853 
36027 
36197 
36368 
36534 
36706 
36880 
37051 
37217 
37386 
37557 
37730 
37906 
38079 
38251 
38418 
38589 
38765 
38936 
39102 
39268 
39438 
39608 
39779 
39950 
40121 
40290 
40464 
40637 
40810 
40980 
41152 
41322 
41495 
41667 
41835 
42005 
42173 
42344 
42514 
42681 
42847 
43015 
43183 
43355 
43527 
43695 
43864 
44032 
44210 
44381 
44551 
44717 
44885 
45052 
45224 
45396 
45562 
45728 
45899 
46074 
46246 
46415 
46586 
46755 
46925 
47097 
47272 
47439 
47607 
47774 
47948 
48115 
48282 
48446 
48613 
48778 
48948 
49120 
49287 
49453 
49620 
49795 
49966 
50135 
50304 
50470 
50637 
50807 
50980 
51147 
51312 
51478 
51648 
51817 
51986 
52152 
52321 
52488 
52659 
52832 
52998 
53168 
53337 
53514 
53683 
53852 
54020 
54191 
54363 
54537 
54712 
54884 
55053 
55226 
55405 
55577 
55748 
55918 
56092 
56262 
56435 
56610 
56783 
56951 
57125 
57301 
57474 
57643 
57816 
57990 
58166 
58342 
58513 
58685 
58856 
59037 
59210 
59384 
59553 
59721 
59890 
60062 
60238 
60408 
60577 
60749 
60926 
61097 
61267 
61438 
61611 
61780 
61953 
62126 
62300 
62467 
62638 
62811 
62982 
63147 
63265 
63485 
63656 
63825 
63996 
64164 
64327 
64498 
64671 
64839 
65001 
65167 
65338 
65509 
65680 
65849 
66016 
66184 
66357 
66530 
66698 
66862 
67027 
67195 
67363 
67533 
67697 
67865 
68029 
68202 
68373 
68542 
68707 
68873 
69040 
69208 
69377 
69543 
69708 
69869 
70034 
70204 
70367 
70529 
70690 
70857 
71017 
71183 
71348 
71511 
71669 
71833 
72000 
72161 
72321 
72480 
72637 
72794 
72953 
73112 
73268 
73424 
73578 
73738 
73900 
74055 
74209 
74368 
74529 
74686 
74848 
75014 
75173 
75334 
75495 
75661 
75825 
75988 
76082 
76307 
76437 
76522 
76629 
76769 
76859 
76958 
77115 
77270 
77436 
77678 
77768 
77868 
77998 
78092 
78219 
78320 
78422 
78579 
78744 
78903 
79063 
79224 
79391 
79554 
79718 
79880 
80045 
80208 
80377 
80546 
80711 
80876 
80960 
81207 
81375 
81540 
81701 
81865 
82028 
82194 
82359 
82523 
82686 
82846 
83011 
83181 
83346 
83509 
83673 
83843 
84008 
84177 
84344 
84510 
84672 
84842 
85011 
85176 
85338 
85502 
85669 
85834 
86002 
86172 
86337 
86502 
86674 
86850 
87018 
87183 
87351 
87521 
87689 
87858 
88027 
88196 
88360 
88529 
88702 
88870 
89037 
89206 
89376 
89547 
89721 
89896 
90069 
90237 
90411 
90588 
90760 
90932 
91102 
91273 
91448 
91625 
91797 
91969 
92144 
92324 
92497 
92669 
92840 
92962 
93184 
93357 
93528 
93695 
93859 
94026 
94197 
94363 
94530 
94696 
94864 
95030 
95203 
95378 
95545 
95711 
95882 
96059 
96228 
96395 
96560 
96730 
96896 
97065 
97235 
97399 
97562 
97729 
97901 
98066 
98232 
98397 
98564 
98727 
98897 
99067 
99234 
99397 
99564 
99736 
99901 
100068 
100234 
100400 
100564 
100734 
100906 
101071 
101237 
101403 
101576 
101742 
101911 
102076 
102244 
102409 
102580 
102753 
102918 
103084 
103251 
103424 
103591 
103757 
103921 
104087 
104253 
104423 
104592 
104757 
104922 
105089 
105261 
105428 
105594 
105758 
105923 
106089 
106256 
106425 
106588 
106754 
106917 
107086 
107252 
107419 
107581 
107746 
107910 
108078 
108244 
108411 
108576 
108738 
108905 
109074 
109241 
109402 
109566 
109731 
109894 
110061 
110226 
110391 
110553 
110718 
110889 
111054 
111550 
111716 
111885 
112051 
112217 
112378 
112546 
112715 
112880 
113040 
113204 
113369 
113532 
113697 
113864 
114025 
114186 
114351 
114522 
114684 
114849 
115012 
115176 
115339 
115506 
115676 
115837 
116000 
116162 
116331 
116494 
116660 
116821 
116983 
117144 
117311 
117478 
117642 
117807 
117971 
118139 
118307 
118473 
118636 
118801 
118965 
119131 
119299 
119463 
119628 
119789 
119956 
120124 
120289 
120452 
120616 
120783 
120949 
121117 
121284 
121449 
121610 
121777 
121947 
122112 
122272 
122435 
122600 
122763 
122930 
123097 
123259 
123422 
123589 
123762 
123927 
124094 
124258 
124424 
124589 
124756 
124926 
125088 
125251 
125416 
125584 
125749 
125915 
126079 
126243 
126407 
126575 
126746 
126911 
127077 
127240 
127409 
127576 
127742 
127903 
128063 
128225 
128390 
128555 
128718 
128882 
129042 
129208 
129377 
129540 
129701 
129864 
130031 
130194 
130359 
130525 
130688 
130849 
131015 
131184 
131346 
131507 
131672 
131837 
132002 
132170 
132340 
132503 
132668 
132834 
133005 
133170 
133336 
133498 
133660 
133822 
133988 
134152 
134311 
134471 
134628 
134791 
134954 
135117 
135272 
135430 
135591 
135752 
135914 
136077 
136234 
136391 
136552 
136716 
136875 
137035 
137194 
137353 
137513 
137678 
137845 
138006 
138170 
138333 
138504 
138669 
138836 
138999 
139164 
139328 
139496 
139662 
139825 
139989 
140152 
140321 
140488 
140655 
140818 
140982 
141150 
141320 
141491 
141656 
141825 
141993 
142164 
142335 
142506 
142671 
142836 
142950 
143170 
143342 
143505 
143671 
143833 
144001 
144168 
144338 
144501 
144667 
144832 
145004 
145175 
145343 
145510 
145676 
145846 
146016 
146185 
146349 
146513 
146680 
146846 
147015 
147179 
147344 
147508 
147677 
147846 
148015 
148178 
148343 
148512 
148681 
148852 
149019 
149186 
149353 
149525 
149698 
149867 
150029 
150194 
150362 
150533 
150703 
150868 
151036 
151202 
151372 
151545 
151714 
151877 
152043 
152212 
152381 
152550 
152715 
152883 
153046 
153215 
153385 
153552 
153714 
153879 
154046 
154212 
154380 
154549 
154716 
154880 
155046 
155219 
155384 
155548 
155712 
155880 
156044 
156212 
156380 
156549 
156713 
156881 
157051 
157218 
157385 
157553 
157724 
157891 
158060 
158231 
158399 
158565 
158733 
158906 
159072 
159236 
159402 
159569 
159734 
159901 
160069 
160234 
160399 
160564 
160738 
160904 
161068 
161229 
161394 
161556 
161723 
161889 
162051 
162211 
162375 
162543 
162707 
162870 
163031 
163194 
163356 
163524 
163692 
163855 
163972 
164181 
164351 
164515 
164681 
164844 
165006 
165168 
165334 
165504 
165667 
165833 
165997 
166168 
166336 
166505 
166671 
166837 
167004 
167097 
167345 
167513 
167680 
167847 
168016 
168182 
168348 
168514 
168680 
168848 
169019 
169192 
169361 
169534 
169706 
169885 
170056 
170229 
170399 
170573 
170740 
170913 
171085 
171253 
171420 
171589 
171762 
171931 
172100 
172270 
172441 
172611 
172782 
172955 
173125 
173293 
173462 
173638 
173807 
173974 
174142 
174313 
174480 
174650 
174820 
174990 
175156 
175328 
175502 
175672 
175840 
176009 
176181 
176351 
176523 
176694 
176865 
177031 
177203 
177377 
177547 
177714 
177882 
178053 
178225 
178399 
178568 
178738 
178906 
179079 
179252 
179424 
179591 
179758 
179926 
180100 
180275 
180445 
180615 
180784 
180957 
181132 
181303 
181470 
181638 
181806 
181980 
182154 
182323 
182491 
182659 
182834 
183005 
183175 
183341 
183510 
183677 
183848 
184022 
184190 
184356 
184527 
184704 
184875 
185047 
185217 
185391 
185560 
185733 
185907 
186076 
186242 
186414 
186591 
186762 
186930 
187098 
187270 
187445 
187618 
187788 
187958 
188126 
188301 
188475 
188645 
188811 
188977 
189145 
189317 
189488 
189656 
189823 
189992 
190165 
190338 
190510 
190679 
190848 
191016 
191190 
191365 
191533 
191700 
191867 
192042 
192212 
192381 
192548 
192715 
192881 
193052 
193224 
193391 
193557 
193726 
193900 
194067 
194233 
194399 
194570 
194737 
194908 
195077 
195246 
195410 
195579 
195751 
195916 
196078 
196243 
196411 
196577 
196745 
196914 
197077 
197240 
197406 
197576 
197741 
197906 
198068 
198234 
198396 
198563 
198730 
198892 
199054 
199215 
199383 
199549 
199714 
199872 
200035 
200196 
200363 
200527 
200691 
200854 
201016 
201183 
201350 
201516 
201675 
201836 
202001 
202164 
202329 
202492 
202655 
202816 
202981 
203150 
203313 
203475 
203639 
203806 
203969 
204133 
204301 
204462 
204625 
204787 
204953 
205113 
205274 
205436 
205595 
205755 
205916 
206081 
206243 
206404 
206566 
206730 
206898 
207063 
207222 
207384 
207551 
207714 
207878 
208043 
208207 
208367 
208532 
208699 
208863 
209025 
209191 
209360 
209521 
209695 
209866 
210033 
210199 
210366 
210502 
210705 
210877 
211040 
211205 
211374 
211541 
211710 
211875 
212044 
212212 
212386 
212553 
212725 
212894 
213067 
213236 
213405 
213579 
213749 
213915 
214082 
214258 
214429 
214589 
214755 
214924 
215097 
215267 
215435 
215601 
215771 
215946 
216120 
216291 
216452 
216623 
216794 
216967 
217137 
217300 
217473 
217639 
217811 
217981 
218155 
218321 
218489 
218655 
218831 
219006 
219175 
219343 
219515 
219691 
219860 
220030 
220200 
220370 
220537 
220707 
220883 
221053 
221220 
221391 
221569 
221740 
221908 
222075 
222251 
222425 
222597 
222767 
222935 
223106 
223278 
223452 
223620 
223790 
223959 
224131 
224305 
224476 
224648 
224820 
224990 
225165 
225340 
225518 
225688 
225860 
226031 
226211 
226391 
226565 
226735 
226912 
227094 
227271 
227441 
227613 
227790 
227966 
228143 
228318 
228494 
228667 
228846 
229025 
229201 
229376 
229550 
229723 
229898 
230079 
230250 
230423 
230592 
230773 
230948 
231126 
231295 
231472 
231644 
231818 
231993 
232164 
232337 
232514 
232694 
232868 
233035 
233204 
233375 
233550 
233722 
233894 
234069 
234230 
234411 
234585 
234755 
234922 
235091 
235263 
235434 
235604 
235769 
235940 
236102 
236274 
236442 
236613 
236774 
236940 
237046 
237277 
237418 
237518 
237608 
237780 
237947 
238119 
238287 
238463 
238628 
238795 
238963 
239135 
239308 
239476 
239647 
239816 
239992 
240162 
240336 
240507 
240685 
240852 
241029 
241202 
241376 
241546 
241722 
241898 
242068 
242231 
242403 
242576 
242747 
242919 
243086 
243259 
243427 
243602 
243778 
243954 
244122 
244290 
244457 
244633 
244808 
244975 
245142 
245306 
245482 
245652 
245821 
245986 
246152 
246323 
246498 
246671 
246841 
247011 
247180 
247352 
247525 
247698 
248035 
248202 
248376 
248549 
248715 
248880 
249049 
249226 
249397 
249564 
249735 
249906 
250075 
250248 
250421 
250587 
250754 
250922 
251096 
251265 
251431 
251593 
251764 
251930 
252101 
252271 
252437 
252602 
252771 
252949 
253118 
253285 
253451 
253626 
253791 
253962 
254128 
254297 
254458 
254630 
254801 
254969 
255131 
255297 
255469 
255636 
255804 
255974 
256143 
256306 
256473 
256645 
256810 
256978 
257145 
257312 
257476 
257647 
257822 
257991 
258156 
258327 
258507 
258679 
258847 
259017 
259190 
259366 
259541 
259713 
259885 
260059 
260236 
260412 
260583 
260757 
260931 
261107 
261282 
261460 
261636 
261811 
261986 
262169 
262343 
262519 
262693 
262870 
263042 
263220 
263396 
263572 
263741 
263919 
264101 
264279 
264451 
264628 
264805 
264986 
265169 
265344 
265517 
265698 
265884 
266058 
266231 
266407 
266584 
266760 
266936 
267111 
267284 
267456 
267634 
267810 
267987 
268159 
268333 
268506 
268682 
268859 
269032 
269200 
269377 
269556 
269729 
269898 
270072 
270248 
270424 
270603 
270776 
270953 
271129 
271311 
271489 
271667 
271842 
272020 
272195 
272376 
272556 
272736 
272908 
273090 
273272 
273453 
273628 
273803 
273980 
274160 
274344 
274521 
274694 
274872 
275055 
275234 
275410 
275586 
275765 
275943 
276125 
276305 
276483 
276659 
276845 
277026 
277207 
277384 
277565 
277745 
277928 
278110 
278289 
278464 
278649 
278833 
279011 
279187 
279364 
279543 
279723 
279905 
280082 
280256 
280437 
280623 
280800 
280973 
281150 
281329 
281509 
281689 
281865 
282042 
282218 
282400 
282579 
282756 
282933 
283112 
283287 
283466 
283650 
283829 
284004 
284185 
284369 
284549 
284725 
284901 
285079 
285258 
285443 
285621 
285796 
285977 
286162 
286341 
286517 
286697 
286877 
287060 
287243 
287422 
287600 
287779 
287966 
288146 
288323 
288501 
288680 
288861 
289044 
289225 
289404 
289580 
289770 
289955 
290139 
290316 
290498 
290678 
290863 
291044 
291222 
291399 
291585 
291770 
291952 
292132 
292313 
292495 
292680 
292866 
293048 
293226 
293410 
293596 
293776 
293954 
294131 
294307 
294487 
294669 
294848 
295024 
295206 
295390 
295571 
295747 
295927 
296105 
296288 
296474 
296652 
296829 
297013 
297197 
297377 
297550 
297728 
297908 
298090 
298276 
298455 
298635 
298817 
299008 
299189 
299370 
299549 
299732 
299914 
300100 
300279 
300459 
300636 
300823 
301004 
301186 
301365 
301547 
301730 
301917 
302102 
302286 
302464 
302651 
302834 
303015 
303194 
303373 
303551 
303736 
303918 
304098 
304276 
304461 
304644 
304828 
305007 
305190 
305369 
305554 
305737 
305918 
306095 
306279 
306464 
306645 
306824 
307003 
307184 
307286 
307549 
307679 
307896 
308082 
308271 
308453 
308630 
308808 
308988 
309171 
309354 
309533 
309712 
309893 
310082 
310264 
310445 
310626 
310811 
310996 
311182 
311366 
311549 
311732 
311920 
312103 
312283 
312463 
312648 
312827 
313011 
313191 
313373 
313554 
313741 
313923 
314105 
314286 
314472 
314654 
314838 
315021 
315203 
315384 
315574 
315758 
315940 
316120 
316305 
316489 
316676 
316857 
317037 
317217 
317407 
317590 
317771 
317951 
318136 
318319 
318507 
318690 
318872 
319053 
319245 
319427 
319610 
319792 
319975 
320156 
320345 
320534 
320721 
320907 
321099 
321286 
321471 
321656 
321843 
322031 
322220 
322405 
322590 
322778 
322971 
323157 
323339 
323524 
323713 
323902 
324093 
324279 
324461 
324650 
324839 
325025 
325205 
325389 
325573 
325758 
325947 
326128 
326311 
326498 
326691 
326878 
327066 
327253 
327439 
327630 
327820 
328008 
328191 
328382 
328573 
328763 
328947 
329137 
329323 
329514 
329703 
329893 
330078 
330271 
330458 
330642 
330827 
331013 
331196 
331382 
331565 
331750 
331933 
332123 
332309 
332493 
332680 
332871 
333057 
333248 
333434 
333620 
333806 
333996 
334181 
334362 
334545 
334730 
334917 
335103 
335288 
335471 
335655 
335848 
336031 
336213 
336392 
336578 
336763 
336949 
337131 
337312 
337493 
337682 
337862 
338044 
338225 
338410 
338595 
338779 
338964 
339144 
339327 
339513 
339697 
339877 
340059 
340242 
340423 
340513 
340783 
340965 
341146 
341332 
341515 
341697 
341878 
342065 
342245 
342432 
342614 
342797 
342977 
343167 
343350 
343532 
343712 
343816 
344073 
344259 
344442 
344622 
344803 
344990 
345174 
345355 
345534 
345716 
345896 
346080 
346262 
346444 
346622 
346809 
346993 
347179 
347360 
347547 
347730 
347921 
348108 
348295 
348479 
348669 
348858 
349042 
349225 
349410 
349595 
349781 
349966 
350058 
350328 
350519 
350704 
350883 
351066 
351251 
351435 
351623 
351806 
351989 
352171 
352362 
352546 
352727 
352911 
353096 
353281 
353468 
353652 
353835 
354017 
354208 
354395 
354578 
354760 
354944 
355129 
355316 
355499 
355682 
355862 
356052 
356234 
356419 
356599 
356785 
356970 
357155 
357340 
357523 
357706 
357897 
358082 
358266 
358453 
358641 
358830 
359021 
359210 
359399 
359591 
359786 
359975 
360163 
360353 
360544 
360735 
360931 
361122 
361310 
361502 
361695 
361884 
362068 
362258 
362445 
362635 
362825 
363014 
363199 
363391 
363581 
363767 
363952 
364139 
364324 
364512 
364696 
364880 
365061 
365249 
365433 
365617 
365798 
365922 
366163 
366265 
366536 
366721 
366902 
367089 
367273 
367455 
367634 
367816 
367996 
368182 
368366 
368550 
368734 
368925 
369112 
369298 
369486 
369675 
369863 
370056 
370242 
370428 
370614 
370808 
370994 
371175 
371360 
371544 
371732 
371922 
372108 
372291 
372481 
372676 
372772 
373054 
373241 
373430 
373618 
373814 
373912 
374149 
374278 
374382 
374480 
374582 
374678 
374773 
374908 
375002 
375103 
375276 
375444 
375624 
375794 
375971 
376135 
376331 
376534 
376716 
376916 
377101 
377236 
377337 
377515 
377652 
377868 
378030 
378167 
378263 
378431 
378616 
378802 
378991 
379181 
379371 
379559 
379746 
379838 
380128 
380315 
380498 
380686 
380872 
381061 
381246 
381430 
381615 
381808 
381996 
382177 
382362 
382548 
382735 
382921 
383103 
383285 
383467 
383658 
383842 
384024 
384208 
384396 
384584 
384776 
384962 
385151 
385340 
385535 
385724 
385907 
386093 
386280 
386467 
386657 
386841 
387024 
387213 
387405 
387594 
387774 
387960 
388149 
388338 
388530 
388714 
388898 
389087 
389277 
389464 
389646 
389835 
390021 
390214 
390405 
390597 
390781 
390976 
391171 
391361 
391553 
391742 
391933 
392128 
392319 
392509 
392698 
392896 
393089 
393277 
393468 
393657 
393848 
394046 
394235 
394423 
394615 
394805 
394993 
395176 
395362 
395545 
395732 
395917 
396102 
396286 
396476 
396665 
396852 
397041 
397232 
397422 
397614 
397804 
397993 
398180 
398375 
398562 
398747 
398930 
399118 
399305 
399496 
399680 
399864 
400052 
400244 
400433 
400615 
400801 
400988 
401178 
401369 
401556 
401739 
401930 
402120 
402308 
402493 
402681 
402870 
403062 
403253 
403443 
403630 
403825 
404016 
404207 
404396 
404588 
404775 
404967 
405155 
405343 
405528 
405722 
405912 
406094 
406281 
406468 
406659 
406850 
407036 
407221 
407410 
407605 
407792 
407976 
408162 
408350 
408539 
408731 
408918 
409102 
409294 
409488 
409678 
409864 
410054 
410241 
410432 
410624 
410811 
410996 
411186 
411374 
411560 
411746 
411932 
412119 
412307 
412495 
412684 
412869 
413061 
413248 
413433 
413617 
413806 
413990 
414179 
414362 
414548 
414731 
414922 
415108 
415290 
415475 
415663 
415851 
416040 
416226 
416411 
416597 
416790 
416978 
417161 
417347 
417534 
417722 
417914 
418101 
418286 
418477 
418672 
418865 
419051 
419239 
419427 
419617 
419807 
419994 
420176 
420367 
420553 
420740 
420924 
421111 
421299 
421488 
421677 
421866 
422056 
422252 
422441 
422629 
422744 
423007 
423196 
423388 
423572 
423759 
423947 
424142 
424330 
424515 
424704 
424892 
425087 
425279 
425468 
425653 
425845 
426037 
426224 
426408 
426594 
426782 
426972 
427160 
427349 
427536 
427732 
427921 
428111 
428299 
428492 
428683 
428876 
429063 
429250 
429438 
429631 
429820 
430004 
430194 
430380 
430572 
430667 
430949 
431134 
431242 
431511 
431697 
431879 
432062 
432245 
432431 
432550 
432800 
432983 
433171 
433361 
433548 
433729 
433914 
434098 
434288 
434477 
434663 
434844 
435033 
435224 
435411 
435594 
435778 
435962 
436151 
436340 
436527 
436709 
436899 
437087 
437276 
437460 
437645 
437829 
438019 
438116 
438393 
438574 
438764 
438949 
439134 
439316 
439503 
439690 
439877 
440066 
440255 
440443 
440635 
440825 
441012 
441199 
441390 
441578 
441768 
441954 
442142 
442330 
442524 
442713 
442900 
443090 
443278 
443472 
443665 
443855 
444041 
444233 
444426 
444616 
444801 
444989 
445175 
445365 
445553 
445740 
445925 
446119 
446304 
446491 
446676 
446865 
447054 
447243 
447430 
447617 
447804 
447998 
448182 
448366 
448552 
448740 
448929 
449117 
449303 
449488 
449679 
449871 
450057 
450241 
450428 
450614 
450802 
450991 
451175 
451358 
451546 
451737 
451922 
452104 
452290 
452478 
452670 
452859 
453047 
453234 
453427 
453615 
453803 
453986 
454174 
454359 
454547 
454732 
454916 
455100 
455293 
455483 
455670 
455858 
456049 
456242 
456434 
456624 
456812 
457003 
457198 
457386 
457571 
457758 
457945 
458137 
458327 
458516 
458704 
458899 
459093 
459283 
459469 
459659 
459848 
460039 
460227 
460413 
460600 
460793 
460981 
461168 
461354 
461542 
461731 
461923 
462109 
