3.96875 1.228839 0.755 -0.473839
4.828125 1.367281 0.953201 -0.41408
5.6640625 1.3746369999999999 0.864839 -0.509798
6.5078125 1.302197 0.737832 -0.564365
7.33203125 1.214152 0.779152 -0.435
8.22265625 1.334489 0.849518 -0.484971
9.1015625 1.272169 0.694212 -0.577957
9.9375 1.119437 0.598421 -0.521016
10.79296875 1.2793860000000001 0.760183 -0.519203
11.6484375 1.274187 0.69396 -0.580227
12.48046875 1.140247 0.449972 -0.690275
13.29296875 1.258111 0.673238 -0.584873
14.16796875 1.238464 0.701086 -0.537378
15.046875 1.26357 0.65857 -0.605
15.90234375 1.233648 0.633845 -0.599803
16.7890625 1.226766 0.604632 -0.622134
17.61328125 1.1776689999999999 0.649075 -0.528594
18.43359375 1.269441 0.769951 -0.49949
19.2578125 1.2386490000000001 0.668103 -0.570546
20.16796875 1.249568 0.624568 -0.625
21.046875 1.2216999999999998 0.584038 -0.637662
21.8984375 1.264653 0.583744 -0.680909
22.76171875 1.240747 0.626318 -0.614429
23.60546875 1.339987 0.824994 -0.514993
24.4453125 1.332758 0.738403 -0.594355
25.28515625 1.284643 0.705 -0.579643
26.171875 1.309889 0.765 -0.544889
27.03125 1.198783 0.724645 -0.474138
27.890625 1.269809 0.906309 -0.3635
28.78125 1.275485 0.89479 -0.380695
29.6328125 1.259984 0.801564 -0.45842
30.46875 1.301989 0.873828 -0.428161
31.31640625 1.290132 0.819507 -0.470625
32.23046875 1.269979 0.764979 -0.505
33.1484375 1.2241659999999999 0.709598 -0.514568
34.03125 1.250922 0.792317 -0.458605
34.921875 1.308813 0.839419 -0.469394
35.796875 1.248362 0.758901 -0.489461
36.65234375 1.193816 0.749368 -0.444448
37.53125 1.272087 0.822087 -0.45
38.453125 1.259912 0.744912 -0.515
39.3515625 1.190798 0.748591 -0.442207
40.21875 1.242848 0.674276 -0.568572
41.10546875 1.189777 0.589987 -0.59979
41.94921875 1.039754 0.575269 -0.464485
42.78125 1.269674 0.779941 -0.489733
43.65625 1.2879369999999999 0.699265 -0.588672
44.53515625 1.334902 0.94 -0.394902
45.44140625 1.315413 0.859568 -0.455845
46.28515625 1.24224 0.747137 -0.495103
47.14453125 1.3446310000000001 0.789988 -0.554643
47.9765625 1.229738 0.616437 -0.613301
48.7890625 1.25618 0.736526 -0.519654
49.68359375 0.919509 0.329225 -0.590284
50.578125 0.648547 0.148794 -0.499753
51.43359375 1.0971609999999998 0.558881 -0.53828
52.28125 1.107116 0.557116 -0.55
53.171875 1.014151 0.414566 -0.599585
54.0234375 1.188241 0.898311 -0.28993
54.85546875 1.2444410000000001 1.174835 -0.069606
55.75 1.205 0.95 -0.255
56.65234375 1.244189 0.672679 -0.57151
57.5546875 0.987153 0.140872 -0.846281
58.421875 1.143831 0.414551 -0.72928
59.29296875 0.949504 0.160749 -0.788755
60.14453125 1.159583 0.554954 -0.604629
60.98046875 1.319591 0.8 -0.519591
61.8984375 1.309803 0.815268 -0.494535
62.81640625 1.256894 0.85398 -0.402914
63.72265625 1.168266 0.826361 -0.341905
64.58984375 1.020109 0.49435 -0.525759
65.4609375 1.159894 0.784894 -0.375
66.3203125 1.1888830000000001 0.821019 -0.367864
67.171875 1.086377 0.74 -0.346377
68.05859375 1.199881 0.839891 -0.35999
68.96875 0.998984 0.403984 -0.595
69.82421875 0.9991749999999999 0.629181 -0.369994
70.703125 1.302412 0.889454 -0.412958
71.5703125 1.152075 0.550317 -0.601758
72.40234375 1.173971 0.684687 -0.489284
73.24609375 1.131367 0.623638 -0.507729
74.1484375 1.238254 0.725268 -0.512986
75.08203125 1.2492990000000002 0.729299 -0.52
75.984375 0.957935 0.493672 -0.464263
76.8671875 1.150816 0.861562 -0.289254
77.7265625 1.236357 0.981442 -0.254915
78.60546875 1.232805 0.889833 -0.342972
79.5 1.205 0.845 -0.36
80.42578125 1.228665 0.793544 -0.435121
81.33984375 1.097969 0.628288 -0.469681
82.1875 1.018632 0.683646 -0.334986
83.05859375 1.276826 1.02 -0.256826
83.921875 1.278654 0.908654 -0.37
84.78515625 1.166614 0.412208 -0.754406
85.6484375 1.052288 0.507288 -0.545
86.546875 1.254185 0.699326 -0.554859
87.484375 1.243626 0.582793 -0.660833
88.3671875 1.046148 0.412723 -0.633425
89.24609375 1.014067 0.299067 -0.715
90.10546875 1.017643 0.479916 -0.537727
90.94921875 0.7566809999999999 0.715 -0.041681
91.86328125 1.067831 0.881815 -0.186016
92.78515625 1.055181 0.540661 -0.51452
93.6796875 1.176906 0.194445 -0.982461
94.5234375 1.323785 0.558326 -0.765459
95.375 1.54671 0.76 -0.78671
96.2421875 1.535722 0.69327 -0.842452
97.0859375 1.5244849999999999 0.819732 -0.704753
97.98828125 1.3965679999999998 0.619732 -0.776836
98.8984375 1.108983 0.358983 -0.75
99.7890625 1.035598 0.496028 -0.53957
100.66796875 1.101725 0.728501 -0.373224
101.5546875 1.1327660000000002 0.688725 -0.444041
102.40625 0.9607 0.47706 -0.48364
103.24609375 0.9989560000000001 0.939099 -0.059857
104.16015625 1.000759 1.384993 0.384234
105.06640625 0.9917870000000001 0.889951 -0.101836
105.9296875 0.920516 0.289683 -0.630833
106.76171875 0.956292 0.364711 -0.591581
107.59375 1.214327 0.434641 -0.779686
108.4296875 1.129607 0.079781 -1.049826
109.265625 1.1475279999999999 0.345 -0.802528
110.18359375 1.1514410000000002 0.539432 -0.612009
111.0703125 1.185752 0.714092 -0.47166
111.93359375 1.1199 0.564943 -0.554957
112.8203125 0.712341 0.297341 -0.415
113.6953125 1.100733 0.711104 -0.389629
114.55859375 1.216218 0.88 -0.336218
115.4140625 0.8607400000000001 0.535537 -0.325203
116.31640625 1.191659 0.904823 -0.286836
117.23046875 1.232444 0.894973 -0.337471
118.1171875 1.2002570000000001 0.83821 -0.362047
119.00390625 1.045306 0.594739 -0.450567
119.8359375 0.8899239999999999 0.559924 -0.33
120.671875 1.021086 0.67 -0.351086
121.55078125 1.121831 0.614564 -0.507267
122.46484375 1.163482 0.576907 -0.586575
123.36328125 0.883088 0.546369 -0.336719
124.2109375 1.08786 0.89 -0.19786
125.0859375 1.291727 1.119922 -0.171805
125.94921875 1.271384 0.947312 -0.324072
126.80078125 1.0644470000000001 0.834447 -0.23
127.6875 1.2587359999999999 0.854 -0.404736
128.61328125 1.218304 0.85 -0.368304
129.52734375 1.227544 0.783107 -0.444437
130.3984375 1.078978 0.709598 -0.36938
131.265625 1.029866 0.342366 -0.6875
132.11328125 0.994744 0.413025 -0.581719
132.9453125 1.107375 0.46 -0.647375
133.8515625 1.2262110000000002 0.516467 -0.709744
134.765625 1.218077 0.523359 -0.694718
135.68359375 1.109497 0.449497 -0.66
136.5234375 1.1236320000000002 0.848632 -0.275
137.37109375 1.223033 0.948089 -0.274944
138.2265625 1.064705 0.836978 -0.227727
139.0703125 1.1144560000000001 0.784456 -0.33
139.96875 0.995007 0.505859 -0.489148
140.82421875 1.082754 0.818215 -0.264539
141.70703125 1.30936 0.97436 -0.335
142.5546875 1.356135 0.90636 -0.449775
143.421875 1.298808 0.818037 -0.480771
144.27734375 1.126623 0.394837 -0.731786
145.1015625 1.235745 0.726503 -0.509242
145.984375 1.252326 0.752326 -0.5
146.90625 1.080933 0.49 -0.590933
147.80078125 1.023519 0.409455 -0.614064
148.66796875 0.899312 0.119989 -0.779323
149.49609375 0.967573 0.487665 -0.479908
150.28515625 1.260016 0.816692 -0.443324
151.1953125 1.291545 0.838591 -0.452954
152.10546875 1.304287 0.824962 -0.479325
152.99609375 1.155828 0.620828 -0.535
153.86328125 1.179989 0.812621 -0.367368
154.7265625 1.305023 0.910023 -0.395
155.58984375 1.2786849999999998 0.705 -0.573685
156.43359375 1.153653 0.394225 -0.759428
157.23046875 1.149746 0.629902 -0.519844
158.11328125 1.278151 0.764714 -0.513437
158.98828125 1.032457 0.493004 -0.539453
159.86328125 1.260912 0.831893 -0.429019
160.7421875 1.309553 0.937647 -0.371906
161.58203125 1.35834 0.99334 -0.365
162.4140625 1.2925200000000001 0.874928 -0.417592
163.25390625 1.284825 0.748088 -0.536737
164.15234375 1.0743260000000001 0.628069 -0.446257
165.04296875 1.1643400000000002 0.65612 -0.50822
165.89453125 1.041647 0.47498 -0.566667
166.76171875 1.0566309999999999 0.721758 -0.334873
167.6015625 1.060063 0.622749 -0.437314
168.4453125 1.241631 0.566675 -0.674956
169.26953125 0.8214710000000001 0.394971 -0.4265
170.140625 1.216966 0.776406 -0.44056
171.015625 1.222309 0.802363 -0.419946
171.87109375 1.0685310000000001 0.487445 -0.581086
172.74609375 1.106337 0.676743 -0.429594
173.57421875 1.06432 0.474905 -0.589415
174.38671875 1.067426 0.71 -0.357426
175.203125 1.299259 0.858219 -0.44104
176.07421875 1.084838 0.679564 -0.405274
176.9609375 0.8275859999999999 0.329742 -0.497844
177.8359375 0.818904 0.154768 -0.664136
178.66796875 0.842894 0.435859 -0.407035
178.9296875 0.618494 0.398025 -0.220469
179.4921875 0.816235 0.429506 -0.386729
179.71875 0.594258 0.383068 -0.21119
180.32421875 0.8907590000000001 0.457233 -0.433526
180.5859375 0.464945 0.235 -0.229945
181.15625 0.830826 0.276389 -0.554437
181.41796875 0.393782 0.163782 -0.23
182.03515625 0.951998 0.507652 -0.444346
182.2890625 0.44 0.195 -0.245
182.89453125 0.86 0.355 -0.505
183.15625 0.514297 0.157813 -0.356484
183.75390625 0.7096640000000001 0.133048 -0.576616
183.98828125 0.470786 0.214667 -0.256119
184.5859375 1.053796 0.604785 -0.449011
184.84375 0.40563099999999996 0.166906 -0.238725
185.0546875 0.037266999999999995 -0.182733 -0.22
185.421875 0.8457939999999999 0.438747 -0.407047
185.6875 0.517956 0.24625 -0.271706
186.234375 0.7299709999999999 0.19 -0.539971
186.48828125 0.549836 0.19166 -0.358176
187.0234375 0.7582720000000001 0.003272 -0.755
187.2890625 0.444144 0.169781 -0.274363
187.859375 0.692839 -0.077075 -0.769914
188.109375 0.55 0.2 -0.35
188.7109375 0.610805 -0.035029 -0.645834
188.97265625 0.39499999999999996 0.11 -0.285
189.19140625 0.03994400000000001 -0.184753 -0.224697
189.546875 1.128395 0.739802 -0.388593
189.8046875 0.537389 0.190898 -0.346491
190.34375 1.231924 0.833738 -0.398186
191.13671875 1.252221 0.795 -0.457221
191.921875 0.949419 0.224419 -0.725
192.69140625 0.739243 0.244304 -0.494939
193.51171875 1.208136 0.91322 -0.294916
194.37890625 1.3163500000000001 0.987006 -0.329344
195.23046875 1.2799880000000001 0.949988 -0.33
196.046875 1.2954430000000001 0.969542 -0.325901
196.88671875 1.2507920000000001 0.698451 -0.552341
197.71875 0.8934949999999999 0.193814 -0.699681
198.51171875 0.948822 0.464422 -0.4844
199.3125 1.170524 0.686667 -0.483857
200.17578125 1.261132 0.697695 -0.563437
201.03515625 1.24803 0.576026 -0.672004
201.875 1.28494 0.605 -0.67994
202.7265625 1.216587 0.519575 -0.697012
203.55859375 1.194549 0.579694 -0.614855
204.37890625 1.033158 0.278158 -0.755
205.17578125 1.170805 0.98616 -0.184645
206.0546875 1.1394 0.9794 -0.16
206.91015625 1.1544240000000001 0.985101 -0.169323
207.75390625 1.136596 0.647182 -0.489414
208.55859375 1.2578770000000001 0.51969 -0.738187
209.39453125 1.229751 0.349868 -0.879883
210.19140625 0.9656610000000001 0.04446 -0.921201
210.9921875 1.221972 0.573498 -0.648474
211.859375 1.320276 0.755785 -0.564491
212.73046875 1.2859639999999999 0.784936 -0.501028
213.58203125 1.156621 0.592569 -0.564052
214.41796875 0.981574 0.357004 -0.62457
215.24609375 0.9408449999999999 0.241034 -0.699811
216.04296875 0.768487 0.303487 -0.465
216.83203125 1.371001 1.153241 -0.21776
217.6875 1.415514 1.162422 -0.253092
218.55078125 1.360137 0.959067 -0.40107
219.41015625 0.924601 0.562895 -0.361706
220.25390625 1.283539 0.964077 -0.319462
221.10546875 1.293485 0.88998 -0.403505
221.9296875 1.302962 0.794962 -0.508
222.76953125 1.298605 0.854917 -0.443688
223.6484375 1.129918 0.471347 -0.658571
224.5234375 1.068555 0.542288 -0.526267
225.39453125 1.213575 0.669981 -0.543594
226.2421875 1.28727 0.724588 -0.562682
227.1015625 1.180713 0.652885 -0.527828
227.9453125 1.174543 0.604559 -0.569984
228.78125 0.815474 0.320594 -0.49488
229.63671875 1.143591 0.494058 -0.649533
230.53125 1.2735750000000001 0.704286 -0.569289
231.43359375 1.247248 0.687248 -0.56
232.31640625 1.192515 0.50476 -0.687755
233.1953125 1.142749 0.499792 -0.642957
234.046875 1.108695 0.493763 -0.614932
234.890625 1.0501800000000001 0.35 -0.70018
235.79296875 1.0631460000000001 0.248178 -0.814968
236.71875 0.904505 0.098812 -0.805693
237.609375 1.0764369999999999 0.541447 -0.53499
238.4609375 1.281638 0.704792 -0.576846
239.32421875 0.8957459999999999 0.415593 -0.480153
240.18359375 1.429148 1.134304 -0.294844
241.0234375 1.127693 0.702817 -0.424876
241.91796875 0.98796 0.553348 -0.434612
242.8125 0.9006500000000001 0.274 -0.62665
243.71484375 0.805001 0.280292 -0.524709
244.55859375 0.861119 0.523689 -0.33743
245.41796875 0.933442 0.553442 -0.38
246.25390625 0.903583 0.35872 -0.544863
247.08203125 0.870382 0.262511 -0.607871
247.96484375 0.695838 0.164345 -0.531493
248.8671875 1.016825 0.468231 -0.548594
249.74609375 1.065758 0.452974 -0.612784
250.5859375 0.985471 0.279978 -0.705493
251.43359375 0.9616899999999999 0.274055 -0.687635
252.26171875 0.947423 0.224105 -0.723318
253.08984375 0.937963 0.146026 -0.791937
253.9765625 0.7314609999999999 0.091467 -0.639994
254.859375 1.011319 0.440386 -0.570933
255.7265625 0.748923 0.253923 -0.495
255.96484375 0.460567 0.280567 -0.18
256.5625 1.079498 0.547273 -0.532225
257.44140625 1.002248 0.392248 -0.61
257.68359375 0.50193 0.139936 -0.361994
258.26953125 1.229646 0.574949 -0.654697
259.08203125 1.146845 0.498812 -0.648033
259.96875 1.103742 0.743942 -0.3598
260.8515625 1.001806 0.343798 -0.658008
261.71875 0.850818 0.220818 -0.63
262.5703125 1.187055 0.682692 -0.504363
263.4140625 1.3015690000000002 0.684872 -0.616697
264.2265625 0.968997 0.226282 -0.742715
265.03125 1.160653 0.572094 -0.588559
265.91796875 1.1298789999999999 0.53171 -0.598169
266.8046875 1.1539160000000002 0.574141 -0.579775
267.671875 1.201656 0.571119 -0.630537
268.51953125 1.078996 0.374629 -0.704367
269.34375 1.12384 0.695 -0.42884
270.18359375 1.247101 0.80261 -0.444491
271.0078125 1.16827 0.741564 -0.426706
271.89453125 1.1737030000000002 0.660266 -0.513437
272.78125 1.121103 0.479205 -0.641898
273.66796875 0.895654 0.245 -0.650654
274.5234375 1.120059 0.570215 -0.549844
275.375 1.103597 0.465 -0.638597
276.1953125 0.89699 0.343779 -0.553211
277.0 1.093772 0.645 -0.448772
277.87109375 1.289688 0.844839 -0.444849
278.78515625 1.317264 0.762356 -0.554908
279.67578125 1.20988 0.415 -0.79488
280.51953125 0.939921 0.409921 -0.53
281.359375 1.167326 0.677326 -0.49
282.21875 0.932779 0.333393 -0.599386
283.0546875 1.1228850000000001 0.65946 -0.463425
283.94921875 1.271663 0.707718 -0.563945
284.83984375 1.1638249999999999 0.466979 -0.696846
285.734375 0.9299360000000001 0.004936 -0.925
286.5625 0.962669 0.203182 -0.759487
287.42578125 1.3423720000000001 0.831161 -0.511211
288.2578125 1.289244 0.8821 -0.407144
289.07421875 1.259248 0.776525 -0.482723
289.95703125 1.092773 0.532444 -0.560329
290.859375 1.005735 0.320749 -0.684986
291.71484375 1.039208 0.517756 -0.521452
292.546875 1.30884 0.904689 -0.404151
293.38671875 1.156854 0.539428 -0.617426
294.21875 1.1510129999999998 0.623003 -0.52801
295.0390625 1.309978 0.944978 -0.365
295.93359375 1.1375950000000001 0.564523 -0.573072
296.8203125 1.231436 0.811593 -0.419843
297.69921875 1.190874 0.704553 -0.486321
298.55859375 1.356595 1.111595 -0.245
299.453125 1.2569919999999999 0.728466 -0.528526
300.3046875 1.2479339999999999 0.528403 -0.719531
301.125 0.954971 0.055 -0.899971
302.01171875 1.102773 0.547773 -0.555
302.90234375 1.3483260000000001 0.688897 -0.659429
303.78515625 1.347143 1.047699 -0.299444
304.63671875 1.288483 0.899447 -0.389036
305.4765625 1.2839450000000001 0.568945 -0.715
306.296875 1.0832709999999999 0.16 -0.923271
307.109375 0.8426119999999999 -0.066509 -0.909121
308.01171875 1.199214 0.409723 -0.789491
308.90625 1.198412 0.36096 -0.837452
309.77734375 1.098043 0.21471 -0.883333
310.625 0.9659669999999999 0.21 -0.755967
311.47265625 1.265531 0.788959 -0.476572
312.32421875 1.240788 0.730788 -0.51
313.18359375 1.120437 0.470784 -0.649653
314.0625 0.9186110000000001 0.548625 -0.369986
314.9375 1.347968 0.947187 -0.400781
315.84375 1.3064060000000002 1.034844 -0.271562
316.7265625 1.256445 1.337258 0.080813
317.58984375 1.177624 0.837624 -0.34
318.41015625 1.110938 0.636418 -0.47452
319.25390625 1.277593 0.560902 -0.716691
320.1640625 1.239722 0.39982 -0.839902
321.06640625 1.0751119999999998 0.309951 -0.765161
321.91796875 0.926074 0.306179 -0.619895
322.7890625 1.264569 0.719569 -0.545
323.6328125 1.217727 0.75 -0.467727
324.48828125 1.155 0.535 -0.62
325.296875 0.804522 0.44991 -0.354612
326.18359375 1.222722 0.924311 -0.298411
327.0625 1.12819 0.75819 -0.37
327.91796875 1.447469 0.962469 -0.485
328.78515625 1.3932829999999998 0.841861 -0.551422
329.640625 1.2239710000000001 0.627811 -0.59616
330.46875 0.83628 0.338281 -0.497999
331.30078125 1.294118 1.169548 -0.12457
332.1875 1.303816 1.053625 -0.250191
333.0859375 1.189841 0.714841 -0.475
333.94140625 1.0447410000000001 0.494749 -0.549992
334.80859375 1.151192 0.64963 -0.501562
335.65234375 1.150808 0.59 -0.560808
336.46875 1.018135 0.824219 -0.193916
337.28125 1.2819820000000002 1.072094 -0.209888
338.1875 1.2604929999999999 0.9205 -0.339993
339.0703125 1.020254 0.465 -0.555254
339.9140625 1.12131 0.734732 -0.386578
340.7734375 1.194514 0.843264 -0.35125
341.6328125 1.21045 0.685697 -0.524753
342.48046875 1.14486 0.479908 -0.664952
343.2890625 0.9199109999999999 0.429911 -0.49
344.16015625 1.122908 0.82099 -0.301918
345.05078125 1.225704 0.941379 -0.284325
345.8984375 1.352287 0.983662 -0.368625
346.765625 1.307002 0.732884 -0.574118
347.60546875 1.143853 0.464629 -0.679224
348.4140625 1.166643 0.804725 -0.361918
349.21875 1.2813 0.9413 -0.34
350.12890625 1.343042 0.974396 -0.368646
351.02734375 1.363769 1.069104 -0.294665
351.89453125 1.110271 0.754897 -0.355374
352.7265625 1.000605 0.817441 -0.183164
353.58203125 1.301498 1.091498 -0.21
354.42578125 1.296256 1.032235 -0.264021
355.26171875 1.258514 0.924422 -0.334092
356.16015625 1.235222 0.750753 -0.484469
357.05078125 0.992403 0.434852 -0.557551
357.90625 1.149 0.779 -0.37
358.80078125 1.14684 0.83184 -0.315
359.65234375 1.195794 0.875878 -0.319916
360.48046875 1.244979 1.089979 -0.155
361.3046875 1.227941 0.7588 -0.469141
362.2109375 1.0198 0.4148 -0.605
363.10546875 1.154905 0.659972 -0.494933
363.9765625 1.12922 0.737972 -0.391248
364.8515625 1.09043 0.72 -0.37043
365.703125 1.368893 1.09911 -0.269783
366.5625 1.322997 0.933333 -0.389664
367.4296875 1.234852 0.735 -0.499852
368.3359375 1.0834700000000002 0.499823 -0.583647
369.22265625 1.223132 0.846371 -0.376761
370.0859375 1.217699 0.674887 -0.542812
370.9453125 1.124456 0.679456 -0.445
371.79296875 1.225551 0.821107 -0.404444
372.6484375 1.212108 0.703264 -0.508844
373.48828125 1.208156 0.608691 -0.599465
374.37109375 1.2037689999999999 0.611937 -0.591832
375.27734375 1.137098 0.437539 -0.699559
376.12890625 1.0828630000000001 0.648078 -0.434785
376.98828125 1.104934 0.441223 -0.663711
377.80859375 0.9879469999999999 0.471625 -0.516322
378.6484375 1.29761 1.032694 -0.264916
379.5 1.296076 0.845 -0.451076
380.4140625 1.254745 0.699857 -0.554888
381.3359375 1.184439 0.6299 -0.554539
382.1953125 1.1510989999999999 0.573817 -0.577282
383.06640625 1.1189520000000002 0.530765 -0.588187
383.921875 1.0977480000000002 0.499317 -0.598431
384.74609375 1.239738 1.059738 -0.18
385.58984375 1.3361699999999999 1.009677 -0.326493
386.47265625 1.317497 0.862497 -0.455
387.37109375 1.286912 0.821936 -0.464976
388.2109375 1.284049 0.729627 -0.554422
389.07421875 1.293192 0.679852 -0.61334
389.90625 1.2303069999999998 0.634474 -0.595833
390.7265625 1.25864 0.62074 -0.6379
391.57421875 1.165196 0.566856 -0.59834
392.4765625 1.2053099999999999 0.586572 -0.618738
393.33984375 1.105753 0.592208 -0.513545
394.17578125 1.33 0.835 -0.495
395.03125 1.333495 0.730363 -0.603132
395.87109375 1.28603 0.652124 -0.633906
396.71484375 1.157317 0.474403 -0.682914
397.5625 1.0105819999999999 0.500588 -0.509994
398.46484375 1.3347200000000001 0.99972 -0.335
399.35546875 1.389893 0.939913 -0.44998
400.22265625 1.2901880000000001 0.712418 -0.57777
401.10546875 1.139837 0.73 -0.409837
401.953125 1.419262 1.157997 -0.261265
402.79296875 1.3477510000000001 1.016771 -0.33098
403.66796875 1.310191 0.870191 -0.44
404.5703125 1.327791 0.728217 -0.599574
405.4921875 1.1722549999999998 0.493517 -0.678738
406.36328125 1.018093 0.538862 -0.479231
407.20703125 0.988195 0.974265 -0.01393
408.03125 1.271301 0.912209 -0.359092
408.86328125 1.268245 0.534772 -0.733473
409.7578125 0.9091279999999999 0.1122 -0.796928
410.66796875 0.8812679999999999 0.314132 -0.567136
411.546875 1.207623 0.724063 -0.48356
412.3984375 1.171157 0.846277 -0.32488
413.26171875 1.019176 0.865 -0.154176
414.09765625 1.04 0.665 -0.375
414.9140625 1.508408 1.069359 -0.439049
415.8046875 1.588664 1.018693 -0.569971
416.69921875 1.5445280000000001 0.754528 -0.79
417.625 1.3383180000000001 0.53 -0.808318
418.484375 1.212234 0.296016 -0.916218
419.33203125 0.884989 0.369989 -0.515
420.1875 1.393646 1.002262 -0.391384
421.03515625 1.352961 1.002961 -0.35
421.93359375 1.117694 0.76 -0.357694
422.85546875 1.36998 1.12498 -0.245
423.74609375 1.368798 1.238853 -0.129945
424.6015625 1.4415280000000001 1.221572 -0.219956
425.46875 1.457166 1.198871 -0.258295
426.3359375 1.451349 1.04495 -0.406399
427.1796875 1.3238590000000001 0.813859 -0.51
428.0546875 1.341019 1.011019 -0.33
428.953125 1.450081 1.019807 -0.430274
429.84765625 1.478411 1.063866 -0.414545
430.7265625 1.2621600000000002 0.718303 -0.543857
431.57421875 1.217427 0.859571 -0.357856
432.41796875 1.415752 0.817014 -0.598738
433.25 1.412414 0.74 -0.672414
434.1484375 1.296033 0.71 -0.586033
435.046875 1.337019 0.909542 -0.427477
435.91796875 1.439891 1.054891 -0.385
436.765625 1.168317 0.823387 -0.34493
437.60546875 1.453747 1.004919 -0.448828
438.453125 1.313037 0.888037 -0.425
439.30859375 1.190822 0.805839 -0.384983
440.23046875 1.314955 0.944984 -0.369971
441.12890625 1.431949 1.362993 -0.068956
441.99609375 1.309912 0.845 -0.464912
442.90234375 1.352145 0.678345 -0.6738
443.7734375 1.364687 0.719562 -0.645125
444.62109375 1.4129260000000001 0.828395 -0.584531
445.46875 1.487879 0.807879 -0.68
446.38671875 1.3993220000000002 0.75187 -0.647452
447.28515625 1.3272309999999998 0.802588 -0.524643
448.1484375 1.307221 0.91 -0.397221
449.01171875 1.253312 0.873563 -0.379749
449.83203125 1.0846900000000002 0.71469 -0.37
450.66015625 1.3605369999999999 0.841123 -0.519414
451.5078125 1.420127 1.148073 -0.272054
452.39453125 1.380819 1.044986 -0.335833
453.296875 1.364608 0.839697 -0.524911
454.15234375 1.3087550000000001 0.715 -0.593755
455.02734375 1.4024320000000001 0.787945 -0.614487
455.87890625 1.208423 0.601834 -0.606589
456.7265625 1.34337 1.020047 -0.323323
457.58203125 1.32471 0.86471 -0.46
458.4921875 1.207686 0.645733 -0.561953
459.375 1.2582710000000001 0.755 -0.503271
460.23046875 1.233768 0.929994 -0.303774
461.09375 1.502759 1.21596 -0.286799
461.9375 1.473532 1.076667 -0.396865
462.78125 1.4229310000000002 1.013424 -0.409507
463.6484375 1.309589 0.714783 -0.594806
464.546875 0.9717830000000001 0.582025 -0.389758
465.4609375 1.3719270000000001 0.933826 -0.438101
466.32421875 1.480363 0.846482 -0.633881
467.1796875 1.244762 0.622481 -0.622281
468.01953125 1.414961 0.784961 -0.63
468.87890625 1.485675 0.813132 -0.672543
469.7578125 1.3816220000000001 0.571622 -0.81
470.6171875 0.989962 0.45 -0.539962
471.5078125 1.574509 1.058498 -0.516011
472.37109375 1.494657 1.002373 -0.492284
473.23046875 1.588152 0.97986 -0.608292
474.08203125 1.523598 0.900575 -0.623023
474.90234375 1.4355980000000002 0.718584 -0.717014
475.7734375 1.219603 0.488243 -0.73136
476.65625 1.3425690000000001 0.802786 -0.539783
477.56640625 1.507773 0.884681 -0.623092
478.40625 1.3022109999999998 0.72425 -0.577961
479.2421875 1.510731 1.183138 -0.327593
480.06640625 1.49909 1.044145 -0.454945
480.87890625 1.3884159999999999 0.726994 -0.661422
481.75 1.475 0.91 -0.565
482.65234375 1.42927 0.744491 -0.684779
483.53515625 1.45148 0.881773 -0.569707
484.37109375 1.479938 0.842276 -0.637662
485.23046875 1.25496 0.614966 -0.639994
486.078125 1.5195919999999998 1.024592 -0.495
486.90625 1.3542839999999998 0.725 -0.629284
487.7578125 1.4946670000000002 1.09529 -0.399377
488.64453125 1.580414 1.120542 -0.459872
489.5390625 1.465991 0.950991 -0.515
490.39453125 1.5926019999999999 0.980557 -0.612045
491.2734375 1.535327 0.725483 -0.809844
492.09765625 1.382489 0.667775 -0.714714
492.88671875 1.4241489999999999 0.739687 -0.684462
493.7734375 1.4682 0.789475 -0.678725
494.671875 1.299317 0.644317 -0.655
495.53125 1.1453790000000001 0.705859 -0.43952
496.34765625 1.208875 0.934704 -0.274171
497.19140625 1.360976 1.059394 -0.301582
498.01171875 1.412872 1.019744 -0.393128
498.8359375 1.3998570000000001 0.934857 -0.465
499.68359375 1.325436 1.124225 -0.201211
500.5546875 1.548689 1.339519 -0.20917
501.43359375 1.560781 1.174637 -0.386144
502.296875 1.450196 0.948938 -0.501258
503.16796875 1.373379 0.740248 -0.633131
503.9921875 1.243218 0.724312 -0.518906
504.8125 1.4259 1.080761 -0.345139
505.6796875 1.568898 1.14947 -0.419428
506.58203125 1.451719 0.931719 -0.52
507.48828125 1.409449 0.870212 -0.539237
508.3515625 1.322171 0.717234 -0.604937
509.1953125 1.2552320000000001 0.15124 -1.103992
510.03515625 1.4203729999999999 0.970474 -0.449899
510.8984375 1.276272 0.743341 -0.532931
511.78125 1.112309 0.488003 -0.624306
512.66796875 1.136085 0.491179 -0.644906
513.55859375 1.14329 0.804764 -0.338526
514.41015625 1.049819 0.880382 -0.169437
515.265625 1.266072 0.823284 -0.442788
516.1171875 1.657502 0.653287 -1.004215
516.9296875 1.084451 0.449451 -0.635
517.609375 1.8583129999999999 0.333926 -1.524387
518.6640625 1.189952 0.629952 -0.56
519.56640625 1.095519 0.597316 -0.498203
520.390625 0.8949670000000001 0.650328 -0.244639
521.203125 0.773182 0.783182 0.01
522.0 1.134962 1.36 0.225038
522.80078125 1.265069 1.170206 -0.094863
523.62109375 1.312735 1.122843 -0.189892
524.49609375 1.331696 1.041696 -0.29
525.34375 1.352011 0.972358 -0.379653
526.16015625 1.339893 0.900323 -0.43957
527.0078125 1.043351 0.524079 -0.519272
527.83984375 1.258448 0.954129 -0.304319
528.67578125 1.151262 0.711677 -0.439585
529.47265625 0.983865 0.684119 -0.299746
530.40625 1.301287 0.937562 -0.363725
531.30078125 1.261168 0.837496 -0.423672
532.15625 1.219069 0.709654 -0.509415
533.02734375 0.896597 0.442843 -0.453754
533.90625 1.2063869999999999 0.797543 -0.408844
534.75 1.19 0.65 -0.54
535.6171875 0.927316 0.352316 -0.575
536.54296875 1.24811 0.81811 -0.43
537.45703125 1.281852 0.736852 -0.545
538.30078125 1.1145369999999999 0.565506 -0.549031
539.15625 0.877524 0.315072 -0.562452
539.98828125 1.158654 0.735955 -0.422699
540.8515625 1.121245 0.567767 -0.553478
541.73828125 1.026461 0.34 -0.686461
542.625 0.933368 0.34 -0.593368
543.55078125 1.1865320000000001 0.507313 -0.679219
544.43359375 1.059276 0.334276 -0.725
545.30859375 1.137311 0.479124 -0.658187
546.16015625 1.216603 0.692356 -0.524247
546.984375 1.302042 0.857451 -0.444591
547.87890625 1.001803 0.426803 -0.575
548.78515625 0.839713 0.18027 -0.659443
549.67578125 0.857912 0.003387 -0.854525
549.91015625 0.9260120000000001 0.4 -0.526012
550.4609375 0.826711 0.009841 -0.81687
550.67578125 0.910906 0.094036 -0.81687
551.34765625 0.852991 0.219465 -0.633526
552.1640625 0.7497119999999999 -0.15019 -0.899902
552.97265625 0.823019 0.199865 -0.623154
553.83984375 1.102836 0.69 -0.412836
554.69921875 1.198448 0.618448 -0.58
555.546875 0.791685 0.279454 -0.512231
556.375 1.373318 1.01 -0.363318
557.21484375 1.185959 0.60622 -0.579739
558.02734375 1.112722 0.339156 -0.773566
558.8359375 1.205304 0.289725 -0.915579
559.6796875 1.071472 0.302331 -0.769141
560.5390625 1.065991 0.435991 -0.63
561.3984375 1.006483 0.399216 -0.607267
562.22265625 0.9789749999999999 -0.090724 -1.069699
563.0546875 1.101107 0.391888 -0.709219
563.8515625 1.229595 0.966757 -0.262838
564.66796875 1.144912 1.132887 -0.012025
565.48046875 1.224981 0.974981 -0.25
566.35546875 0.829915 0.559987 -0.269928
567.21875 1.117828 0.872841 -0.244987
568.04296875 1.215989 0.876151 -0.339838
568.88671875 1.165997 0.861725 -0.304272
569.71484375 1.060824 0.675421 -0.385403
570.53515625 1.1784970000000001 0.840906 -0.337591
571.33203125 0.9774910000000001 0.782491 -0.195
572.18359375 0.985854 0.764545 -0.221309
573.05078125 1.3247120000000001 1.233494 -0.091218
573.89453125 1.307362 1.11991 -0.187452
574.74609375 1.22074 0.846034 -0.374706
575.59765625 1.2269519999999998 0.792418 -0.434534
576.42578125 1.162766 0.737186 -0.42558
577.2265625 0.998463 0.568033 -0.43043
578.08984375 0.876368 0.484298 -0.39207
578.96484375 1.113638 0.943365 -0.170273
579.81640625 1.22108 1.012988 -0.208092
580.640625 1.224753 0.87 -0.354753
581.46875 1.224367 0.820922 -0.403445
582.29296875 1.1942650000000001 0.594265 -0.6
583.11328125 0.9052760000000001 -0.30347 -1.208746
583.98046875 1.009408 0.159408 -0.85
584.83984375 1.197273 0.59791 -0.599363
585.703125 1.0383069999999999 0.46423 -0.574077
586.53125 1.343318 1.141389 -0.201929
587.3671875 1.361317 1.074567 -0.28675
588.1875 1.3374139999999999 0.952391 -0.385023
588.98046875 1.1545079999999999 0.644902 -0.509606
589.8515625 1.163508 0.572727 -0.590781
590.734375 1.013283 0.294275 -0.719008
591.59765625 0.728614 0.438614 -0.29
592.42578125 1.254027 1.002883 -0.251144
593.26171875 1.264453 0.791781 -0.472672
594.0703125 0.910876 0.030876 -0.88
594.8671875 1.168765 0.454312 -0.714453
595.73046875 1.334502 0.584647 -0.749855
596.609375 1.2083789999999999 0.479116 -0.729263
597.48046875 1.000953 0.139671 -0.861282
598.30078125 1.262782 0.724322 -0.53846
599.13671875 1.364177 0.766725 -0.597452
599.96875 1.2534809999999998 0.488375 -0.765106
600.796875 0.767975 -0.12541 -0.893385
601.609375 0.940556 0.4579 -0.482656
602.46875 1.302358 0.762358 -0.54
603.33203125 1.30945 0.63445 -0.675
604.17578125 1.275 0.71 -0.565
605.0078125 1.241579 0.652695 -0.588884
605.8203125 1.058363 0.295585 -0.762778
606.62109375 0.736276 0.096823 -0.639453
607.42578125 1.191271 0.616236 -0.575035
608.28515625 1.118434 0.428629 -0.689805
609.1484375 1.132412 0.427412 -0.705
609.96875 1.190831 0.415831 -0.775
610.8046875 1.154887 0.445266 -0.709621
611.61328125 0.886206 0.225044 -0.661162
612.40625 0.955114 0.472879 -0.482235
613.19140625 1.149978 0.689548 -0.46043
614.04296875 1.324075 0.876697 -0.447378
614.90234375 0.955603 0.332603 -0.623
615.73828125 1.318231 0.814124 -0.504107
616.546875 1.255339 0.559438 -0.695901
617.38671875 1.162398 0.33115 -0.831248
618.20703125 1.107227 0.343297 -0.76393
619.0078125 1.141035 0.456035 -0.685
619.85546875 1.24269 0.544964 -0.697726
620.73828125 0.981484 0.25 -0.731484
621.59375 0.923636 0.38425 -0.539386
622.40625 1.202514 0.852426 -0.350088
623.2265625 1.294735 0.774735 -0.52
624.0546875 1.2543730000000002 0.614445 -0.639928
624.85546875 1.203475 0.574935 -0.62854
625.70703125 1.119507 0.454507 -0.665
626.59375 1.149231 0.449231 -0.7
627.47265625 1.106457 0.363016 -0.743441
628.30078125 0.837296 0.152296 -0.685
629.16796875 1.1833360000000002 0.608804 -0.574532
630.0078125 1.216618 0.647561 -0.569057
630.84765625 1.199767 0.655 -0.544767
631.72265625 1.006317 0.406317 -0.6
632.61328125 1.1160489999999998 0.597089 -0.51896
633.5 0.807901 0.355 -0.452901
634.3515625 1.252607 1.012607 -0.24
635.234375 1.172118 0.867822 -0.304296
636.078125 1.027774 0.447774 -0.58
636.90625 0.87202 0.42702 -0.445
637.80859375 1.153841 0.709622 -0.444219
638.73046875 1.037755 0.479987 -0.557768
639.6015625 1.225913 1.003187 -0.222726
640.4453125 1.23749 0.87031 -0.36718
641.31640625 1.3148680000000001 0.879889 -0.434979
642.171875 1.21713 0.624794 -0.592336
643.0 0.7449 0.12 -0.6249
643.88671875 1.273095 0.86586 -0.407235
644.7734375 1.191192 0.647755 -0.543437
645.66796875 0.737649 0.097844 -0.639805
646.50390625 0.9459869999999999 0.620987 -0.325
647.359375 1.135286 0.655605 -0.479681
648.1796875 0.857675 0.5388 -0.318875
648.99609375 1.278726 0.940019 -0.338707
649.89453125 1.1449660000000002 0.584966 -0.56
650.80859375 1.139886 0.704886 -0.435
651.70703125 0.90929 0.286196 -0.623094
652.56640625 0.774366 0.069366 -0.705
653.1484375 0.71382 -0.011202 -0.725022
653.43359375 0.989687 0.264665 -0.725022
654.19140625 1.0935190000000001 0.379745 -0.713774
654.44921875 0.5505369999999999 0.205 -0.345537
655.04296875 1.037351 0.294568 -0.742783
655.953125 1.038274 0.354663 -0.683611
656.8515625 1.027796 0.397739 -0.630057
657.734375 0.694234 0.059234 -0.635
657.953125 0.8293550000000001 0.194355 -0.635
658.58203125 0.951495 0.430105 -0.52139
658.83203125 0.41159 0.255936 -0.155654
659.44921875 1.106051 0.569548 -0.536503
660.28515625 1.102137 0.552137 -0.55
661.11328125 1.070275 0.48 -0.590275
662.01171875 0.795933 0.308908 -0.487025
662.91796875 1.1869399999999999 0.752035 -0.434905
663.8203125 1.193582 0.668851 -0.524731
664.68359375 1.183814 0.589366 -0.594448
665.546875 0.84961 0.421098 -0.428512
666.375 1.104364 0.77 -0.334364
667.21484375 1.161498 0.619457 -0.542041
668.13671875 1.17266 0.494415 -0.678245
669.03125 1.097422 0.457422 -0.64
669.90625 1.1071 0.3621 -0.745
670.77734375 1.052617 0.319046 -0.733571
671.6484375 0.8015159999999999 0.201007 -0.600509
672.4765625 1.093954 0.543697 -0.550257
673.2890625 0.933395 0.284971 -0.648424
674.171875 1.1757659999999999 0.688411 -0.487355
675.04296875 1.323802 0.851771 -0.472031
675.9375 1.352029 0.812576 -0.539453
676.8125 0.832422 0.097422 -0.735
677.6484375 1.223587 0.758798 -0.464789
678.48828125 1.333117 0.789438 -0.543679
679.328125 1.229798 0.614798 -0.615
680.24609375 0.912951 0.037951 -0.875
681.13671875 0.675819 0.001112 -0.674707
681.98828125 1.085815 0.456815 -0.629
682.875 1.039908 0.45 -0.589908
683.7265625 0.9798469999999999 0.379847 -0.6
684.5703125 1.093793 0.489157 -0.604636
685.421875 1.1938149999999998 0.558815 -0.635
686.31640625 1.145023 0.44 -0.705023
687.1953125 0.989451 0.639451 -0.35
688.046875 1.244107 0.87 -0.374107
688.94921875 1.291868 0.852134 -0.439734
689.8046875 1.2280190000000002 0.568019 -0.66
690.625 0.7845759999999999 0.38 -0.404576
691.45703125 1.2160739999999999 0.851074 -0.365
692.359375 1.251982 0.772344 -0.479638
693.2734375 1.083066 0.503317 -0.579749
694.15234375 1.095325 0.49345 -0.601875
695.0234375 1.0598480000000001 0.47 -0.589848
695.859375 0.865696 0.277934 -0.587762
696.69140625 0.849892 0.594892 -0.255
697.53125 1.294095 0.985771 -0.308324
698.4375 1.233667 0.743667 -0.49
699.30859375 1.13935 0.575845 -0.563505
700.16796875 1.10743 0.517528 -0.589902
701.03125 1.230352 0.671664 -0.558688
701.87109375 1.2227459999999999 0.644105 -0.578641
702.70703125 0.9519040000000001 0.387827 -0.564077
703.53125 0.784956 0.363375 -0.421581
704.390625 1.14586 0.906016 -0.239844
705.27734375 1.309066 1.019518 -0.289548
706.1484375 1.277622 0.842833 -0.434789
707.02734375 0.7614449999999999 0.158665 -0.60278
707.86328125 1.1636769999999999 0.761021 -0.402656
708.7109375 1.3075899999999998 0.759632 -0.547958
709.5625 1.299108 0.609138 -0.68997
710.4921875 0.7490049999999999 0.199792 -0.549213
711.3515625 1.050121 0.861442 -0.188679
712.19921875 1.383834 1.164067 -0.219767
713.06640625 0.7299370000000001 0.29495 -0.434987
713.921875 1.2520250000000002 1.007025 -0.245
714.7578125 1.390678 1.028745 -0.361933
715.60546875 1.413452 0.994947 -0.418505
716.49609375 1.319062 0.924086 -0.394976
717.38671875 1.261825 0.659434 -0.602391
718.25390625 0.832723 0.071894 -0.760829
719.12109375 0.882958 0.197958 -0.685
719.94921875 0.9892080000000001 0.320536 -0.668672
720.7265625 0.683275 0.021674 -0.661601
720.984375 0.793437 0.131836 -0.661601
721.578125 0.837671 0.294911 -0.54276
721.8359375 0.42994 0.21494 -0.215
722.48046875 1.148398 0.709924 -0.438474
722.75 0.41407700000000003 0.27 -0.144077
723.36328125 1.263964 0.764335 -0.499629
723.62109375 0.44111999999999996 0.241422 -0.199698
724.19921875 1.2283050000000002 0.713771 -0.514534
725.0546875 1.16421 0.609456 -0.554754
725.8984375 1.16818 0.505 -0.66318
726.73828125 0.847599 0.083336 -0.764263
727.61328125 1.229087 0.757603 -0.471484
728.51171875 0.9218120000000001 0.544386 -0.377426
729.40625 1.328756 0.934265 -0.394491
730.30078125 1.2016040000000001 0.571604 -0.63
731.18359375 1.291576 0.786582 -0.504994
732.04296875 1.22943 0.749679 -0.479751
732.890625 1.243868 0.722435 -0.521433
733.78515625 1.136155 0.448474 -0.687681
734.640625 0.7056570000000001 0.020657 -0.685
735.60546875 1.106007 0.584955 -0.521052
736.47265625 1.135532 0.557767 -0.577765
737.32421875 1.1651500000000001 0.515436 -0.649714
738.15625 1.127969 0.442969 -0.685
738.984375 1.031113 0.276183 -0.75493
739.84375 1.0409570000000001 0.452012 -0.588945
740.72265625 1.188792 0.509156 -0.679636
741.59375 1.213082 0.425312 -0.78777
742.4375 1.069591 0.3 -0.769591
743.28125 1.129825 0.337852 -0.791973
744.11328125 0.855 0.015 -0.84
744.9296875 1.084862 0.517332 -0.56753
745.77734375 1.308294 0.677734 -0.63056
746.66015625 1.249564 0.555265 -0.694299
747.578125 1.2336070000000001 0.608607 -0.625
748.44140625 1.179779 0.559779 -0.62
749.3046875 1.091695 0.338032 -0.753663
750.140625 0.822537 0.214653 -0.607884
750.98046875 1.25495 0.789974 -0.464976
751.890625 1.22729 0.638804 -0.588486
752.8203125 1.20053 0.55343 -0.6471
753.71875 1.120294 0.470727 -0.649567
754.57421875 1.112272 0.427272 -0.685
755.43359375 0.8661129999999999 0.219895 -0.646218
756.265625 1.205168 0.920605 -0.284563
757.08203125 1.252629 0.827629 -0.425
757.95703125 1.189632 0.54311 -0.646522
758.81640625 1.06755 0.678163 -0.389387
759.6796875 1.368874 0.963874 -0.405
760.53515625 1.403348 0.958348 -0.445
761.40625 1.360815 0.742143 -0.618672
762.234375 0.701588 0.153447 -0.548141
763.05078125 1.2899310000000002 0.899047 -0.390884
763.9609375 1.37329 0.94995 -0.42334
764.87109375 1.151011 0.541138 -0.609873
765.76953125 0.909782 0.149894 -0.759888
766.578125 0.97377 0.47877 -0.495
767.41796875 1.344701 0.929701 -0.415
768.25390625 1.3231709999999999 0.793171 -0.53
769.05859375 0.750677 0.359948 -0.390729
769.9375 1.260746 0.845769 -0.414977
770.83203125 1.2704 0.8454 -0.425
771.69921875 1.32318 0.78766 -0.53552
772.55859375 0.883057 0.14988 -0.733177
773.39453125 0.959625 0.604907 -0.354718
774.22265625 1.321015 1.003115 -0.3179
775.03515625 1.154474 0.635071 -0.519403
775.9140625 1.140604 0.725897 -0.414707
776.796875 1.179818 0.689907 -0.489911
777.68359375 1.1439059999999999 0.614675 -0.529231
778.5234375 1.191491 0.558991 -0.6325
779.37109375 0.8526070000000001 0.292696 -0.559911
780.16796875 1.015954 0.735954 -0.28
780.98046875 1.280496 0.964982 -0.315514
781.87890625 1.2698019999999999 0.855 -0.414802
782.7734375 0.913664 0.294216 -0.619448
783.64453125 1.145537 0.800537 -0.345
784.49609375 1.267881 0.903118 -0.364763
785.36328125 1.178846 0.726846 -0.452
786.23046875 1.174919 0.634954 -0.539965
787.0625 0.929341 0.304348 -0.624993
787.9296875 1.1625670000000001 0.834303 -0.328264
788.8203125 1.305339 1.004683 -0.300656
789.73828125 1.331329 0.942892 -0.388437
790.59765625 0.913866 0.189862 -0.724004
791.4296875 0.9864660000000001 0.627931 -0.358535
792.26171875 1.324347 0.961361 -0.362986
793.08984375 1.348128 0.847515 -0.500613
793.984375 1.2334049999999999 0.803491 -0.429914
794.88671875 1.241924 0.8068 -0.435124
795.7734375 0.8782540000000001 0.113311 -0.764943
796.6015625 0.813168 0.220268 -0.5929
797.44921875 1.029548 0.467613 -0.561935
798.30078125 1.1362709999999998 0.581062 -0.555209
799.11328125 1.130931 0.462667 -0.668264
799.97265625 0.817539 0.107539 -0.71
800.83203125 0.929721 0.408177 -0.521544
801.71875 1.194946 0.880363 -0.314583
802.5703125 1.270487 0.842306 -0.428181
803.421875 0.8599380000000001 0.289654 -0.570284
804.25390625 1.2613539999999999 0.646676 -0.614678
805.10546875 1.1549719999999999 0.509972 -0.645
806.0078125 1.198598 0.567832 -0.630766
806.9453125 1.174617 0.579617 -0.595
807.859375 1.210328 0.625328 -0.585
808.72265625 1.1805180000000002 0.627634 -0.552884
809.609375 1.184054 0.58136 -0.602694
810.47265625 1.147446 0.462446 -0.685
811.33984375 1.167589 0.432589 -0.735
812.26953125 1.143375 0.439687 -0.703688
813.1796875 1.159771 0.504736 -0.655035
814.046875 1.139848 0.436076 -0.703772
814.9453125 0.8462000000000001 0.056571 -0.789629
815.8125 1.0529920000000002 0.48875 -0.564242
816.6796875 1.258636 0.910211 -0.348425
817.515625 1.253206 0.798206 -0.455
818.4296875 1.0717750000000001 0.298134 -0.773641
819.34375 0.81064 -0.092895 -0.903535
820.19921875 1.0213839999999998 0.602768 -0.418616
821.0703125 1.133 0.573859 -0.559141
821.921875 1.189545 0.673649 -0.515896
822.7578125 1.165571 0.515 -0.650571
823.625 0.975 0.15 -0.825
824.53125 1.002809 0.198393 -0.804416
825.42578125 0.996944 0.275943 -0.721001
826.26953125 1.052411 0.339961 -0.71245
827.12890625 0.808118 0.058118 -0.75
827.94140625 0.949947 0.354947 -0.595
828.7734375 1.151346 0.61641 -0.534936
829.6015625 1.215179 0.605159 -0.61002
830.484375 1.02091 0.227838 -0.793072
831.33203125 1.0628440000000001 0.517844 -0.545
832.1796875 1.294978 0.789978 -0.505
833.04296875 1.228081 0.619823 -0.608258
833.875 1.165753 0.485 -0.680753
834.69921875 0.832492 0.053771 -0.778721
835.5234375 0.8667199999999999 0.18822 -0.6785
836.40234375 1.032554 0.368914 -0.66364
837.2890625 1.067607 0.350897 -0.71671
838.13671875 1.003201 0.288691 -0.71451
838.98828125 0.9032960000000001 0.224084 -0.679212
839.8203125 1.0558969999999999 0.360919 -0.694978
840.65625 0.9593529999999999 0.282012 -0.677341
841.47265625 1.145 0.56 -0.585
842.34765625 0.9831749999999999 0.313614 -0.669561
843.21484375 1.092924 0.397924 -0.695
844.0546875 1.085237 0.381237 -0.704
844.8984375 0.95 0.26 -0.69
845.72265625 0.965697 0.348136 -0.617561
846.5390625 1.119397 0.439397 -0.68
847.33984375 1.114493 0.368655 -0.745838
848.203125 0.7682059999999999 0.11857 -0.649636
849.0859375 1.1881529999999998 0.559873 -0.62828
849.953125 1.218864 0.564467 -0.654397
850.7890625 1.040498 0.34556 -0.694938
851.62109375 1.1965379999999999 0.528023 -0.668515
852.45703125 1.119183 0.471291 -0.647892
853.265625 1.101572 0.492172 -0.6094
854.15625 0.981631 0.382019 -0.599612
855.0234375 0.958665 0.472881 -0.485784
855.890625 1.236326 0.742125 -0.494201
856.7421875 1.233857 0.533857 -0.7
857.59765625 0.9229670000000001 0.42326 -0.499707
858.4296875 1.380337 1.065872 -0.314465
859.25 1.182927 0.54 -0.642927
860.12109375 1.183617 0.679086 -0.504531
861.01171875 1.3290069999999998 0.766076 -0.562931
861.91015625 1.30826 0.698365 -0.609895
862.78515625 1.206718 0.566984 -0.639734
863.625 0.97 0.39 -0.58
864.4453125 1.248583 0.735 -0.513583
865.265625 0.745465 0.300934 -0.444531
866.16015625 1.219276 0.834276 -0.385
867.0390625 1.269825 0.884893 -0.384932
867.890625 1.240312 0.780884 -0.459428
868.71484375 0.733789 0.195 -0.538789
869.55078125 1.268675 0.91532 -0.353355
870.375 0.969824 0.385 -0.584824
871.19140625 1.288774 0.885 -0.403774
872.05078125 1.39055 0.962113 -0.428437
872.90625 1.044625 0.376953 -0.667672
873.75390625 0.99164 0.726846 -0.264794
874.5859375 1.369083 1.184509 -0.184574
875.4296875 1.3738890000000001 1.04987 -0.324019
876.23828125 1.370077 0.995546 -0.374531
877.04296875 1.31 0.84 -0.47
877.91015625 1.311607 0.859323 -0.452284
878.80078125 0.918371 0.146652 -0.771719
879.69140625 1.269864 0.784894 -0.48497
880.515625 0.8475139999999999 0.26392 -0.583594
881.35546875 1.1118350000000001 0.960559 -0.151276
882.17578125 1.228024 0.948215 -0.279809
883.0 0.799107 0.105 -0.694107
883.84375 1.27478 0.752358 -0.522422
884.6953125 1.315972 0.765972 -0.55
885.5546875 1.354078 0.78946 -0.564618
886.37109375 1.2148729999999999 0.735 -0.479873
887.2109375 0.8305509999999999 0.125551 -0.705
888.0 0.975 0.585 -0.39
888.79296875 1.3544399999999999 0.987062 -0.367378
889.58984375 1.493484 1.124763 -0.368721
890.4609375 1.3649229999999999 0.954923 -0.41
891.33984375 1.365074 1.027733 -0.337341
892.17578125 1.2820239999999998 0.91243 -0.369594
892.9921875 0.6559360000000001 0.270936 -0.385
893.8203125 1.267262 1.172473 -0.094789
894.640625 1.341733 1.410824 0.069091
895.44921875 1.329047 1.124047 -0.205
896.328125 1.2746 0.6946 -0.58
897.19140625 0.83199 0.089497 -0.742493
898.01953125 1.147364 0.679862 -0.467502
898.84375 1.343691 0.618984 -0.724707
899.6796875 1.309078 0.336104 -0.972974
900.4609375 1.1876259999999998 0.544778 -0.642848
901.234375 1.3959030000000001 0.753327 -0.642576
902.08203125 1.245 0.525 -0.72
902.9375 1.181191 0.652187 -0.529004
903.78125 0.826219 0.328984 -0.497235
904.59765625 1.193834 0.714914 -0.47892
905.4296875 0.898398 0.378725 -0.519673
906.21484375 0.577724 0.242682 -0.335042
907.015625 1.406358 1.276491 -0.129867
907.890625 1.430115 1.225179 -0.204936
908.76953125 1.394887 1.169887 -0.225
909.63671875 1.2480440000000002 0.863615 -0.384429
910.46875 0.8976010000000001 0.328761 -0.56884
911.2890625 1.122443 0.809645 -0.312798
912.1015625 1.3139379999999998 0.983945 -0.329993
912.93359375 1.319025 1.027804 -0.291221
913.7890625 1.3257320000000001 0.864647 -0.461085
914.65625 1.077641 0.632905 -0.444736
915.5234375 0.80682 0.16732 -0.6395
916.3984375 1.21062 0.645159 -0.565461
917.25390625 1.398911 0.804117 -0.594794
918.07421875 1.115159 0.800461 -0.314698
918.88671875 1.247982 1.2336 -0.014382
919.734375 1.082396 0.867396 -0.215
920.609375 0.986365 0.453145 -0.53322
921.47265625 0.6395580000000001 0.149501 -0.490057
922.296875 0.98244 0.646961 -0.335479
923.1328125 1.318824 0.949043 -0.369781
923.9375 1.071459 0.598661 -0.472798
924.765625 1.073409 0.599121 -0.474288
925.58203125 1.024086 0.61 -0.414086
926.4609375 1.244036 0.869577 -0.374459
927.33203125 1.207521 0.755 -0.452521
928.1875 1.125125 0.680125 -0.445
929.046875 1.174847 0.714907 -0.45994
929.90625 1.213658 0.818781 -0.394877
930.765625 1.142763 0.613347 -0.529416
931.6015625 1.065117 0.675 -0.390117
932.4921875 1.273581 0.904301 -0.36928
933.40234375 1.1949429999999999 0.62 -0.574943
934.2734375 0.9030560000000001 0.243303 -0.659753
935.1484375 1.211204 0.735977 -0.475227
936.00390625 1.240997 0.805997 -0.435
936.87109375 1.2255449999999999 0.721117 -0.504428
937.72265625 0.8838 0.449855 -0.433945
938.63671875 1.249654 0.883711 -0.365943
939.54296875 1.393265 1.035749 -0.357516
940.40234375 1.1475659999999999 0.567619 -0.579947
941.2578125 1.233809 0.734239 -0.49957
942.11328125 1.2083119999999998 0.598312 -0.61
942.94921875 0.901761 -0.07 -0.971761
943.79296875 1.334481 1.096881 -0.2376
944.6875 1.393611 1.463611 0.07
945.578125 1.363747 1.103747 -0.26
946.42578125 0.981965 1.897054 0.915089
947.28515625 1.140249 1.297741 0.157492
948.10546875 0.794926 0.649986 -0.14494
948.921875 1.122861 0.103013 -1.019848
949.75 0.714788 -0.69 -1.404788
950.65625 1.248289 0.327821 -0.920468
951.5390625 1.308019 0.449651 -0.858368
952.375 1.324078 0.63 -0.694078
953.2265625 1.3087490000000002 0.589562 -0.719187
954.06640625 0.965341 -0.060819 -1.02616
954.875 0.960537 0.375 -0.585537
955.734375 1.218051 0.699516 -0.518535
956.62109375 1.385579 0.945579 -0.44
957.5078125 1.327181 0.992528 -0.334653
958.36328125 1.354103 1.034002 -0.320101
959.23828125 1.4050500000000001 0.995909 -0.409141
960.07421875 0.758482 0.370436 -0.388046
960.90625 1.4319579999999998 1.109832 -0.322126
961.7421875 1.387222 1.007222 -0.38
962.61328125 0.7449730000000001 0.19 -0.554973
963.46875 1.153711 0.832461 -0.32125
964.3125 1.372576 1.149348 -0.223228
965.15234375 1.259258 1.279258 0.02
965.9609375 1.4085539999999999 1.509799 0.101245
966.78125 1.284988 0.0263 -1.258688
967.6171875 1.125034 0.062222 -1.062812
968.48046875 1.1891500000000002 0.744963 -0.444187
969.31640625 1.177979 0.871595 -0.306384
970.140625 1.283951 0.723154 -0.560797
970.98046875 0.924947 0.289947 -0.635
971.79296875 1.0570080000000002 0.452176 -0.604832
972.609375 1.0411730000000001 0.505884 -0.535289
973.3984375 0.851469 0.292833 -0.558636
974.25 1.080662 0.465 -0.615662
975.109375 1.053006 0.423387 -0.629619
975.98046875 1.119839 0.379899 -0.73994
976.80859375 1.004823 0.199823 -0.805
977.6328125 1.061713 0.29705 -0.764663
978.453125 0.977501 0.423712 -0.553789
979.25 0.884714 0.605 -0.279714
980.14453125 1.1634419999999999 0.9699 -0.193542
981.046875 1.113219 0.889101 -0.224118
981.91796875 1.017569 0.712569 -0.305
982.75 0.955749 0.64 -0.315749
983.6015625 1.096465 0.885215 -0.21125
984.4453125 1.003581 0.733945 -0.269636
985.26953125 1.019971 0.669971 -0.35
986.15234375 1.095623 0.713553 -0.38207
987.046875 0.9772879999999999 0.44991 -0.527378
987.90625 0.9939180000000001 0.450987 -0.542931
988.76171875 1.049053 0.604415 -0.444638
989.6171875 1.001311 0.507561 -0.49375
990.453125 1.008824 0.45873 -0.550094
991.26953125 1.0248089999999999 0.474932 -0.549877
992.16796875 0.908606 0.37811 -0.530496
993.0703125 0.897491 0.399303 -0.498188
993.96484375 1.1386090000000002 0.556861 -0.581748
994.8125 1.060442 0.460227 -0.600215
995.66796875 0.951206 0.391369 -0.559837
996.49609375 1.063656 0.599302 -0.464354
997.31640625 1.009004 0.539297 -0.469707
998.19140625 0.99993 0.474951 -0.524979
999.05859375 1.0510190000000001 0.539764 -0.511255
999.91015625 0.821152 0.35717 -0.463982
1000.75390625 1.023296 0.628791 -0.394505
1001.58984375 0.8739859999999999 0.464421 -0.409565
1002.39453125 0.884726 0.46 -0.424726
1003.1796875 0.9120429999999999 0.448605 -0.463438
1004.04296875 0.896978 0.403223 -0.493755
1004.90625 0.923249 0.424293 -0.498956
1005.77734375 0.985633 0.552853 -0.43278
1006.61328125 0.956114 0.451635 -0.504479
1007.4609375 0.88 0.245 -0.635
1008.29296875 1.311884 0.596884 -0.715
1009.1171875 1.082106 0.415 -0.667106
1009.98046875 1.235568 0.755287 -0.480281
1010.859375 0.8557980000000001 0.547451 -0.308347
1011.734375 0.8829020000000001 0.392925 -0.489977
1012.578125 1.061537 0.368096 -0.693441
1013.42578125 1.084881 0.382404 -0.702477
1014.2578125 1.259121 0.55 -0.709121
1015.078125 1.273874 0.579916 -0.693958
1015.92578125 0.9158249999999999 0.382175 -0.53365
1016.81640625 1.3738190000000001 1.05909 -0.314729
1017.73046875 1.512388 1.109917 -0.402471
1018.578125 1.4437630000000001 1.018763 -0.425
1019.4296875 1.422916 0.984456 -0.43846
1020.265625 1.435408 0.911576 -0.523832
1021.1015625 1.410367 0.824854 -0.585513
1021.99609375 1.369877 0.785 -0.584877
1022.91015625 1.417141 0.80971 -0.607431
1023.8125 1.411484 0.841522 -0.569962
1024.6640625 1.3788969999999998 0.805573 -0.573324
1025.53515625 1.404437 0.789808 -0.614629
1026.40625 1.3566289999999999 0.769656 -0.586973
1027.2421875 1.325159 0.764258 -0.560901
1028.12890625 1.308592 0.74961 -0.558982
1029.0390625 1.316008 0.744889 -0.571119
1029.91796875 1.305339 0.710454 -0.594885
1030.7890625 1.446056 0.90476 -0.541296
1031.6484375 1.6214149999999998 1.231658 -0.389757
1032.48046875 1.4699710000000001 0.949971 -0.52
1033.3046875 1.371549 0.793844 -0.577705
1034.2109375 1.349863 0.739863 -0.61
1035.10546875 1.357031 0.834988 -0.522043
1035.9921875 1.4110800000000001 0.844068 -0.567012
1036.8515625 1.455443 0.875023 -0.58042
1037.71484375 1.463201 1.154339 -0.308862
1038.55859375 1.514038 0.996567 -0.517471
1039.38671875 1.253943 0.894732 -0.359211
1040.2890625 1.534491 1.099923 -0.434568
1041.19921875 1.485282 0.88883 -0.596452
1042.0703125 1.500316 0.960005 -0.540311
1042.95703125 1.4181460000000001 0.855267 -0.562879
1043.8203125 1.2719610000000001 0.711961 -0.56
1044.6640625 1.2890700000000002 0.684601 -0.604469
1045.47265625 1.232442 0.837325 -0.395117
1046.36328125 1.4870229999999998 1.017046 -0.469977
1047.25 1.3900000000000001 0.835 -0.555
1048.12109375 1.156236 0.521236 -0.635
1048.984375 1.198477 0.593199 -0.605278
1049.82421875 1.25663 0.643684 -0.612946
1050.65625 1.152935 0.596037 -0.556898
1051.5 1.144973 0.61 -0.534973
1052.39453125 1.185502 0.620275 -0.565227
1053.2890625 1.227937 0.68 -0.547937
1054.14453125 1.259763 0.714967 -0.544796
1055.03125 1.209817 0.687344 -0.522473
1055.8828125 1.21997 0.658724 -0.561246
1056.72265625 1.0847120000000001 0.624712 -0.46
1057.56640625 1.346555 0.786606 -0.559949
1058.46484375 1.3399999999999999 0.725 -0.615
1059.36328125 1.329854 0.726606 -0.603248
1060.25390625 1.276775 0.662041 -0.614734
1061.12109375 1.203865 0.694077 -0.509788
1061.96875 1.382563 0.87966 -0.502903
1062.81640625 1.444095 0.924125 -0.51997
1063.66796875 1.4165489999999998 0.946649 -0.4699
1064.57421875 1.418677 0.994138 -0.424539
1065.48046875 1.4487459999999999 0.914972 -0.533774
1066.33203125 1.405687 0.889926 -0.515761
1067.203125 1.307645 0.753324 -0.554321
1068.0546875 1.1948509999999999 0.654851 -0.54
1068.91796875 1.28235 0.721959 -0.560391
1069.78515625 1.3701189999999999 0.823629 -0.54649
1070.69140625 1.285811 0.725817 -0.559994
1071.609375 1.2679779999999998 0.703359 -0.564619
1072.45703125 1.308935 0.908804 -0.400131
1073.33984375 1.394529 0.970071 -0.424458
1074.21484375 1.296503 0.803624 -0.492879
1075.07421875 1.210831 0.749581 -0.46125
1075.953125 1.207119 0.662119 -0.545
1076.85546875 1.214763 0.934988 -0.279775
1077.7578125 1.36821 0.97821 -0.39
1078.6328125 1.2512219999999998 0.6748 -0.576422
1079.47265625 1.334056 0.95233 -0.381726
1080.31640625 1.447468 1.054753 -0.392715
1081.15234375 1.367567 0.902687 -0.46488
1082.046875 1.337174 0.773815 -0.563359
1082.9375 1.085588 0.710648 -0.37494
1083.8203125 1.231122 0.829441 -0.401681
1084.66015625 0.948307 0.6063 -0.342007
1085.5234375 1.317707 0.937707 -0.38
1086.36328125 1.395848 1.101369 -0.294479
1087.171875 1.216448 0.742974 -0.473474
1088.0546875 1.33987 0.96487 -0.375
1088.95703125 1.160463 0.69842 -0.462043
1089.85546875 1.1670669999999999 0.684963 -0.482104
1090.72265625 1.161247 0.683305 -0.477942
1091.58203125 1.145331 0.601825 -0.543506
1092.4140625 1.159497 0.584978 -0.574519
1093.2578125 1.177159 0.612891 -0.564268
1094.17578125 1.1339299999999999 0.569083 -0.564847
1095.078125 1.087461 0.499888 -0.587573
1095.97265625 1.108876 0.532902 -0.575974
1096.8515625 1.08842 0.51842 -0.57
1097.73046875 1.105775 0.504994 -0.600781
1098.60546875 1.0768 0.47 -0.6068
1099.46484375 1.06717 0.36717 -0.7
1100.36328125 1.106653 0.568284 -0.538369
1101.2578125 1.182917 0.567917 -0.615
1102.171875 1.239611 0.659905 -0.579706
1103.0703125 1.276308 0.776802 -0.499506
1103.93359375 1.398654 0.87 -0.528654
1104.796875 1.2648540000000001 0.64991 -0.614944
1105.65234375 1.1644830000000002 0.401301 -0.763182
1106.56640625 1.030037 0.234813 -0.795224
1107.45703125 1.001672 0.403812 -0.59786
1108.3125 1.216155 0.771364 -0.444791
1109.171875 1.134396 0.619396 -0.515
1110.0078125 1.19937 0.697316 -0.502054
1110.86328125 1.342718 1.078758 -0.26396
1111.73046875 1.299963 0.774963 -0.525
1112.63671875 1.163165 0.494714 -0.668451
1113.54296875 1.111396 0.445 -0.666396
1114.390625 1.068352 0.629915 -0.438437
1115.27734375 1.394644 0.807253 -0.587391
1116.16015625 1.253641 0.614212 -0.639429
1117.0234375 1.2473130000000001 0.557881 -0.689432
1117.90234375 1.254499 0.504861 -0.749638
1118.84765625 1.106621 0.353945 -0.752676
1119.76953125 1.0799729999999998 0.359973 -0.72
1120.64453125 1.020671 0.33966 -0.681011
1121.51953125 1.013919 0.359631 -0.654288
1122.36328125 1.1750850000000002 0.640085 -0.535
1123.21484375 1.401687 0.852471 -0.549216
1124.140625 1.4005969999999999 0.758317 -0.64228
1125.046875 1.228249 0.609034 -0.619215
1125.94921875 1.133727 0.465593 -0.668134
1126.8203125 1.082443 0.494437 -0.588006
1127.7109375 1.094932 0.459932 -0.635
1128.55078125 1.075428 0.599553 -0.475875
1129.37109375 1.253917 0.705 -0.548917
1130.2734375 1.235719 0.633933 -0.601786
1131.16796875 1.184603 0.61 -0.574603
1132.0625 1.1956380000000002 0.53619 -0.659448
1132.92578125 1.1115490000000001 0.503118 -0.608431
1133.79296875 1.190317 0.538668 -0.651649
1134.62890625 1.221053 0.511076 -0.709977
1135.48828125 1.256147 0.623414 -0.632733
1136.40234375 1.330699 0.833897 -0.496802
1137.31640625 1.363884 0.90488 -0.459004
1138.1875 1.276418 0.633947 -0.642471
1139.0859375 1.129887 0.449887 -0.68
1139.94921875 1.048959 0.279002 -0.769957
1140.8125 0.964475 0.208542 -0.755933
1141.671875 1.050321 0.323639 -0.726682
1142.5859375 1.140276 0.514883 -0.625393
1143.47265625 1.069832 0.509715 -0.560117
1144.35546875 1.187066 0.609927 -0.577139
1145.23828125 1.1051769999999999 0.525177 -0.58
1146.08203125 1.1284109999999998 0.5052 -0.623211
1146.91015625 1.090347 0.630824 -0.459523
1147.76953125 1.194789 0.889945 -0.304844
1148.6875 1.4957179999999999 1.180769 -0.314949
1149.60546875 1.483181 1.049994 -0.433187
1150.4609375 1.364866 0.794866 -0.57
1151.33984375 1.026599 0.32127 -0.705329
1152.19921875 1.01562 0.299419 -0.716201
1153.0546875 0.953134 0.288134 -0.665
1153.91015625 1.134444 0.765 -0.369444
1154.7890625 1.4553719999999999 1.069543 -0.385829
1155.68359375 1.504826 1.064826 -0.44
1156.52734375 1.546635 0.979355 -0.56728
1157.40234375 1.359471 0.799531 -0.55994
1158.26171875 1.38415 0.796837 -0.587313
1159.09375 1.076286 0.471012 -0.605274
1159.953125 1.3580649999999999 0.794913 -0.563152
1160.85546875 1.22997 0.54998 -0.67999
1161.76171875 0.9155909999999999 0.220591 -0.695
1162.61328125 1.149852 0.63 -0.519852
1163.4609375 1.354737 0.694737 -0.66
1164.30859375 1.050785 0.60953 -0.441255
1165.12890625 1.492619 1.277514 -0.215105
1166.03125 1.51051 1.000589 -0.509921
1166.96484375 1.481984 0.731984 -0.75
1167.88671875 1.272959 0.349072 -0.923887
1168.76171875 1.06653 -0.032047 -1.098577
1169.65625 0.91875 0.26375 -0.655
1170.5625 1.455618 0.727593 -0.728025
1171.4375 1.258931 0.492105 -0.766826
1172.36328125 1.14715 0.393004 -0.754146
1173.296875 1.1193520000000001 0.384149 -0.735203
1174.17578125 0.977709 0.334075 -0.643634
1175.0703125 1.429238 0.854851 -0.574387
1175.9296875 1.316724 0.662951 -0.653773
1176.7734375 1.348212 0.731545 -0.616667
1177.62109375 1.103203 0.203203 -0.9
1178.53515625 0.934121 0.175 -0.759121
1179.44140625 1.184948 0.579948 -0.605
1180.296875 1.521919 1.019326 -0.502593
1181.17578125 1.409564 0.879564 -0.53
1182.03515625 1.267708 0.683864 -0.583844
1182.890625 1.298063 0.815988 -0.482075
1183.7578125 1.354117 0.844792 -0.509325
1184.66796875 1.3571520000000001 0.777176 -0.579976
1185.59765625 1.44886 0.81971 -0.62915
1186.4765625 1.371674 0.811674 -0.56
1187.3828125 1.361926 0.722151 -0.639775
1188.25 1.255 0.685 -0.57
1189.09765625 1.5160930000000001 1.067139 -0.448954
1190.01953125 1.455384 0.7946 -0.660784
1190.9609375 1.135 0.67 -0.465
1191.890625 1.474823 0.963323 -0.5115
1192.796875 1.371222 0.75377 -0.617452
1193.69140625 1.389949 0.689949 -0.7
0.0 1.8199999999999998 -1.0 -2.82
1196.375 0.929638 -0.06 -0.989638
1197.30078125 1.111333 0.801333 -0.31
1198.19921875 1.206709 1.746348 0.539639
1199.11328125 1.462829 2.37322 0.910391
1200.00390625 1.201511 1.68908 0.487569
1200.88671875 1.340011 1.438004 0.097993
1201.76953125 1.180285 0.860285 -0.32
1202.69140625 1.139222 0.659445 -0.479777
1203.63671875 1.338145 0.903379 -0.434766
1204.515625 1.3239830000000001 0.749217 -0.574766
1205.39453125 1.340153 0.680281 -0.659872
1206.25390625 1.3155890000000001 0.465093 -0.850496
1207.1015625 1.147016 0.235402 -0.911614
1207.98828125 1.203535 0.585 -0.618535
1208.90625 1.5166939999999998 1.079519 -0.437175
1209.80859375 1.445506 0.899145 -0.546361
1210.6640625 1.40469 0.79969 -0.605
1211.546875 1.287197 0.499913 -0.787284
1212.40234375 1.2681149999999999 0.753115 -0.515
1213.2421875 1.401731 0.769588 -0.632143
1214.140625 1.385053 0.691253 -0.6938
1215.0546875 1.358521 0.554375 -0.804146
1215.96484375 0.9800000000000001 0.17 -0.81
1216.8359375 1.085058 0.328636 -0.756422
1217.6953125 0.941855 0.533971 -0.407884
1218.54296875 1.243204 0.636179 -0.607025
1219.375 1.3468689999999999 0.975 -0.371869
1220.2890625 1.334863 0.944863 -0.39
1221.19921875 1.084574 0.49 -0.594574
1222.07421875 1.180343 0.846367 -0.333976
1222.9296875 1.4772660000000002 1.081104 -0.396162
1223.80859375 1.302949 0.92373 -0.379219
1224.671875 1.235916 1.224118 -0.011798
1225.54296875 1.27549 1.208465 -0.067025
1226.453125 1.239285 0.824285 -0.415
1227.35546875 1.314515 0.534663 -0.779852
1228.2421875 1.4845329999999999 0.554808 -0.929725
1229.14453125 1.3248579999999999 0.384858 -0.94
1230.00390625 1.3844859999999999 0.256559 -1.127927
1230.84375 1.217654 0.328814 -0.88884
1231.6875 1.5033400000000001 0.760625 -0.742715
1232.60546875 1.687341 0.909905 -0.777436
1233.52734375 1.597649 0.862798 -0.734851
1234.41796875 1.372886 0.627886 -0.745
1235.31640625 1.144026 0.465839 -0.678187
1236.171875 1.094794 0.484794 -0.61
1237.04296875 1.088393 0.573393 -0.515
1237.9296875 1.288505 0.818832 -0.469673
1238.82421875 1.2308810000000001 0.712272 -0.518609
1239.71875 1.2047889999999999 0.71 -0.494789
1240.57421875 1.2016049999999998 0.69766 -0.503945
1241.43359375 1.328417 0.764542 -0.563875
1242.265625 1.1596760000000002 0.640117 -0.519559
1243.08203125 1.492274 1.123474 -0.3688
1243.9375 1.456748 1.065588 -0.39116
1244.8203125 1.3295059999999999 0.82 -0.509506
1245.734375 1.330973 0.809516 -0.521457
1246.58203125 1.301897 0.769368 -0.532529
1247.41796875 1.173806 0.674507 -0.499299
1248.25 0.89488 0.405 -0.48988
1249.07421875 1.0108510000000002 0.576652 -0.434199
1249.9140625 1.151042 0.276042 -0.875
1250.80078125 1.271525 0.051525 -1.22
1251.671875 1.22482 0.244909 -0.979911
1252.49609375 1.15939 0.449513 -0.709877
1253.34375 1.103886 0.564205 -0.539681
1254.1796875 1.194958 0.827481 -0.367477
1255.00390625 1.341856 0.998118 -0.343738
1255.84765625 1.383597 1.158363 -0.225234
1256.734375 1.2746050000000002 1.127212 -0.147393
1257.6171875 1.398313 1.199805 -0.198508
1258.49609375 1.4179309999999998 1.158162 -0.259769
1259.38671875 1.360913 1.027493 -0.33342
1260.23828125 1.212264 0.672409 -0.539855
1261.06640625 0.945848 0.370848 -0.575
1261.953125 1.1581739999999998 0.803958 -0.354216
1262.87890625 1.067104 0.807104 -0.26
1263.76171875 1.121232 0.8618 -0.259432
1264.609375 1.368166 1.043317 -0.324849
1265.484375 1.24752 0.711299 -0.536221
1266.31640625 1.217263 0.662296 -0.554967
1267.1484375 1.2083409999999999 0.553341 -0.655
1268.015625 1.2525680000000001 0.926068 -0.3265
1268.90625 1.392343 0.972852 -0.419491
1269.79296875 1.3708580000000001 0.838833 -0.532025
1270.65234375 1.109013 0.379338 -0.729675
1271.5078125 1.114485 0.509485 -0.605
1272.33984375 1.102895 0.400035 -0.70286
1273.140625 0.8756090000000001 0.318374 -0.557235
1274.01171875 1.2449270000000001 0.815138 -0.429789
1274.88671875 1.3636590000000002 0.886318 -0.477341
1275.765625 1.139215 0.584343 -0.554872
1276.58984375 0.8637919999999999 0.180834 -0.682958
1277.40625 1.0924070000000001 0.6875 -0.404907
1278.203125 1.12 0.65 -0.47
1279.01953125 1.119475 0.549861 -0.569614
1279.8515625 0.878313 0.373348 -0.504965
1280.72265625 0.863914 0.443914 -0.42
1281.58203125 0.873501 0.503501 -0.37
1282.40234375 0.848496 0.318496 -0.53
1283.23046875 1.249994 1.159994 -0.09
1284.0546875 1.300906 1.058158 -0.242748
1284.8828125 1.208355 0.823456 -0.384899
1285.6953125 1.008084 0.438398 -0.569686
1286.5625 0.7243809999999999 -0.076354 -0.800735
1287.4296875 0.871845 0.097172 -0.774673
1288.2734375 0.721191 -0.080059 -0.80125
1289.11328125 0.906646 0.241837 -0.664809
1289.8984375 1.05406 0.39918 -0.65488
1290.6875 0.940408 0.280385 -0.660023
1291.46484375 1.128939 0.599993 -0.528946
1292.3203125 1.141998 0.545317 -0.596681
1293.18359375 1.195483 0.569154 -0.626329
1294.01953125 1.321926 0.739982 -0.581944
1294.83984375 1.366765 0.786006 -0.580759
1295.67578125 1.1464340000000002 0.501434 -0.645
1296.515625 1.331027 1.086309 -0.244718
1297.3203125 1.326937 1.097531 -0.229406
1298.1875 1.068947 0.528947 -0.54
1299.0625 0.9696720000000001 0.301518 -0.668154
1299.9453125 1.197436 0.464819 -0.732617
1300.79296875 1.196748 0.493424 -0.703324
1301.63671875 1.1429369999999999 0.423829 -0.719108
1302.453125 0.991301 0.301534 -0.689767
1303.2421875 1.172631 0.659588 -0.513043
1304.109375 1.288526 0.718689 -0.569837
1305.00390625 1.271957 0.731375 -0.540582
1305.87109375 1.157013 0.727136 -0.429877
1306.6875 1.0607 0.6207 -0.44
1307.53125 0.9322889999999999 0.407422 -0.524867
1308.34375 1.02966 0.52466 -0.505
1309.14453125 1.038683 0.774866 -0.263817
1310.0078125 1.301205 1.073123 -0.228082
1310.87109375 1.288322 0.993445 -0.294877
1311.73046875 1.06915 0.714921 -0.354229
1312.5625 1.127422 0.645134 -0.482288
1313.41015625 1.3794 0.859986 -0.519414
1314.22265625 1.1800739999999998 0.537902 -0.642172
1315.02734375 0.9571780000000001 0.357663 -0.599515
1315.859375 1.045579 0.8979 -0.147679
1316.7265625 1.046988 0.852024 -0.194964
1317.58984375 1.08876 0.682383 -0.406377
1318.41796875 1.020355 0.556881 -0.463474
1319.23828125 1.0350009999999998 0.435392 -0.599609
1320.02734375 0.732692 0.278044 -0.454648
1320.828125 1.1220700000000001 0.89207 -0.23
1321.64453125 1.235271 0.925271 -0.31
1322.49609375 1.193229 0.768285 -0.424944
1323.33984375 1.172192 0.642934 -0.529258
1324.16796875 1.116497 0.427463 -0.689034
1324.99609375 1.111645 0.464738 -0.646907
1325.81640625 1.018669 0.407186 -0.611483
1326.62890625 1.140806 0.574035 -0.566771
1327.41796875 1.1893319999999998 0.549774 -0.639558
1328.26953125 1.150397 0.645525 -0.504872
1329.140625 1.129587 0.640111 -0.489476
1330.01171875 0.9635149999999999 0.543515 -0.42
1330.83984375 1.166065 1.005 -0.161065
1331.6875 1.2122249999999999 0.975 -0.237225
1332.51171875 1.242175 0.807887 -0.434288
1333.33984375 1.205 0.65 -0.555
1334.2421875 1.021264 0.357592 -0.663672
1335.13671875 0.987499 0.624719 -0.36278
1336.00390625 1.172994 0.801065 -0.371929
1336.8515625 1.211475 0.732288 -0.479187
1337.70703125 1.18014 0.69514 -0.485
1338.5546875 0.974226 0.459226 -0.515
1339.375 0.906296 0.255 -0.651296
1340.23046875 0.988306 0.609947 -0.378359
1341.109375 1.032336 0.611035 -0.421301
1341.96875 1.125728 0.674276 -0.451452
1342.8046875 1.219957 0.69864 -0.521317
1343.64453125 0.89664 0.449973 -0.446667
1344.4609375 1.055343 0.71995 -0.335393
1345.26171875 1.068053 0.600273 -0.46778
1346.14453125 0.994912 0.394912 -0.6
1347.04296875 1.04993 0.570022 -0.479908
1347.93359375 1.012872 0.499663 -0.513209
1348.76171875 0.968449 0.464105 -0.504344
1349.609375 0.852453 0.218307 -0.634146
1350.4140625 0.960709 0.474674 -0.486035
1351.2265625 0.989957 0.455 -0.534957
1352.109375 0.945587 0.363262 -0.582325
1352.984375 0.98596 0.429915 -0.556045
1353.83984375 1.075085 0.62206 -0.453025
1354.67578125 1.068456 0.669815 -0.398641
1355.52734375 0.934701 0.554701 -0.38
1356.3515625 1.027202 0.629971 -0.397231
1357.15234375 1.0799189999999999 0.576348 -0.503571
1358.015625 0.755019 0.485675 -0.269344
1358.8828125 0.8661650000000001 0.601604 -0.264561
1359.7578125 0.7388809999999999 0.168881 -0.57
1360.578125 0.7291340000000001 -0.583924 -1.313058
1361.37890625 0.7685500000000001 -0.162966 -0.931516
1362.16015625 0.957415 0.148964 -0.808451
1362.3984375 0.492548 -0.112452 -0.605
1362.953125 0.566673 -0.170635 -0.737308
1363.18359375 0.8590169999999999 0.134496 -0.724521
1363.74609375 0.7795329999999999 0.764585 -0.014948
1364.0 0.37498400000000004 0.675 0.300016
1364.57421875 0.7613869999999999 0.746929 -0.014458
1364.828125 0.385 0.555 0.17
1365.37890625 0.7694570000000001 0.373445 -0.396012
1365.6328125 0.44287899999999997 0.18 -0.262879
1366.1640625 0.874124 0.104567 -0.769557
1366.3984375 0.419857 0.06 -0.359857
1366.9609375 0.725611 -0.074431 -0.800042
1367.1796875 0.467157 -0.04722 -0.514377
1367.74609375 0.6110500000000001 -0.346852 -0.957902
1367.98046875 0.524393 -0.145022 -0.669415
1368.515625 0.6235890000000001 -0.348691 -0.97228
1368.76171875 0.43902100000000005 -0.065 -0.504021
1369.265625 0.7078789999999999 -0.109191 -0.81707
1369.51171875 0.459387 -0.045613 -0.505
1370.078125 0.6929430000000001 -0.15009 -0.843033
1370.328125 0.420072 -0.039147 -0.459219
1370.88671875 0.623181 -0.146819 -0.77
1371.1328125 0.44461900000000004 0.02 -0.424619
1371.71484375 0.8156079999999999 0.169421 -0.646187
1371.96875 0.386719 0.101719 -0.285
1372.49609375 0.893639 0.303794 -0.589845
1373.30859375 0.809254 0.154254 -0.655
1373.546875 0.73 0.075 -0.655
1374.08203125 1.1574 0.717887 -0.439513
1374.3203125 0.50911 0.204344 -0.304766
1374.875 1.102691 0.63 -0.472691
1375.66796875 1.229622 0.749622 -0.48
1376.53515625 0.95515 0.41515 -0.54
1377.4140625 1.0398589999999999 0.449859 -0.59
1378.203125 0.663563 -0.100581 -0.764144
1378.4140625 0.730315 -0.033829 -0.764144
1379.0703125 0.795034 0.143132 -0.651902
1379.3125 0.44125000000000003 0.121875 -0.319375
1379.88671875 0.601618 0.022129 -0.579489
1380.1328125 0.562449 0.305 -0.257449
1380.6875 0.7689239999999999 0.225227 -0.543697
1380.9296875 0.46376 0.144416 -0.319344
1381.4609375 0.6375649999999999 0.049805 -0.58776
1381.71484375 0.46330099999999996 0.218301 -0.245
1382.26953125 0.7944089999999999 0.444409 -0.35
1382.53515625 0.48647399999999996 0.357353 -0.129121
1383.08984375 0.881481 0.4502 -0.431281
1383.3515625 0.425933 0.275933 -0.15
1383.90625 0.6951620000000001 0.303309 -0.391853
1384.1328125 0.48586 0.313506 -0.172354
1384.6796875 0.808032 0.318032 -0.49
1384.91796875 0.47 0.185 -0.285
1385.46484375 0.752712 0.137712 -0.615
1385.69140625 0.5553 0.224832 -0.330468
1386.21484375 0.785102 0.04531 -0.739792
1386.61328125 0.252667 -0.242333 -0.495
1386.9765625 0.7759100000000001 0.022885 -0.753025
1387.2109375 0.524769 0.124769 -0.4
1387.75 0.837564 -0.04 -0.877564
1388.08203125 0.10064499999999998 -0.357864 -0.458509
1388.57421875 0.69742 -0.147269 -0.844689
1389.37109375 1.0251649999999999 0.470263 -0.554902
1390.16796875 0.9888049999999999 0.503223 -0.485582
1390.94140625 1.0041259999999999 0.549739 -0.454387
1391.72265625 0.748814 0.213016 -0.535798
1392.484375 0.776902 0.247942 -0.52896
1393.24609375 0.9817370000000001 0.246789 -0.734948
1394.0703125 1.12515 0.48907 -0.63608
1394.8828125 1.0591 0.377492 -0.681608
1395.68359375 0.9707029999999999 0.424266 -0.546437
1396.44921875 1.164777 0.685 -0.479777
1397.25390625 1.05318 0.519099 -0.534081
1398.02734375 1.043739 0.578856 -0.464883
1398.79296875 1.0834510000000002 0.511942 -0.571509
1399.53515625 1.0144 0.549986 -0.464414
1400.35546875 1.1652689999999999 0.735283 -0.429986
1401.16015625 1.183508 0.883508 -0.3
1401.98046875 1.246378 0.784994 -0.461384
1402.76953125 1.226758 0.714972 -0.511786
1403.55078125 1.277892 0.820571 -0.457321
1404.31640625 1.1301139999999998 0.499008 -0.631106
1405.08203125 1.04525 0.396173 -0.649077
1405.8984375 1.276336 0.623311 -0.653025
1406.72265625 1.191404 0.523654 -0.66775
1407.546875 1.209919 0.6 -0.609919
1408.31640625 1.143144 0.423994 -0.71915
1409.125 0.935 0.3 -0.635
1409.89453125 1.124981 0.574981 -0.55
1410.66796875 1.170901 0.589827 -0.581074
1411.42578125 1.0352540000000001 0.432555 -0.602699
1412.2265625 0.939784 0.324784 -0.615
1413.03125 1.158838 0.519297 -0.639541
1413.84765625 1.1597119999999999 0.464712 -0.695
1414.6328125 1.146533 0.463231 -0.683302
1415.4140625 1.0510419999999998 0.361042 -0.69
1416.171875 0.949328 0.384559 -0.564769
1416.93359375 1.1271900000000001 0.645842 -0.481348
1417.71484375 1.2257259999999999 0.687025 -0.538701
1418.55078125 1.265 0.69 -0.575
1419.3828125 1.209805 0.619805 -0.59
1420.19140625 1.174687 0.6 -0.574687
1420.99609375 1.044036 0.444093 -0.599943
1421.77734375 1.013213 0.533765 -0.479448
1422.5703125 1.210122 0.822167 -0.387955
1423.33984375 1.1836609999999999 0.704626 -0.479035
1424.171875 1.064234 0.43491 -0.629324
1424.984375 0.8517220000000001 0.313262 -0.53846
1425.8203125 1.1084429999999998 0.5388 -0.569643
1426.60546875 1.085696 0.524962 -0.560734
1427.421875 1.062041 0.582161 -0.47988
1428.21875 1.117689 0.754073 -0.363616
1429.00390625 1.31311 0.84 -0.47311
1429.80078125 1.205128 0.623116 -0.582012
1430.65625 1.128409 0.480878 -0.647531
1431.51171875 0.9413750000000001 0.376998 -0.564377
1432.32421875 1.22 0.795 -0.425
1433.1328125 1.31807 0.79307 -0.525
1433.94921875 1.3235670000000002 0.74155 -0.582017
1434.75 1.1749049999999999 0.58 -0.594905
1435.55859375 1.088798 0.52916 -0.559638
1436.4453125 1.168088 0.678514 -0.489574
1437.3046875 1.4294229999999999 0.944742 -0.484681
1438.14453125 1.459849 0.989912 -0.469937
1438.98828125 1.4343279999999998 0.954687 -0.479641
1439.8203125 1.236119 0.791119 -0.445
1440.62890625 1.043369 0.543369 -0.5
1441.41796875 0.996091 0.521179 -0.474912
1442.26953125 1.105215 0.569988 -0.535227
1443.11328125 1.335576 0.836947 -0.498629
1443.9765625 1.383933 0.963991 -0.419942
1444.8203125 1.501091 1.068199 -0.432892
1445.640625 1.502519 1.002974 -0.499545
1446.44140625 1.34 0.89 -0.45
1447.22265625 1.2509130000000002 0.685938 -0.564975
1448.08203125 1.105 0.58 -0.525
1448.91796875 1.087998 0.548297 -0.539701
1449.7265625 0.900448 0.465534 -0.434914
1450.5078125 1.03965 0.641786 -0.397864
1451.31640625 1.0007869999999999 0.575842 -0.424945
1452.09375 1.09747 0.638393 -0.459077
1452.87890625 1.0409329999999999 0.625 -0.415933
1453.6484375 0.9860019999999999 0.458016 -0.527986
1454.46875 1.052149 0.639656 -0.412493
1455.2890625 1.347286 0.944817 -0.402469
1456.125 1.039977 0.65 -0.389977
1456.94140625 0.940806 0.390834 -0.549972
1457.75390625 1.2002389999999998 0.505239 -0.695
1458.54296875 1.017319 0.291227 -0.726092
1459.32421875 0.9372739999999999 0.292274 -0.645
1460.15234375 1.072603 0.512603 -0.56
1461.0078125 1.166115 0.637763 -0.528352
1461.8671875 1.12935 0.52229 -0.60706
1462.671875 0.888461 0.409149 -0.479312
1463.47265625 1.243179 0.712945 -0.530234
1464.30078125 1.338641 0.744047 -0.594594
1465.12109375 0.974249 0.492041 -0.482208
1465.95703125 1.215171 0.745171 -0.47
1466.83984375 1.144355 0.546322 -0.598033
1467.72265625 1.232936 0.628765 -0.604171
1468.55859375 1.2638989999999999 0.67409 -0.589809
1469.421875 1.173604 0.543928 -0.629676
1470.2578125 1.057897 0.450936 -0.606961
1471.07421875 0.9664139999999999 0.409471 -0.556943
1471.890625 0.880111 0.445111 -0.435
1472.7734375 1.282201 0.842441 -0.43976
1473.66015625 1.2703820000000001 0.725382 -0.545
1474.4921875 1.156727 0.568133 -0.588594
1475.30859375 1.275084 0.932316 -0.342768
1476.125 1.329945 0.84 -0.489945
1476.94140625 1.284252 0.734319 -0.549933
1477.7890625 1.189637 0.629742 -0.559895
1478.671875 1.208806 0.703995 -0.504811
1479.546875 1.036076 0.501076 -0.535
1480.375 0.842336 0.485 -0.357336
1481.234375 1.283822 0.849343 -0.434479
1482.0703125 1.2431800000000002 0.763793 -0.479387
1482.890625 1.324535 0.74 -0.584535
1483.703125 1.339812 0.729812 -0.61
1484.578125 1.202798 0.552798 -0.65
1485.4296875 0.827951 0.368844 -0.459107
1486.265625 1.362836 0.902451 -0.460385
1487.125 1.184974 0.75 -0.434974
1487.9453125 1.237128 0.827128 -0.41
1488.74609375 1.118094 0.693094 -0.425
1489.546875 1.129089 0.699519 -0.42957
1490.390625 0.953286 0.623343 -0.329943
1491.23828125 1.2105890000000001 0.701401 -0.509188
1492.08203125 1.135281 0.646204 -0.489077
1492.90234375 1.084338 0.537636 -0.546702
1493.703125 1.061758 0.706104 -0.355654
1494.5234375 1.418291 1.053341 -0.36495
1495.34765625 1.438496 0.913496 -0.525
1496.22265625 1.391988 0.814104 -0.577884
1497.10546875 1.393879 0.829956 -0.563923
1497.99609375 1.2663419999999999 0.708791 -0.557551
1498.859375 1.288093 0.740486 -0.547607
1499.71875 1.278248 0.758828 -0.51942
1500.55078125 1.2268569999999999 0.724306 -0.502551
1501.3828125 1.0550000000000002 0.535 -0.52
1502.25390625 1.0860759999999998 0.606076 -0.48
1503.15625 1.112312 0.747821 -0.364491
1504.046875 1.373922 1.008922 -0.365
1504.8984375 1.356191 0.901191 -0.455
1505.74609375 1.2894 0.689649 -0.599751
1506.609375 1.241198 0.652934 -0.588264
1507.44140625 1.249367 0.664681 -0.584686
1508.3359375 1.2524160000000002 0.664502 -0.587914
1509.23046875 1.168778 0.624515 -0.544263
1510.11328125 1.1360160000000001 0.789734 -0.346282
1510.9609375 1.12982 0.71482 -0.415
1511.81640625 1.194538 0.634545 -0.559993
1512.63671875 0.983004 0.513004 -0.47
1513.44921875 1.247991 0.911601 -0.33639
1514.328125 1.343188 0.95235 -0.390838
1515.23046875 1.209987 0.779987 -0.43
1516.1015625 1.203672 0.759473 -0.444199
1516.94921875 1.177849 0.752849 -0.425
1517.7890625 1.131986 0.606404 -0.525582
1518.59375 0.9392050000000001 0.515831 -0.423374
1519.40234375 1.2340119999999999 0.839329 -0.394683
1520.296875 1.231595 0.749118 -0.482477
1521.1796875 1.203554 0.673945 -0.529609
1522.05078125 1.35367 0.871606 -0.482064
1522.87890625 1.168968 0.568968 -0.6
1523.734375 1.053264 0.454343 -0.598921
1524.5546875 1.132825 0.574052 -0.558773
1525.3671875 1.161635 0.652144 -0.509491
1526.23828125 1.19896 0.655 -0.54396
1527.12890625 1.1469369999999999 0.636937 -0.51
1527.97265625 1.069844 0.735 -0.334844
1528.8046875 1.2612970000000001 0.931297 -0.33
1529.65625 1.285079 0.817556 -0.467523
1530.4765625 1.010241 0.575265 -0.434976
1531.28515625 1.238843 0.77406 -0.464783
1532.1953125 1.211176 0.734428 -0.476748
1533.08984375 1.2663570000000002 0.730292 -0.536065
1533.97265625 1.3258809999999999 0.806371 -0.51951
1534.8203125 1.275662 0.682211 -0.593451
1535.69140625 1.1388349999999998 0.519295 -0.61954
1536.51953125 1.176496 0.694621 -0.481875
1537.3125 0.964972 0.635125 -0.329847
1538.1796875 1.08663 0.737523 -0.349107
1539.05078125 1.296856 0.863215 -0.433641
1539.9140625 1.256186 0.841367 -0.414819
1540.765625 1.248873 0.825436 -0.423437
1541.60546875 1.124973 0.479987 -0.644986
1542.390625 0.793609 0.284234 -0.509375
1543.1796875 1.051607 0.993874 -0.057733
1544.0234375 0.9958629999999999 0.645977 -0.349886
1544.875 0.889895 0.14 -0.749895
1545.71875 0.853701 0.071855 -0.781846
1546.52734375 0.904372 0.204687 -0.699685
1547.34375 0.829448 0.119656 -0.709792
1548.13671875 0.8363229999999999 0.179148 -0.657175
1548.94921875 0.834315 0.242812 -0.591503
1549.76171875 0.90473 0.34473 -0.56
1550.60546875 0.758453 0.334679 -0.423774
1551.45703125 1.15 0.855 -0.295
1552.296875 1.06124 0.727089 -0.334151
1553.14453125 1.037463 0.624963 -0.4125
1553.98046875 1.064951 0.629951 -0.435
1554.80078125 0.98746 0.522613 -0.464847
1555.62109375 1.169222 0.799396 -0.369826
1556.5 1.24 0.91 -0.33
1557.3828125 1.17397 0.56897 -0.605
1558.2265625 1.115408 0.43527 -0.680138
1559.0703125 1.019552 0.306141 -0.713411
1559.89453125 0.953767 0.214429 -0.739338
1560.6953125 1.070434 0.555798 -0.514636
1561.484375 0.970291 0.361518 -0.608773
1562.3671875 1.016467 0.442144 -0.574323
1563.2265625 1.074618 0.626483 -0.448135
1564.07421875 1.033312 0.5 -0.533312
1564.8828125 1.086153 0.769572 -0.316581
1565.72265625 1.0884 0.753283 -0.335117
1566.53515625 1.052214 0.517439 -0.534775
1567.33984375 1.16069 0.752589 -0.408101
1568.19140625 1.111785 0.634949 -0.476836
1569.0703125 1.059145 0.554502 -0.504643
1569.93359375 1.017755 0.465 -0.552755
1570.76171875 0.903486 0.353486 -0.55
1571.58203125 0.990123 0.495123 -0.495
1572.375 1.0899999999999999 0.74 -0.35
1573.15234375 1.33845 0.863797 -0.474653
1574.0078125 1.274203 0.724079 -0.550124
1574.8671875 1.110987 0.769591 -0.341396
1575.7265625 1.2432919999999998 0.883292 -0.36
1576.5390625 1.256074 0.986074 -0.27
1577.375 1.144914 0.93 -0.214914
1578.1796875 0.9679690000000001 0.785 -0.182969
1579.00390625 1.038816 0.648906 -0.38991
1579.8203125 1.022974 0.637413 -0.385561
1580.68359375 1.068926 0.553926 -0.515
1581.54296875 0.9179790000000001 0.388033 -0.529946
1582.3828125 1.132277 0.577832 -0.554445
1583.234375 0.837325 0.355 -0.482325
1584.05859375 1.0152619999999999 0.505834 -0.509428
1584.8671875 1.0684909999999999 0.654585 -0.413906
1585.6875 1.01484 0.574853 -0.439987
1586.5546875 0.89013 0.461578 -0.428552
1587.42578125 1.038049 0.613049 -0.425
1588.26171875 1.197592 0.812592 -0.385
1589.1171875 1.027817 0.564442 -0.463375
1589.953125 1.05336 0.723607 -0.329753
1590.7890625 1.045987 0.624921 -0.421066
1591.60546875 1.009945 0.569945 -0.44
1592.47265625 1.110316 0.708516 -0.4018
1593.328125 1.024638 0.524909 -0.499729
1594.17578125 1.035569 0.428565 -0.607004
1594.984375 0.893079 0.438398 -0.454681
1595.8046875 1.211517 0.782523 -0.428994
1596.62109375 1.130241 0.715241 -0.415
1597.4140625 1.199763 0.624763 -0.575
1598.27734375 1.123615 0.518732 -0.604883
1599.16796875 1.148779 0.488833 -0.659946
1600.02734375 1.194803 0.635 -0.559803
1600.84765625 0.982074 0.424393 -0.557681
1601.6796875 1.2122760000000001 0.70245 -0.509826
1602.50390625 1.2672240000000001 0.727441 -0.539783
1603.3046875 1.2355 0.685211 -0.550289
1604.1796875 1.152186 0.607514 -0.544672
1605.05078125 1.270469 0.692296 -0.578173
1605.91796875 1.2881230000000001 0.67318 -0.614943
1606.74609375 1.241643 0.593107 -0.648536
1607.6015625 1.257653 0.557694 -0.699959
1608.42578125 1.206178 0.496071 -0.710107
1609.22265625 1.0883180000000001 0.513474 -0.574844
1610.08203125 1.2757489999999998 0.700749 -0.575
1610.96484375 1.277833 0.68514 -0.592693
1611.8515625 1.29749 0.737496 -0.559994
1612.69140625 1.2370860000000001 0.719195 -0.517891
1613.5390625 1.216035 0.695 -0.521035
1614.3671875 1.182902 0.613332 -0.56957
1615.17578125 1.2155269999999998 0.651774 -0.563753
1616.046875 1.025 0.49 -0.535
1616.921875 0.924515 0.41472 -0.509795
1617.78125 0.907055 0.417879 -0.489176
1618.59765625 0.956561 0.433143 -0.523418
1619.44140625 1.07432 0.509389 -0.564931
1620.2578125 1.2035230000000001 0.514567 -0.688956
1621.0625 1.1604619999999999 0.762188 -0.398274
1621.89453125 1.149829 0.614981 -0.534848
1622.7578125 0.850152 0.309572 -0.54058
1623.6171875 1.019834 0.580697 -0.439137
1624.46484375 1.075814 0.647729 -0.428085
1625.3046875 0.9226840000000001 0.22947 -0.693214
1626.08984375 0.749387 0.2052 -0.544187
1626.90234375 1.0754670000000002 0.386375 -0.689092
1627.1171875 0.844946 0.155854 -0.689092
1627.6875 1.017122 0.502237 -0.514885
1627.94921875 0.45592599999999994 0.13279 -0.323136
1628.515625 0.963625 0.525 -0.438625
1628.78515625 0.447322 0.243474 -0.203848
1629.359375 0.992884 0.512884 -0.48
1630.19140625 0.940229 0.368881 -0.571348
1631.01171875 0.814698 0.16 -0.654698
1631.25390625 0.40411600000000003 0.019585 -0.384531
1631.7890625 0.924569 0.454569 -0.47
1632.578125 0.994419 0.464419 -0.53
1633.359375 0.839332 0.288262 -0.55107
1634.19140625 0.7599779999999999 0.225 -0.534978
1635.015625 0.670637 0.020785 -0.649852
1635.83984375 0.688632 0.1652 -0.523432
1636.08984375 0.5115419999999999 0.239151 -0.272391
1636.62109375 0.851833 0.342136 -0.509697
1636.87109375 0.4996 0.234676 -0.264924
1637.41796875 0.9532130000000001 0.458297 -0.494916
1637.66796875 0.475152 0.163148 -0.312004
1638.19921875 0.9176949999999999 0.287695 -0.63
1638.453125 0.67459 0.04459 -0.63
1638.9609375 0.9710639999999999 0.561064 -0.41
1639.1875 0.5575 0.1475 -0.41
1639.73046875 0.9984310000000001 0.469957 -0.528474
1640.55078125 1.121363 0.508054 -0.613309
1641.3828125 0.86326 0.19826 -0.665
1642.203125 0.77921 0.108849 -0.670361
1643.0078125 0.641667 -0.20732 -0.848987
1643.25 0.4 0.1 -0.3
1643.796875 0.904345 0.544396 -0.359949
1644.03515625 0.505401 0.281366 -0.224035
1644.58203125 1.227653 0.727653 -0.5
1644.8359375 0.48398699999999995 0.169849 -0.314138
1645.3515625 0.746525 0.133966 -0.612559
1646.18359375 1.069939 0.62469 -0.445249
1647.03125 1.1605910000000002 0.662143 -0.498448
1647.8671875 1.1522679999999998 0.732737 -0.419531
1648.65625 0.907539 0.440259 -0.46728
1649.46484375 0.7802180000000001 0.289457 -0.490761
1650.265625 0.872441 0.429653 -0.442788
1651.04296875 0.921107 0.391107 -0.53
1651.8359375 0.984701 0.424701 -0.56
1652.67578125 0.965835 0.352404 -0.613431
1653.51953125 0.889645 0.359367 -0.530278
1654.3125 0.786985 0.342014 -0.444971
1655.13671875 1.107931 0.598486 -0.509445
1655.94140625 1.0992790000000001 0.529336 -0.569943
1656.7421875 0.930752 0.311158 -0.619594
1657.5234375 1.245183 0.912393 -0.33279
1658.3984375 1.1504889999999999 0.58641 -0.564079
1659.2734375 1.288888 0.893379 -0.395509
1660.1328125 1.297987 0.723133 -0.574854
1660.9609375 1.0498729999999998 0.574873 -0.475
1661.7890625 1.0393530000000002 0.41971 -0.619643
1662.59765625 1.069425 0.63449 -0.434935
1663.40625 1.3105989999999998 0.977281 -0.333318
1664.2890625 1.22471 0.70471 -0.52
1665.17578125 1.176403 0.667296 -0.509107
1666.04296875 1.024738 0.388442 -0.636296
1666.88671875 0.930884 0.502953 -0.427931
1667.71484375 1.263784 0.854421 -0.409363
1668.5390625 1.205 0.635 -0.57
1669.33984375 0.9918560000000001 0.199695 -0.792161
1670.19921875 0.9036740000000001 0.374523 -0.529151
1671.06640625 1.328848 0.939476 -0.389372
1671.9453125 1.231591 0.828184 -0.403407
1672.7734375 1.239284 0.648971 -0.590313
1673.6015625 0.94254 0.157595 -0.784945
1674.3984375 1.085612 0.630789 -0.454823
1675.2109375 1.274413 0.779621 -0.494792
1676.0859375 1.3213219999999999 0.789509 -0.531813
1676.9609375 1.229916 0.594916 -0.635
1677.83984375 1.083777 0.418777 -0.665
1678.671875 0.894096 0.318343 -0.575753
1679.515625 1.148043 0.496696 -0.651347
1680.34375 0.9386289999999999 0.278375 -0.660254
1681.14453125 1.159049 0.434621 -0.724428
1681.9921875 1.172564 0.47897 -0.693594
1682.85546875 1.20234 0.559972 -0.642368
1683.74609375 1.12289 0.513127 -0.609763
1684.578125 1.121035 0.501035 -0.62
1685.4140625 1.020827 0.351042 -0.669785
1686.23046875 0.8349840000000001 0.329994 -0.50499
1687.05078125 1.181869 0.621869 -0.56
1687.91015625 1.17115 0.527285 -0.643865
1688.8203125 1.060266 0.395266 -0.665
1689.6875 1.355702 0.880714 -0.474988
1690.51953125 1.311995 0.74488 -0.567115
1691.38671875 1.3364660000000002 0.701956 -0.63451
1692.23828125 1.171666 0.411822 -0.759844
1693.05859375 0.983355 0.374617 -0.608738
1693.890625 1.17476 0.600264 -0.574496
1694.78125 1.179971 0.635589 -0.544382
1695.6640625 1.150458 0.595514 -0.554944
1696.51953125 1.073495 0.454995 -0.6185
1697.3671875 1.089434 0.597528 -0.491906
1698.17578125 1.336235 0.923512 -0.412723
1698.99609375 1.278638 0.873638 -0.405
1699.8515625 1.267218 0.822218 -0.445
1700.74609375 1.220907 0.755954 -0.464953
1701.63671875 1.149638 0.606606 -0.543032
1702.46875 1.3340180000000001 1.072237 -0.261781
1703.31640625 1.263445 0.879295 -0.38415
1704.12890625 0.9612620000000001 0.483996 -0.477266
1704.95703125 1.1704659999999998 0.609628 -0.560838
1705.79296875 1.1275840000000001 0.513812 -0.613772
1706.65625 1.253348 0.635922 -0.617426
1707.50390625 1.075751 0.559152 -0.516599
1708.33203125 1.145963 0.722683 -0.42328
1709.1796875 1.287544 0.862544 -0.425
1710.0078125 1.3453 0.893339 -0.451961
1710.8203125 1.308951 0.752008 -0.556943
1711.63671875 1.329428 0.744428 -0.585
1712.5234375 1.294219 0.732817 -0.561402
1713.4140625 1.148108 0.474837 -0.673271
1714.2578125 1.0025279999999999 0.422528 -0.58
1715.1171875 1.338593 0.861063 -0.47753
1715.94140625 1.148452 0.589823 -0.558629
1716.77734375 1.392001 0.939575 -0.452426
1717.59765625 1.378704 0.878725 -0.499979
1718.47265625 1.409016 0.764866 -0.64415
1719.3359375 1.138625 0.439792 -0.698833
1720.1875 0.986154 0.266154 -0.72
1721.00390625 0.765111 0.329099 -0.436012
1721.828125 1.1189019999999998 0.649149 -0.469753
1722.64453125 1.1472280000000001 0.589897 -0.557331
1723.44140625 1.181593 0.576606 -0.604987
1724.28515625 1.176586 0.552383 -0.624203
1725.1484375 1.00683 0.331321 -0.675509
1725.98828125 0.919036 0.56474 -0.354296
1726.80078125 0.927939 0.237939 -0.69
1727.58203125 0.8826149999999999 0.394622 -0.487993
1728.37109375 0.953487 0.358579 -0.594908
1729.1484375 1.0516679999999998 0.317109 -0.734559
1729.9609375 0.934545 0.379778 -0.554767
1730.81640625 1.1297350000000002 0.564813 -0.564922
1731.6484375 0.985869 0.096221 -0.889648
1732.42578125 0.851907 0.067313 -0.784594
1733.23828125 0.741458 -0.587183 -1.328641
1734.03125 0.7757729999999999 -0.022981 -0.798754
1734.80859375 0.9862960000000001 0.354948 -0.631348
1735.5546875 0.7925439999999999 0.373403 -0.419141
1736.35546875 0.9829600000000001 0.63968 -0.34328
1737.16796875 0.599742 0.329916 -0.269826
1737.94921875 0.651621 0.546838 -0.104783
1738.703125 0.803623 0.509588 -0.294035
1739.4609375 0.784914 0.244914 -0.54
1740.19921875 1.024479 0.639696 -0.384783
1740.453125 0.5899 0.224753 -0.365147
1740.93359375 1.009837 0.654837 -0.355
1741.6796875 0.935719 0.499437 -0.436282
1742.4921875 0.9644520000000001 0.363133 -0.601319
1743.26953125 0.9544349999999999 0.640747 -0.313688
1744.0546875 1.249166 1.045918 -0.203248
1744.8203125 1.1149040000000001 0.789904 -0.325
1745.59765625 1.118365 0.393411 -0.724954
1746.359375 0.9398299999999999 0.19983 -0.74
1747.12109375 0.867325 0.113158 -0.754167
1747.91796875 0.718187 0.408241 -0.309946
1748.71484375 0.6818690000000001 0.582682 -0.099187
1749.50390625 0.7556 0.521034 -0.234566
1750.265625 0.917941 0.706066 -0.211875
1751.015625 0.769575 0.079653 -0.689922
1751.23828125 0.819608 0.129686 -0.689922
1751.80859375 0.698976 0.079476 -0.6195
1752.0546875 0.468461 0.208486 -0.259975
1752.546875 0.944189 0.429654 -0.514535
1752.83984375 0.142186 -0.136452 -0.278638
1753.265625 0.851124 0.371406 -0.479718
1754.0546875 0.773934 0.310862 -0.463072
1754.2890625 0.493397 0.174869 -0.318528
1754.84375 0.813892 -0.095349 -0.909241
1755.1171875 0.580215 0.124561 -0.455654
1755.5859375 0.6889609999999999 -0.215123 -0.904084
1755.90234375 0.496634 0.178024 -0.31861
1756.421875 0.917504 0.474813 -0.442691
1756.6875 0.517421 0.1285 -0.388921
1757.19140625 0.6624159999999999 0.294324 -0.368092
1757.94140625 0.945683 0.479577 -0.466106
1758.64453125 0.515246 0.169987 -0.345259
1759.4453125 0.817569 0.403729 -0.41384
1760.23828125 0.929188 0.4 -0.529188
1761.02734375 0.701254 0.209852 -0.491402
1761.79296875 0.647185 0.249906 -0.397279
1762.0390625 0.37458199999999997 0.284875 -0.089707
1762.5390625 0.88332 0.494652 -0.388668
1762.78515625 0.318353 0.291086 -0.027267
1763.28515625 0.759854 0.4652 -0.294654
1764.0234375 0.884799 0.568292 -0.316507
1764.26953125 0.344628 0.29999 -0.044638
1764.7734375 0.91598 0.465534 -0.450446
1765.00390625 0.615185 0.164739 -0.450446
1765.484375 0.8190649999999999 0.305513 -0.513552
1766.2578125 0.922426 0.42 -0.502426
1767.04296875 0.740347 0.186697 -0.55365
1767.85546875 1.080248 0.55998 -0.520268
1768.6171875 1.1343869999999998 0.595 -0.539387
1769.40234375 1.046382 0.486382 -0.56
1770.16015625 1.041384 0.441861 -0.599523
1770.94140625 0.883062 0.223039 -0.660023
1771.66796875 0.6587550000000001 -0.006245 -0.665
1772.5 0.614838 0.17 -0.444838
1772.8046875 0.400695 0.225695 -0.175
1773.328125 0.621022 0.144643 -0.476379
1773.55078125 0.074808 0.0448 -0.030008
1774.1875 1.163917 0.769231 -0.394686
1774.4375 0.5100439999999999 0.1785 -0.331544
1774.98046875 1.089987 0.654987 -0.435
1775.73828125 0.738618 0.319734 -0.418884
1776.5859375 0.864727 0.399727 -0.465
1777.3046875 0.648783 0.133844 -0.514939
1777.5234375 0.061336 -0.10335 -0.164686
1778.17578125 1.310606 0.879561 -0.431045
1778.453125 0.500162 0.14098 -0.359182
1779.01171875 1.1184509999999999 0.648451 -0.47
1779.85546875 1.1183580000000002 0.549641 -0.568717
1780.65625 1.040437 0.427625 -0.612812
1781.4296875 0.685954 0.09 -0.595954
1782.1953125 0.692338 0.118729 -0.573609
1783.05078125 1.257232 0.853081 -0.404151
1783.8359375 0.9706429999999999 0.514805 -0.455838
1784.68359375 1.203063 0.814773 -0.38829
1785.51171875 1.189917 0.810138 -0.379779
1786.30078125 1.075643 0.551737 -0.523906
1787.1015625 1.1715360000000001 0.588991 -0.582545
1787.88671875 0.961357 0.344122 -0.617235
1788.65234375 0.80412 0.264692 -0.539428
1789.4140625 0.88459 0.35459 -0.53
1790.23828125 0.993771 0.403771 -0.59
1791.05859375 0.90749 0.309883 -0.597607
1791.85546875 0.676226 0.064978 -0.611248
1792.10546875 0.576248 -0.035 -0.611248
1792.6328125 0.8072090000000001 0.49 -0.317209
1792.8984375 0.450104 0.222726 -0.227378
1793.47265625 0.9512660000000001 0.363773 -0.587493
1793.72265625 0.34611899999999995 0.064619 -0.2815
1794.26953125 1.161994 0.499994 -0.662
1795.04296875 1.168522 0.536873 -0.631649
1795.84375 0.919934 0.298173 -0.621761
1796.6875 1.231875 0.6875 -0.544375
1797.54296875 1.192424 0.577444 -0.61498
1798.3671875 1.2946119999999999 0.622257 -0.672355
1799.1875 1.018989 0.219048 -0.799941
1799.984375 1.06759 0.357617 -0.709973
1800.7734375 0.99 0.345 -0.645
1801.56640625 0.878348 0.174198 -0.70415
1802.37890625 0.694888 0.185 -0.509888
1803.1875 1.0 0.585 -0.415
1804.00390625 1.060441 0.599914 -0.460527
