4.20703125 1.399739 0.860507 -0.539232
4.56640625 0.166327 -0.280707 -0.447034
5.02734375 1.461384 0.926384 -0.535
5.6796875 1.440389 0.871207 -0.569182
6.67578125 1.444609 0.874328 -0.570281
7.515625 1.45695 0.874871 -0.582079
8.328125 1.4537149999999999 0.921953 -0.531762
9.1171875 1.3610790000000001 0.832906 -0.528173
9.88671875 1.3363749999999999 0.797759 -0.538616
10.73046875 1.445939 0.934927 -0.511012
11.5859375 1.461106 0.889839 -0.571267
12.40625 1.348652 0.786679 -0.561973
13.234375 1.3798460000000001 0.834439 -0.545407
14.05859375 1.454495 0.902073 -0.552422
14.8515625 1.3668360000000002 0.824007 -0.542829
15.6484375 1.518459 0.951895 -0.566564
16.44140625 1.455 0.895 -0.56
17.26171875 1.494809 0.961971 -0.532838
18.12890625 1.412612 0.846584 -0.566028
18.953125 1.41444 0.847844 -0.566596
19.73828125 1.50317 0.930241 -0.572929
20.53515625 1.6154659999999998 1.047937 -0.567529
21.3046875 1.447966 0.873591 -0.574375
22.08984375 1.441059 0.876263 -0.564796
22.90625 1.591575 0.951575 -0.64
23.71875 1.497406 0.836885 -0.660521
24.546875 1.3956849999999998 0.721752 -0.673933
25.39453125 1.4976120000000002 0.829721 -0.667891
26.19921875 1.6454650000000002 1.040699 -0.604766
26.97265625 1.453999 0.854442 -0.599557
27.7734375 1.426234 0.77728 -0.648954
28.5625 1.472978 0.853698 -0.61928
29.41796875 1.574721 0.922335 -0.652386
30.26171875 1.472002 0.842002 -0.63
31.0859375 1.43909 0.79409 -0.645
31.890625 1.505734 0.883011 -0.622723
32.7265625 1.610592 1.021621 -0.588971
33.515625 1.430011 0.829534 -0.600477
34.30859375 1.500292 0.837972 -0.66232
35.125 1.49 0.85 -0.64
35.97265625 1.569034 0.926662 -0.642372
36.8515625 1.5122010000000001 0.821816 -0.690385
37.671875 1.445306 0.832459 -0.612847
38.44921875 1.509999 0.920491 -0.589508
39.25390625 1.4880390000000001 0.911763 -0.576276
40.0625 1.357789 0.758 -0.599789
40.86328125 1.407555 0.76783 -0.639725
41.69921875 1.487068 0.872549 -0.614519
42.52734375 1.442052 0.847052 -0.595
43.3515625 1.368676 0.765229 -0.603447
44.16796875 1.377756 0.789482 -0.588274
44.953125 1.6078350000000001 1.017212 -0.590623
45.734375 1.551656 0.962607 -0.589049
46.54296875 1.385797 0.757474 -0.628323
47.3828125 1.443841 0.854277 -0.589564
48.21875 1.5194100000000001 0.949671 -0.569739
49.046875 1.5484870000000002 1.018693 -0.529794
49.8515625 1.396636 0.792543 -0.604093
50.6328125 1.456184 0.811666 -0.644518
51.42578125 1.35735 0.776011 -0.581339
52.2109375 1.413986 0.769599 -0.644387
53.00390625 1.413462 0.797302 -0.61616
53.85546875 1.529256 0.959256 -0.57
54.703125 1.4908109999999999 0.962019 -0.528792
55.52734375 1.3540830000000001 0.819083 -0.535
56.30859375 1.4044059999999998 0.890975 -0.513431
57.09375 1.484924 1.017474 -0.46745
57.8828125 1.413358 0.966911 -0.446447
58.69921875 1.3621699999999999 0.887365 -0.474805
59.51171875 1.479454 0.990044 -0.48941
60.359375 1.498055 1.028784 -0.469271
61.19140625 1.393425 0.911573 -0.481852
62.00390625 1.3680539999999999 0.831076 -0.536978
62.78515625 1.450545 0.897064 -0.553481
63.55859375 1.5035599999999998 0.988902 -0.514658
64.34375 1.399953 0.871362 -0.528591
65.1484375 1.4028209999999999 0.861032 -0.541789
65.9921875 1.454441 0.916721 -0.53772
66.8125 1.4848690000000002 0.969439 -0.51543
67.625 1.387694 0.875 -0.512694
68.40625 1.410168 0.838746 -0.571422
69.20703125 1.673193 1.105278 -0.567915
69.9921875 1.4563030000000001 0.866662 -0.589641
70.79296875 1.403584 0.818584 -0.585
71.609375 1.495308 0.936807 -0.558501
72.46875 1.5660159999999999 0.951133 -0.614883
73.296875 1.424376 0.859395 -0.564981
74.0859375 1.411934 0.819715 -0.592219
74.8671875 1.531116 0.951703 -0.579413
75.66015625 1.526309 0.957969 -0.56834
76.48828125 1.416363 0.886995 -0.529368
77.3125 1.5254940000000001 0.932803 -0.592691
78.14453125 1.569952 0.915566 -0.654386
78.9765625 1.499322 0.875816 -0.623506
79.796875 1.3892470000000001 0.759267 -0.62998
80.59765625 1.438009 0.774827 -0.663182
81.37109375 1.504407 0.876252 -0.628155
82.16796875 1.573686 1.020324 -0.553362
82.98046875 1.508981 0.954908 -0.554073
83.83984375 1.4630779999999999 0.919432 -0.543646
84.6875 1.531532 1.000136 -0.531396
85.5 1.416339 0.875 -0.541339
86.29296875 1.448704 0.893987 -0.554717
87.078125 1.513174 0.97827 -0.534904
87.87890625 1.5384470000000001 0.960142 -0.578305
88.6875 1.45567 0.846932 -0.608738
89.51171875 1.543593 0.908699 -0.634894
90.36328125 1.6941899999999999 1.079736 -0.614454
91.2109375 1.55917 0.919401 -0.639769
92.01953125 1.535508 0.889977 -0.645531
92.7890625 1.512739 0.933813 -0.578926
93.58984375 1.651348 1.106952 -0.544396
94.390625 1.484334 0.899053 -0.585281
95.20703125 1.451483 0.887083 -0.5644
96.04296875 1.5790030000000002 1.023328 -0.555675
96.86328125 1.528793 0.984087 -0.544706
97.69140625 1.4495149999999999 0.869818 -0.579697
98.48828125 1.4289589999999999 0.881908 -0.547051
99.26953125 1.551192 1.029648 -0.521544
100.046875 1.515383 0.950408 -0.564975
100.86328125 1.533687 0.973687 -0.56
101.6796875 1.518114 0.930479 -0.587635
102.54296875 1.5316260000000002 0.954419 -0.577207
103.375 1.456355 0.89 -0.566355
104.1640625 1.417494 0.8327 -0.584794
104.953125 1.471071 0.916071 -0.555
105.75390625 1.5029270000000001 0.982927 -0.52
106.546875 1.3922210000000002 0.837226 -0.554995
107.3671875 1.478214 0.859772 -0.618442
108.1953125 1.4871189999999999 0.89 -0.597119
109.03515625 1.51323 0.95823 -0.555
109.85546875 1.3944770000000002 0.874916 -0.519561
110.625 1.422617 0.805 -0.617617
111.37890625 1.471473 0.901178 -0.570295
112.171875 1.4245860000000001 0.86709 -0.557496
112.9921875 1.3697949999999999 0.772848 -0.596947
113.8046875 1.431672 0.806471 -0.625201
114.64453125 1.589907 0.974989 -0.614918
115.46484375 1.423872 0.860185 -0.563687
116.25 1.412476 0.8 -0.612476
116.9921875 1.44962 0.835602 -0.614018
117.82421875 1.564983 0.948286 -0.616697
118.60546875 1.541218 0.909956 -0.631262
119.43359375 1.45293 0.81086 -0.64207
120.296875 1.500728 0.906984 -0.593744
121.12109375 1.4476010000000001 0.881703 -0.565898
121.92578125 1.458123 0.87086 -0.587263
122.69921875 1.461741 0.851205 -0.610536
123.48828125 1.566166 0.97603 -0.590136
124.28515625 1.468707 0.91826 -0.550447
125.08203125 1.407339 0.83347 -0.573869
125.8984375 1.4373049999999998 0.842305 -0.595
126.74609375 1.4759929999999999 0.940063 -0.53593
127.56640625 1.3669799999999999 0.780909 -0.586071
128.34375 1.483355 0.814688 -0.668667
129.10546875 1.5259 0.938974 -0.586926
129.88671875 1.359725 0.722002 -0.637723
130.66015625 1.36082 0.692731 -0.668089
131.484375 1.423282 0.780868 -0.642414
132.3125 1.547729 0.939844 -0.607885
133.11328125 1.418818 0.838752 -0.580066
133.89453125 1.366111 0.734995 -0.631116
134.68359375 1.484736 0.838905 -0.645831
135.4609375 1.493976 0.919702 -0.574274
136.22265625 1.4263210000000002 0.869299 -0.557022
137.0078125 1.4345780000000001 0.869444 -0.565134
137.828125 1.44829 0.904732 -0.543558
138.67578125 1.470187 0.904835 -0.565352
139.484375 1.443212 0.844417 -0.598795
140.25390625 1.439089 0.798539 -0.64055
141.03125 1.4944790000000001 0.94 -0.554479
141.82421875 1.4345210000000002 0.85999 -0.574531
142.609375 1.4051870000000002 0.791286 -0.613901
143.40625 1.442117 0.823024 -0.619093
144.2265625 1.483138 0.969964 -0.513174
145.04296875 1.413842 0.876456 -0.537386
145.8515625 1.349231 0.763638 -0.585593
146.625 1.419347 0.83 -0.589347
147.3984375 1.449243 0.942134 -0.507109
148.16796875 1.3864109999999998 0.83148 -0.554931
148.9765625 1.397537 0.79815 -0.599387
149.78515625 1.421611 0.873351 -0.54826
150.609375 1.408486 0.92635 -0.482136
151.41015625 1.335345 0.8314 -0.503945
152.1796875 1.391012 0.832587 -0.558425
152.95703125 1.4360430000000002 0.916193 -0.51985
153.734375 1.401254 0.946983 -0.454271
154.515625 1.435459 0.920555 -0.514904
155.30078125 1.3354270000000001 0.771467 -0.56396
156.1328125 1.450943 0.888022 -0.562921
156.94921875 1.427665 0.950718 -0.476947
157.73828125 1.436295 0.95703 -0.479265
158.484375 1.364147 0.799497 -0.56465
159.2578125 1.497631 0.969209 -0.528422
160.04296875 1.432158 0.838542 -0.593616
160.8359375 1.447985 0.869953 -0.578032
161.64453125 1.417538 0.829946 -0.587592
162.47265625 1.426438 0.938965 -0.487473
163.30078125 1.3482020000000001 0.863202 -0.485
164.10546875 1.359355 0.795 -0.564355
164.875 1.384861 0.89 -0.494861
165.64453125 1.449368 0.964791 -0.484577
166.4453125 1.355976 0.795998 -0.559978
167.26171875 1.419395 0.824472 -0.594923
168.1015625 1.496225 0.911528 -0.584697
168.9375 1.391104 0.884375 -0.506729
169.73828125 1.321949 0.801208 -0.520741
170.53125 1.301881 0.744673 -0.557208
171.33203125 1.375351 0.821167 -0.554184
172.12109375 1.469608 0.956962 -0.512646
172.91015625 1.385442 0.872924 -0.512518
173.7421875 1.433532 0.87997 -0.553562
174.58984375 1.431787 0.92597 -0.505817
175.43359375 1.477754 1.007754 -0.47
176.21875 1.326679 0.782238 -0.544441
176.9765625 1.361864 0.79821 -0.563654
177.7734375 1.433369 0.888369 -0.545
178.578125 1.355286 0.767555 -0.587731
179.39453125 1.441795 0.79989 -0.641905
180.2109375 1.475517 0.9197 -0.555817
181.0390625 1.418209 0.909935 -0.508274
181.84375 1.3646289999999999 0.81175 -0.552879
182.640625 1.3591579999999999 0.776022 -0.583136
183.421875 1.5515020000000002 1.00827 -0.543232
184.1875 1.440253 0.8858 -0.554453
185.01171875 1.3520889999999999 0.779749 -0.57234
185.53515625 1.5225680000000001 1.005964 -0.516604
186.47265625 1.387508 0.88756 -0.499948
187.31640625 1.515613 0.938863 -0.57675
188.1328125 1.409986 0.774444 -0.635542
188.91015625 1.4396360000000001 0.794864 -0.644772
189.7265625 1.490376 0.92605 -0.564326
190.54296875 1.448504 0.885986 -0.562518
191.3515625 1.374906 0.845459 -0.529447
192.1953125 1.391368 0.89801 -0.493358
193.06640625 1.573545 1.034092 -0.539453
193.87890625 1.400029 0.860029 -0.54
194.6484375 1.428089 0.848089 -0.58
195.4375 1.430172 0.905549 -0.524623
196.23046875 1.477838 0.949938 -0.5279
197.05859375 1.365094 0.824954 -0.54014
197.88671875 1.3849529999999999 0.789896 -0.595057
198.72265625 1.4842119999999999 0.931739 -0.552473
199.5703125 1.453117 0.910032 -0.543085
200.3828125 1.4005260000000002 0.8221 -0.578426
201.16015625 1.405487 0.838199 -0.567288
201.953125 1.5605280000000001 1.07973 -0.480798
202.7734375 1.41819 0.893059 -0.525131
203.6171875 1.3958249999999999 0.785584 -0.610241
204.4765625 1.440357 0.820895 -0.619462
205.3125 1.6375099999999998 1.025 -0.61251
206.09765625 1.438246 0.893685 -0.544561
206.8984375 1.3900000000000001 0.795 -0.595
207.6875 1.4481549999999999 0.843561 -0.604594
208.29296875 1.558063 0.953102 -0.604961
209.2578125 1.3812440000000001 0.826302 -0.554942
210.08984375 1.4114460000000002 0.75665 -0.654796
210.93359375 1.4926599999999999 0.907637 -0.585023
211.76171875 1.484846 0.93217 -0.552676
212.54296875 1.3832369999999998 0.834015 -0.549222
213.29296875 1.414551 0.804621 -0.60993
214.09375 1.4653070000000001 0.912224 -0.553083
214.91015625 1.512967 0.962799 -0.550168
215.734375 1.358676 0.754405 -0.604271
216.5390625 1.451288 0.804488 -0.6468
217.36328125 1.508638 0.920728 -0.58791
218.1640625 1.481314 0.894935 -0.586379
218.95703125 1.491221 0.873846 -0.617375
219.72265625 1.443397 0.807008 -0.636389
220.515625 1.496826 0.864449 -0.632377
221.359375 1.4479630000000001 0.782276 -0.665687
222.19921875 1.382471 0.688125 -0.694346
223.03125 1.465636 0.780057 -0.685579
223.84375 1.467738 0.867935 -0.599803
224.63671875 1.3963969999999999 0.801045 -0.595352
225.421875 1.5277599999999998 0.862794 -0.664966
226.21875 1.567096 0.907551 -0.659545
227.03125 1.4746739999999998 0.869674 -0.605
227.86328125 1.36371 0.748837 -0.614873
228.7109375 1.533642 0.874954 -0.658688
229.546875 1.474755 0.924286 -0.550469
230.35546875 1.4772789999999998 0.909974 -0.567305
231.13671875 1.371995 0.767598 -0.604397
231.921875 1.469461 0.817294 -0.652167
232.76171875 1.453727 0.890187 -0.56354
233.62109375 1.4493610000000001 0.864361 -0.585
234.46484375 1.361428 0.799383 -0.562045
235.3046875 1.480966 0.878311 -0.602655
236.140625 1.443432 0.880709 -0.562723
236.953125 1.44462 0.783966 -0.660654
237.72265625 1.445779 0.811315 -0.634464
238.52734375 1.454559 0.874559 -0.58
239.3671875 1.379497 0.843374 -0.536123
240.21875 1.347048 0.777048 -0.57
241.0546875 1.492399 0.915327 -0.577072
241.88671875 1.647309 1.139749 -0.50756
242.6796875 1.413773 0.83 -0.583773
243.4765625 1.4516520000000002 0.798799 -0.652853
244.28125 1.496216 0.923158 -0.573058
245.08984375 1.4417550000000001 0.861755 -0.58
245.91796875 1.392914 0.775 -0.617914
246.76171875 1.50149 0.888284 -0.613206
247.6015625 1.514884 0.954934 -0.55995
248.390625 1.390923 0.827905 -0.563018
249.17578125 1.4473340000000001 0.89334 -0.553994
249.96484375 1.475221 0.979379 -0.495842
250.796875 1.437147 0.947246 -0.489901
251.640625 1.3493119999999998 0.835749 -0.513563
252.45703125 1.431731 0.91652 -0.515211
253.3046875 1.477857 0.97416 -0.503697
254.1171875 1.416315 0.872804 -0.543511
254.890625 1.3951609999999999 0.841683 -0.553478
255.6875 1.551307 1.076327 -0.47498
256.49609375 1.463357 0.984263 -0.479094
257.31640625 1.43441 0.94 -0.49441
258.1796875 1.417831 0.864279 -0.553552
259.015625 1.4577529999999999 0.950569 -0.507184
259.81640625 1.4497200000000001 0.963678 -0.486042
260.62109375 1.364321 0.818212 -0.546109
261.3984375 1.392868 0.88482 -0.508048
262.2109375 1.643709 1.244601 -0.399108
263.03515625 1.410196 0.967503 -0.442693
263.875 1.45 0.94 -0.51
264.71875 1.394669 0.799669 -0.595
265.57421875 1.5131679999999998 0.943637 -0.569531
266.37109375 1.385954 0.863889 -0.522065
267.140625 1.366817 0.823036 -0.543781
267.91796875 1.395645 0.886423 -0.509222
268.7421875 1.548725 1.038695 -0.51003
269.58203125 1.3371840000000002 0.848049 -0.489135
270.41015625 1.3322850000000002 0.802544 -0.529741
271.234375 1.440775 0.859898 -0.580877
272.046875 1.502076 0.992926 -0.50915
272.85546875 1.387241 0.869863 -0.517378
273.6328125 1.378902 0.816388 -0.562514
274.4140625 1.449167 0.909958 -0.539209
275.234375 1.4995 0.993434 -0.506066
276.0625 1.33007 0.776562 -0.553508
276.609375 1.395138 0.869484 -0.525654
277.58203125 1.408923 0.814163 -0.59476
278.3828125 1.522658 0.93771 -0.584948
279.15625 1.370115 0.841912 -0.528203
279.94921875 1.396652 0.822383 -0.574269
280.75390625 1.527774 0.923082 -0.604692
281.55859375 1.517382 0.954843 -0.562539
282.37109375 1.3690570000000002 0.73223 -0.636827
283.171875 1.459571 0.839621 -0.61995
283.984375 1.484795 0.944388 -0.540407
284.76953125 1.412007 0.869782 -0.542225
285.53515625 1.4526270000000001 0.836315 -0.616312
286.31640625 1.489764 0.949184 -0.54058
287.140625 1.410035 0.849081 -0.560954
287.96875 1.379995 0.813876 -0.566119
288.7890625 1.529682 0.959682 -0.57
289.6171875 1.479136 1.011345 -0.467791
290.40625 1.5001250000000002 0.980125 -0.52
291.1953125 1.3844219999999998 0.804785 -0.579637
291.99609375 1.4372660000000002 0.88 -0.557266
292.796875 1.468225 0.908225 -0.56
293.6328125 1.391233 0.811276 -0.579957
294.48828125 1.474982 0.917421 -0.557561
295.3203125 1.541584 1.058991 -0.482593
296.11328125 1.2406110000000001 0.807081 -0.43353
296.89453125 1.094697 0.604905 -0.489792
297.6640625 1.186226 0.654723 -0.531503
298.484375 1.7483170000000001 1.198317 -0.55
299.3125 1.5596459999999999 1.003163 -0.556483
300.125 1.347145 0.795 -0.552145
300.94921875 1.5110100000000002 0.992445 -0.518565
301.7890625 1.5369229999999998 1.034268 -0.502655
302.5703125 1.444536 0.870356 -0.57418
303.33203125 1.466081 0.888553 -0.577528
304.12890625 1.541199 0.98383 -0.557369
304.921875 1.5768080000000002 1.031808 -0.545
305.76953125 1.4338790000000001 0.8698 -0.564079
306.59765625 1.501686 0.964087 -0.537599
307.42578125 1.551905 1.036855 -0.51505
308.23046875 1.474272 0.889853 -0.584419
309.01171875 1.4369589999999999 0.853917 -0.583042
309.7890625 1.518793 0.974857 -0.543936
310.5859375 1.539527 1.05963 -0.479897
311.41015625 1.429128 0.916095 -0.513033
312.23828125 1.402422 0.895568 -0.506854
313.0859375 1.529421 1.024746 -0.504675
313.890625 1.4635280000000002 0.957967 -0.505561
314.66796875 1.377294 0.842328 -0.534966
315.453125 1.4824259999999998 0.916549 -0.565877
316.25 1.517325 1.06 -0.457325
317.0625 1.7351580000000002 1.291346 -0.443812
317.85546875 1.438528 0.9848 -0.453728
318.65625 1.383203 0.868203 -0.515
319.4453125 1.396286 0.838693 -0.557593
320.22265625 1.383937 0.839737 -0.5442
320.96484375 1.4193259999999999 0.899446 -0.51988
321.70703125 1.427255 0.927357 -0.499898
322.45703125 1.411103 0.914033 -0.49707
323.25 1.468115 0.975 -0.493115
324.0390625 1.401561 0.889761 -0.5118
324.83203125 1.4361259999999998 0.855022 -0.581104
325.59375 1.452717 0.833536 -0.619181
326.37109375 1.411518 0.838284 -0.573234
327.12890625 1.348554 0.853264 -0.49529
327.8984375 1.322827 0.822827 -0.5
328.67578125 1.44263 0.868202 -0.574428
329.46484375 1.418987 0.813541 -0.605446
330.30859375 1.317159 0.694406 -0.622753
331.15625 1.389592 0.669592 -0.72
331.97265625 1.370828 0.738941 -0.631887
332.75390625 1.382344 0.753793 -0.628551
333.546875 1.358833 0.793522 -0.565311
334.37890625 1.4044500000000002 0.814509 -0.589941
335.2109375 1.42105 0.8795 -0.54155
336.0859375 1.3619210000000002 0.759665 -0.602256
336.9453125 1.409813 0.742065 -0.667748
337.7890625 1.385253 0.807119 -0.578134
338.58203125 1.3749660000000001 0.824961 -0.550005
339.359375 1.391959 0.866981 -0.524978
340.171875 1.42149 0.82315 -0.59834
340.97265625 1.346384 0.846384 -0.5
341.8046875 1.3124419999999999 0.752183 -0.560259
342.66796875 1.37446 0.765243 -0.609217
343.51171875 1.348501 0.793322 -0.555179
344.265625 1.302407 0.778086 -0.524321
345.05859375 1.425162 0.810389 -0.614773
345.8515625 1.351469 0.747598 -0.603871
346.59765625 1.326503 0.798785 -0.527718
347.390625 1.3251810000000002 0.782054 -0.543127
348.20703125 1.377966 0.744751 -0.633215
349.0234375 1.346342 0.810183 -0.536159
349.79296875 1.3115 0.811512 -0.499988
350.56640625 1.360843 0.824439 -0.536404
351.32421875 1.310999 0.79196 -0.519039
352.07421875 1.35686 0.823158 -0.533702
352.84765625 1.328064 0.752878 -0.575186
353.6484375 1.389196 0.784196 -0.605
354.453125 1.371855 0.856863 -0.514992
355.26171875 1.4835 0.974577 -0.508923
355.79296875 1.4688430000000001 0.978843 -0.49
356.73046875 1.599369 0.889827 -0.709542
357.49609375 1.555818 0.788303 -0.767515
358.21875 1.4938410000000002 0.964678 -0.529163
358.9765625 1.451711 0.936586 -0.515125
359.77734375 1.424398 0.919398 -0.505
360.55078125 1.45613 0.96404 -0.49209
361.26953125 1.43391 0.949964 -0.483946
361.99609375 1.407336 0.933195 -0.474141
362.6875 1.471962 0.942063 -0.529899
363.38671875 1.499066 0.872408 -0.626658
364.09375 1.454371 0.864563 -0.589808
364.796875 1.4942229999999999 0.909272 -0.584951
365.51171875 1.367274 0.823759 -0.543515
366.2578125 1.662087 1.154572 -0.507515
367.0078125 1.453251 0.943265 -0.509986
367.7265625 1.4066100000000001 0.900085 -0.506525
368.4140625 1.375852 0.829836 -0.546016
369.12109375 1.4309720000000001 0.859145 -0.571827
369.8125 1.4200789999999999 0.820747 -0.599332
370.52734375 1.35388 0.71888 -0.635
371.28515625 1.411727 0.787938 -0.623789
372.0390625 1.457059 0.878246 -0.578813
372.76953125 1.364927 0.864965 -0.499962
373.51171875 1.307258 0.777258 -0.53
374.26953125 1.3052540000000001 0.790297 -0.514957
374.97265625 1.4441549999999999 0.920296 -0.523859
375.67578125 1.373867 0.834591 -0.539276
376.40234375 1.418259 0.863797 -0.554462
377.16796875 1.346862 0.881065 -0.465797
377.94921875 1.398838 0.909685 -0.489153
378.75390625 1.289312 0.80938 -0.479932
379.52734375 1.5069 0.9569 -0.55
380.27734375 1.399241 0.880375 -0.518866
381.03125 1.336427 0.787174 -0.549253
381.80078125 1.271372 0.742846 -0.528526
382.58203125 1.397043 0.858851 -0.538192
383.35546875 1.349444 0.874816 -0.474628
384.1796875 1.28429 0.762973 -0.521317
385.0 1.4569070000000002 0.93 -0.526907
385.80078125 1.305049 0.786829 -0.51822
386.56640625 1.269525 0.779903 -0.489622
387.33203125 1.303493 0.788657 -0.514836
388.109375 1.3458510000000001 0.855905 -0.489946
388.9140625 1.276853 0.75853 -0.518323
389.7265625 1.453152 0.95998 -0.493172
390.5546875 1.32373 0.79873 -0.525
391.33984375 1.300439 0.815439 -0.485
392.08984375 1.2829959999999998 0.753049 -0.529947
392.84375 1.3870390000000001 0.792156 -0.594883
393.56640625 1.4638740000000001 0.918864 -0.54501
394.28515625 1.3988450000000001 0.776661 -0.622184
395.01953125 1.204737 0.959983 -0.244754
395.77734375 1.3939219999999999 0.919238 -0.474684
396.51953125 1.29461 0.694806 -0.599804
397.25390625 1.339223 0.701615 -0.637608
397.95703125 1.3083339999999999 0.673565 -0.634769
398.65234375 1.387277 0.78257 -0.604707
399.3515625 1.327957 0.768404 -0.559553
400.0703125 1.340306 0.746521 -0.593785
400.79296875 1.405645 0.800695 -0.60495
401.55078125 1.383569 0.822236 -0.561333
402.3125 1.404629 0.855 -0.549629
403.0859375 1.307501 0.762606 -0.544895
403.83984375 1.389754 0.794851 -0.594903
404.57421875 1.371864 0.847311 -0.524553
405.28515625 1.2521689999999999 0.786476 -0.465693
406.02734375 1.382638 0.876652 -0.505986
406.79296875 1.4152010000000002 0.870356 -0.544845
407.6015625 1.459881 0.89249 -0.567391
408.37109375 1.354521 0.880521 -0.474
409.140625 1.491397 0.953741 -0.537656
409.90234375 1.466689 0.931672 -0.535017
410.6484375 1.421805 0.951151 -0.470654
411.38671875 1.4196170000000001 0.912325 -0.507292
412.125 1.571669 1.025 -0.546669
412.8828125 1.459852 0.928391 -0.531461
413.65625 1.4132799999999999 0.875 -0.53828
414.45703125 1.542511 1.022511 -0.52
415.24609375 1.442422 0.857428 -0.584994
416.0234375 1.4490340000000002 0.929034 -0.52
416.75 1.4277090000000001 0.93 -0.497709
417.51171875 1.42183 0.882907 -0.538923
418.265625 1.445284 0.878036 -0.567248
419.02734375 1.429077 0.869077 -0.56
419.78515625 1.394168 0.8214 -0.572768
420.57421875 1.394598 0.787252 -0.607346
421.390625 1.555409 0.975892 -0.579517
422.1484375 1.402386 0.837386 -0.565
422.8828125 1.376661 0.83769 -0.538971
423.640625 1.4679060000000002 0.88505 -0.582856
424.39453125 1.414015 0.84982 -0.564195
425.1875 1.396533 0.815156 -0.581377
426.0078125 1.404772 0.764832 -0.63994
426.7890625 1.428495 0.81998 -0.608515
427.5625 1.4151699999999998 0.807634 -0.607536
428.3125 1.3875009999999999 0.852895 -0.534606
429.0859375 1.444669 0.849717 -0.594952
429.8359375 1.396841 0.828379 -0.568462
430.58203125 1.346666 0.778932 -0.567734
431.3671875 1.409964 0.78702 -0.622944
432.19140625 1.456312 0.89963 -0.556682
432.95703125 1.542125 0.970942 -0.571183
433.703125 1.4550969999999999 0.932184 -0.522913
434.4296875 1.4832049999999999 0.975681 -0.507524
435.1328125 1.494997 1.034997 -0.46
435.8515625 1.438462 0.910699 -0.527763
436.578125 1.4890560000000002 0.977674 -0.511382
437.30859375 1.562654 1.089285 -0.473369
438.04296875 1.48611 1.01154 -0.47457
438.77734375 1.436567 0.851567 -0.585
439.5390625 1.603424 0.979979 -0.623445
440.25 1.5826989999999999 0.995 -0.587699
440.91796875 1.445061 0.876527 -0.568534
441.59375 1.5327190000000002 0.893244 -0.639475
442.29296875 1.566113 0.997632 -0.568481
443.0 1.544362 0.99 -0.554362
443.71875 1.433207 0.872024 -0.561183
444.44921875 1.466874 0.833134 -0.63374
445.16796875 1.558596 0.933869 -0.624727
445.8515625 1.419358 0.864766 -0.554592
446.54296875 1.5292949999999998 0.938595 -0.5907
447.23828125 1.4482780000000002 0.81579 -0.632488
447.9296875 1.595712 0.999491 -0.596221
448.61328125 1.525451 0.998444 -0.527007
449.34765625 1.425345 0.882098 -0.543247
450.09765625 1.410142 0.827669 -0.582473
450.859375 1.550578 1.000578 -0.55
451.59375 1.486252 0.947238 -0.539014
452.3203125 1.415032 0.815663 -0.599369
453.03515625 1.426527 0.823255 -0.603272
453.78515625 1.573566 0.948689 -0.624877
454.52734375 1.489728 0.929728 -0.56
455.27734375 1.437872 0.822872 -0.615
456.0625 1.525175 0.850175 -0.675
456.8359375 1.5455359999999998 0.954405 -0.591131
457.5859375 1.492905 0.924207 -0.568698
458.3125 1.401255 0.847174 -0.554081
459.015625 1.408245 0.893859 -0.514386
459.71875 1.3946580000000002 0.829111 -0.565547
460.43359375 1.3726639999999999 0.834904 -0.53776
461.203125 1.4689899999999998 0.929414 -0.539576
461.94921875 1.390404 0.810404 -0.58
462.6953125 1.3417810000000001 0.757823 -0.583958
463.44921875 1.370758 0.782074 -0.588684
464.19921875 1.4561760000000001 0.846479 -0.609697
464.91796875 1.369376 0.879403 -0.489973
465.671875 1.327241 0.792261 -0.53498
466.421875 1.354832 0.763248 -0.591584
467.1953125 1.367025 0.732115 -0.63491
468.015625 1.348493 0.780551 -0.567942
468.84765625 1.4334829999999998 0.869872 -0.563611
469.6484375 1.390393 0.815393 -0.575
470.4140625 1.3689 0.83498 -0.53392
471.1953125 1.35822 0.7775 -0.58072
471.96484375 1.59598 1.026354 -0.569626
472.78125 1.341112 0.785305 -0.555807
473.59765625 1.395927 0.805103 -0.590824
474.21875 1.403667 0.830049 -0.573618
475.20703125 1.4008310000000002 0.837052 -0.563779
476.03515625 1.4984350000000002 0.958435 -0.54
476.8125 1.344122 0.790076 -0.554046
477.55859375 1.3959890000000001 0.843846 -0.552143
478.33203125 1.384297 0.810072 -0.574225
479.1171875 1.45026 0.89524 -0.55502
479.93359375 1.3697620000000001 0.79435 -0.575412
480.7421875 1.42544 0.857741 -0.567699
481.53515625 1.5027970000000002 0.972797 -0.53
482.3046875 1.444448 0.909759 -0.534689
483.07421875 1.391404 0.80732 -0.584084
483.82421875 1.379207 0.784523 -0.594684
484.58984375 1.390231 0.85193 -0.538301
485.3828125 1.331626 0.791662 -0.539964
486.17578125 1.4063080000000001 0.834825 -0.571483
487.0078125 1.421284 0.911373 -0.509911
487.80078125 1.351787 0.817779 -0.534008
488.546875 1.371185 0.787214 -0.583971
489.29296875 1.4808810000000001 0.846397 -0.634484
490.078125 1.4991780000000001 0.958018 -0.54116
490.828125 1.589684 1.046119 -0.543565
491.59765625 1.455607 0.916382 -0.539225
492.359375 1.56263 1.024534 -0.538096
493.12109375 1.485071 0.984443 -0.500628
493.8828125 1.490129 0.988781 -0.501348
494.609375 1.59093 1.054077 -0.536853
495.32421875 1.521992 0.967088 -0.554904
496.05078125 1.611983 1.036734 -0.575249
496.78125 1.527892 1.017133 -0.510759
497.55078125 1.420431 0.909328 -0.511103
498.30078125 1.491883 0.921531 -0.570352
499.0625 1.5394510000000001 1.006651 -0.5328
499.796875 1.458401 0.933401 -0.525
500.5078125 1.419605 0.898158 -0.521447
501.234375 1.528627 0.898825 -0.629802
501.9609375 1.515862 0.956165 -0.559697
502.6796875 1.2505600000000001 0.725922 -0.524638
503.43359375 1.313568 0.814997 -0.498571
504.234375 1.4778820000000001 0.903088 -0.574794
505.03125 1.53714 1.0186 -0.51854
505.79296875 1.408742 0.886535 -0.522207
506.5390625 1.5886169999999997 1.049956 -0.538661
507.2890625 1.512332 0.964832 -0.5475
508.046875 1.6839780000000002 1.174063 -0.509915
508.8359375 1.391505 0.899594 -0.491911
509.65234375 1.4331809999999998 0.932105 -0.501076
510.49609375 1.531589 1.003797 -0.527792
511.3125 1.592637 1.123693 -0.468944
512.11328125 1.539848 1.032439 -0.507409
512.9140625 1.429788 0.929007 -0.500781
513.70703125 1.4824950000000001 0.996615 -0.48588
514.48046875 1.493295 1.039789 -0.453506
515.30859375 1.430656 0.937006 -0.49365
516.19140625 1.4741170000000001 0.879223 -0.594894
517.05078125 1.5101909999999998 0.912816 -0.597375
517.85546875 1.4497080000000002 0.844914 -0.604794
518.66015625 1.426345 0.833622 -0.592723
519.4609375 1.529877 0.899956 -0.629921
520.25390625 1.438141 0.873264 -0.564877
521.05078125 1.5591409999999999 0.983125 -0.576016
521.8671875 1.451972 0.826972 -0.625
522.71875 1.527116 0.982116 -0.545
523.55859375 1.420936 0.873983 -0.546953
524.34375 1.464312 0.879312 -0.585
525.12109375 1.457153 0.982518 -0.474635
525.91796875 1.36015 0.858967 -0.501183
526.734375 1.414413 0.854439 -0.559974
527.58203125 1.443065 0.893649 -0.549416
528.4140625 1.429519 0.928659 -0.50086
529.24609375 1.41849 0.859681 -0.558809
530.05859375 1.431877 0.903627 -0.52825
530.8671875 1.399413 0.884413 -0.515
531.65625 1.496459 0.931459 -0.565
532.4296875 1.452127 0.786861 -0.665266
533.26953125 1.438715 0.894934 -0.543781
534.1171875 1.370525 0.848428 -0.522097
534.9296875 1.39083 0.821165 -0.569665
535.73046875 1.3472300000000001 0.801138 -0.546092
536.51953125 1.413991 0.904403 -0.509588
537.28515625 1.395941 0.843412 -0.552529
538.0625 1.459927 0.830268 -0.629659
538.87109375 1.424242 0.886853 -0.537389
539.66796875 1.359861 0.819952 -0.539909
540.484375 1.444613 0.820868 -0.623745
541.30078125 1.661435 1.066435 -0.595
542.1015625 1.536718 1.075572 -0.461146
542.85546875 1.3967200000000002 0.905298 -0.491422
543.61328125 1.391957 0.775728 -0.616229
544.38671875 1.5581610000000001 0.887632 -0.670529
545.19140625 1.524022 0.934223 -0.589799
546.0 1.3786619999999998 0.87 -0.508662
546.80078125 1.447209 0.837573 -0.609636
547.58984375 1.570551 0.9906 -0.579951
548.375 1.536175 1.03 -0.506175
549.125 1.3733170000000001 0.87 -0.503317
549.859375 1.4338 0.811538 -0.622262
550.625 1.644952 1.1 -0.544952
551.40234375 1.479385 1.009385 -0.47
552.19921875 1.441967 0.952814 -0.489153
552.98828125 1.5013670000000001 0.911717 -0.58965
553.7578125 1.54944 1.052922 -0.496518
554.49609375 1.458151 0.943615 -0.514536
555.26171875 1.425713 0.840969 -0.584744
556.0078125 1.575922 0.94355 -0.632372
556.765625 1.6939089999999999 1.128974 -0.564935
557.54296875 1.5254949999999998 0.954541 -0.570954
558.31640625 1.490714 0.848323 -0.642391
559.08984375 1.463371 0.852684 -0.610687
559.84765625 1.553489 0.983628 -0.569861
560.57421875 1.482046 0.877638 -0.604408
561.296875 1.46179 0.85283 -0.60896
562.0546875 1.521836 0.942599 -0.579237
562.8203125 1.562577 1.027177 -0.5354
563.6015625 1.4463080000000001 0.847921 -0.598387
564.39453125 1.486049 0.856245 -0.629804
565.19140625 1.55919 0.994292 -0.564898
565.94921875 1.431281 0.831924 -0.599357
566.7265625 1.389933 0.777926 -0.612007
567.5 1.509575 0.915 -0.594575
568.265625 1.6179670000000002 1.068008 -0.549959
569.0390625 1.433469 0.890582 -0.542887
569.88671875 1.417616 0.876169 -0.541447
570.71875 1.520673 0.935726 -0.584947
571.4921875 1.474695 0.96 -0.514695
572.26953125 1.466874 0.928933 -0.537941
573.0234375 1.444292 0.849292 -0.595
573.796875 1.51337 0.95337 -0.56
574.5703125 1.537333 1.025937 -0.511396
575.359375 1.381991 0.827083 -0.554908
576.16796875 1.384 0.784059 -0.599941
577.01171875 1.513115 0.83783 -0.675285
577.7890625 1.48352 0.857635 -0.625885
578.55078125 1.3695599999999999 0.762365 -0.607195
579.30078125 1.3910360000000002 0.801174 -0.589862
580.0625 1.4404409999999999 0.895994 -0.544447
580.8359375 1.464545 0.944875 -0.51967
581.64453125 1.331152 0.791544 -0.539608
582.45703125 1.400234 0.771417 -0.628817
583.2578125 1.4364050000000002 0.846804 -0.589601
584.046875 1.458548 0.866266 -0.592282
584.81640625 1.393983 0.774079 -0.619904
585.58203125 1.418673 0.849699 -0.568974
586.3515625 1.414675 0.860098 -0.554577
587.125 1.371329 0.85 -0.521329
587.9296875 1.348223 0.816884 -0.531339
588.75390625 1.43 0.865 -0.565
589.5234375 1.394979 0.845762 -0.549217
590.28125 1.374151 0.804912 -0.569239
591.05078125 1.387734 0.833438 -0.554296
591.828125 1.498877 0.869329 -0.629548
592.57421875 1.494675 0.888583 -0.606092
593.3515625 1.3518050000000001 0.762669 -0.589136
594.15234375 1.3387850000000001 0.698785 -0.64
594.94921875 1.435417 0.749301 -0.686116
595.73828125 1.408709 0.798766 -0.609943
596.4921875 1.315826 0.733544 -0.582282
597.23828125 1.3419690000000002 0.73238 -0.609589
598.00390625 1.518483 0.904177 -0.614306
598.78515625 1.375315 0.81359 -0.561725
599.5859375 1.350299 0.76984 -0.580459
600.390625 1.4104489999999998 0.774423 -0.636026
601.19921875 1.430216 0.82414 -0.606076
601.97265625 1.396845 0.881502 -0.515343
602.75 1.327617 0.835 -0.492617
603.5234375 1.359846 0.839846 -0.52
604.296875 1.413971 0.917868 -0.496103
605.06640625 1.367023 0.847848 -0.519175
605.89453125 1.305477 0.79 -0.515477
606.71484375 1.5405600000000002 1.02 -0.52056
607.51171875 1.516839 1.016853 -0.499986
608.2578125 1.38273 0.907346 -0.475384
609.01953125 1.3245580000000001 0.849742 -0.474816
609.8046875 1.613623 1.08834 -0.525283
610.59375 1.467028 0.907151 -0.559877
611.38671875 1.409662 0.814722 -0.59494
612.19921875 1.37284 0.783637 -0.589203
613.03125 1.521031 0.915045 -0.605986
613.82421875 1.438102 0.90583 -0.532272
614.58984375 1.382939 0.808148 -0.574791
615.3515625 1.391289 0.766701 -0.624588
616.12109375 1.434942 0.824942 -0.61
616.89453125 1.466386 0.889811 -0.576575
617.7109375 1.365921 0.76115 -0.604771
618.515625 1.471178 0.823511 -0.647667
619.3125 1.517134 0.938801 -0.578333
620.078125 1.4673090000000002 0.91822 -0.549089
620.85546875 1.376557 0.801646 -0.574911
621.62109375 1.428968 0.859415 -0.569553
622.3515625 1.432515 0.882708 -0.549807
623.13671875 1.461318 0.89354 -0.567778
623.94921875 1.456836 0.827042 -0.629794
624.765625 1.45557 0.915838 -0.539732
625.54296875 1.454285 1.014801 -0.439484
626.3125 1.454682 0.933713 -0.520969
627.0625 1.536155 1.006667 -0.529488
627.84375 1.497455 0.931244 -0.566211
628.6015625 1.40668 0.861246 -0.545434
629.37109375 1.542202 1.006937 -0.535265
630.17578125 1.471141 0.894522 -0.576619
630.95703125 1.577319 1.08011 -0.497209
631.7421875 1.483177 0.913258 -0.569919
632.50390625 1.340099 0.720787 -0.619312
633.265625 1.463345 0.79849 -0.664855
633.99609375 1.4448150000000002 0.852272 -0.592543
634.76953125 1.454694 0.854792 -0.599902
635.578125 1.417087 0.828593 -0.588494
636.375 1.4384109999999999 0.885 -0.553411
637.15625 1.395037 0.918224 -0.476813
637.9453125 1.3996140000000001 0.865607 -0.534007
638.7109375 1.435285 0.809451 -0.625834
639.484375 1.407272 0.851504 -0.555768
640.234375 1.3594870000000001 0.839487 -0.52
641.00390625 1.329059 0.802684 -0.526375
641.828125 1.411937 0.824641 -0.587296
642.66015625 1.449739 0.905646 -0.544093
643.44140625 1.3282850000000002 0.819415 -0.50887
644.203125 1.295967 0.732212 -0.563755
644.97265625 1.430154 0.818079 -0.612075
645.72265625 1.451115 0.886516 -0.564599
646.4765625 1.434151 0.889151 -0.545
647.265625 1.382673 0.856935 -0.525738
648.05859375 1.393792 0.905975 -0.487817
648.859375 1.368293 0.923293 -0.445
649.65234375 1.340791 0.835971 -0.50482
650.41796875 1.371257 0.806276 -0.564981
651.15234375 1.412604 0.861519 -0.551085
651.90234375 1.398865 0.883865 -0.515
652.6640625 1.3931900000000002 0.819739 -0.573451
653.47265625 1.40393 0.830339 -0.573591
654.296875 1.431356 0.863114 -0.568242
655.078125 1.388194 0.853494 -0.5347
655.859375 1.389833 0.730508 -0.659325
656.640625 1.4222480000000002 0.762337 -0.659911
657.40234375 1.536722 0.972169 -0.564553
658.1328125 1.396988 0.86235 -0.534638
658.90234375 1.358967 0.795566 -0.563401
659.7109375 1.395689 0.819872 -0.575817
660.51171875 1.43084 0.92794 -0.5029
661.30859375 1.371517 0.838914 -0.532603
662.06640625 1.356122 0.814659 -0.541463
662.8046875 1.541521 1.001892 -0.539629
663.56640625 1.421481 0.91319 -0.508291
664.328125 1.432436 0.923979 -0.508457
665.09375 1.402275 0.837656 -0.564619
665.8828125 1.58003 1.050122 -0.529908
666.66015625 1.7331239999999999 1.303124 -0.43
667.41015625 1.585556 1.06 -0.525556
668.16796875 1.3941379999999999 0.844256 -0.549882
668.91796875 1.594961 1.111435 -0.483526
669.625 1.451276 1.01 -0.441276
670.328125 1.387705 0.927951 -0.459754
671.08203125 1.527053 1.038049 -0.489004
671.8203125 1.586689 1.101501 -0.485188
672.5390625 1.443517 0.975583 -0.467934
673.26171875 1.4092630000000002 0.871363 -0.5379
673.9765625 1.519274 0.984359 -0.534915
674.66796875 1.5630410000000001 1.043041 -0.52
675.3671875 1.4029639999999999 0.910038 -0.492926
676.078125 1.452344 0.855088 -0.597256
676.7890625 1.5368490000000001 0.98207 -0.554779
677.5234375 1.463637 0.993363 -0.470274
678.3125 1.461658 0.853514 -0.608144
679.05859375 1.543788 0.995817 -0.547971
679.8046875 1.601397 1.092659 -0.508738
680.51171875 1.572694 1.059609 -0.513085
681.2421875 1.60696 1.096983 -0.509977
681.98828125 1.5276290000000001 0.972878 -0.554751
682.75390625 1.669514 1.169993 -0.499521
683.515625 1.6375319999999998 1.097889 -0.539643
684.3125 1.493106 0.952353 -0.540753
685.1328125 1.4378449999999998 0.903411 -0.534434
685.9296875 1.528365 1.05046 -0.477905
686.671875 1.597073 1.098503 -0.49857
687.4140625 1.493386 0.944675 -0.548711
688.171875 1.453754 0.873237 -0.580517
688.9375 1.517201 0.954439 -0.562762
689.72265625 1.55384 0.983574 -0.570266
690.51953125 1.459598 0.849791 -0.609807
691.328125 1.428083 0.833975 -0.594108
692.10546875 1.7011690000000002 1.139907 -0.561262
692.87109375 1.485716 0.914144 -0.571572
693.62890625 1.348649 0.767319 -0.58133
694.4140625 1.439179 0.779179 -0.66
695.203125 1.5 0.895 -0.605
695.9921875 1.554873 0.929873 -0.625
696.828125 1.366772 0.747519 -0.619253
697.66796875 1.453474 0.803611 -0.649863
698.44921875 1.52288 0.929781 -0.593099
699.19921875 1.527736 0.948039 -0.579697
699.984375 1.4074330000000002 0.804872 -0.602561
700.79296875 1.420289 0.811942 -0.608347
701.625 1.502046 0.915 -0.587046
702.41015625 1.5013450000000002 0.90447 -0.596875
703.22265625 1.5017459999999998 0.928603 -0.573143
704.04296875 1.433064 0.87592 -0.557144
704.8359375 1.490245 0.96162 -0.528625
705.5859375 1.518782 0.968782 -0.55
706.33984375 1.4986519999999999 0.967797 -0.530855
707.1796875 1.4047589999999999 0.866062 -0.538697
708.03125 1.492969 0.947969 -0.545
708.80859375 1.638205 1.053929 -0.584276
709.59375 1.509487 0.93012 -0.579367
710.3828125 1.51725 0.949018 -0.568232
711.1875 1.4563920000000001 0.886682 -0.56971
711.93359375 1.582296 1.018546 -0.56375
712.703125 1.499834 0.869833 -0.630001
713.50390625 1.4925540000000002 0.857746 -0.634808
714.328125 1.569633 1.009917 -0.559716
715.109375 1.434755 0.924755 -0.51
715.859375 1.332417 0.817417 -0.515
716.5703125 1.546321 0.96165 -0.584671
717.296875 1.491364 0.981369 -0.509995
717.99609375 1.4632040000000002 0.953204 -0.51
718.71484375 1.355987 0.835142 -0.520845
719.45703125 1.619135 1.002557 -0.616578
720.22265625 1.5547 0.969873 -0.584827
720.94921875 1.450761 0.909685 -0.541076
721.69921875 1.420989 0.894753 -0.526236
722.4375 1.493046 0.905298 -0.587748
723.15234375 1.614357 1.032815 -0.581542
723.84765625 1.493136 0.951406 -0.54173
724.58984375 1.528739 0.957906 -0.570833
725.37109375 1.487562 0.918432 -0.56913
726.16015625 1.585922 1.086416 -0.499506
726.91796875 1.54702 1.063673 -0.483347
727.69140625 1.4979399999999998 0.979049 -0.518891
728.44921875 1.5596290000000002 0.99 -0.569629
729.2109375 1.569563 1.049063 -0.5205
729.96875 1.451967 0.938824 -0.513143
730.73046875 1.3984999999999999 0.824994 -0.573506
731.52734375 1.526933 0.871933 -0.655
732.3359375 1.590242 1.019194 -0.571048
733.140625 1.446694 0.919979 -0.526715
733.9375 1.395082 0.868705 -0.526377
734.71875 1.519959 0.900208 -0.619751
735.48046875 1.612599 1.079939 -0.53266
736.28515625 1.43733 0.848237 -0.589093
737.09375 1.38534 0.801094 -0.584246
737.921875 1.522297 0.942882 -0.579415
738.7421875 1.522828 0.993484 -0.529344
739.55078125 1.413688 0.92 -0.493688
740.359375 1.3504800000000001 0.824584 -0.525896
741.15234375 1.466057 0.945298 -0.520759
741.94140625 1.5226229999999998 0.973325 -0.549298
742.7109375 1.399639 0.874748 -0.524891
743.5546875 1.4222830000000002 0.862596 -0.559687
744.38671875 1.499657 0.937143 -0.562514
745.16796875 1.452196 0.937686 -0.51451
745.95703125 1.437177 0.872358 -0.564819
746.73046875 1.419305 0.864842 -0.554463
747.5078125 1.429665 0.884782 -0.544883
748.2890625 1.521474 1.019545 -0.501929
749.08203125 1.365806 0.874384 -0.491422
749.890625 1.510572 1.048206 -0.462366
750.71484375 1.322883 0.834185 -0.488698
751.52734375 1.3754439999999999 0.790444 -0.585
752.28125 1.424557 0.900036 -0.524521
753.0390625 1.383902 0.881671 -0.502231
753.8046875 1.3758110000000001 0.82153 -0.554281
754.6015625 1.424991 0.830468 -0.594523
755.42578125 1.559743 1.024815 -0.534928
756.234375 1.486177 0.916379 -0.569798
757.03515625 1.3894950000000001 0.816801 -0.572694
757.88671875 1.495447 0.865487 -0.62996
758.67578125 1.4994429999999999 0.929591 -0.569852
759.4296875 1.490574 0.936801 -0.553773
760.2109375 1.432199 0.887646 -0.544553
761.01953125 1.4449830000000001 0.924983 -0.52
761.84375 1.5067059999999999 0.979466 -0.52724
762.66796875 1.479592 0.944686 -0.534906
763.48046875 1.479437 0.899983 -0.579454
764.25390625 1.532581 0.930862 -0.601719
765.0078125 1.586868 1.0441 -0.542768
765.75390625 1.528193 1.003225 -0.524968
766.5234375 1.4865469999999998 0.871547 -0.615
767.3203125 1.461026 0.951389 -0.509637
768.1015625 1.57673 1.1 -0.47673
768.90234375 1.657425 1.072853 -0.584572
769.73046875 1.52342 0.894954 -0.628466
770.5234375 1.599577 1.029775 -0.569802
771.25 1.639003 1.075 -0.564003
772.0078125 1.649181 1.104671 -0.54451
772.8125 1.473735 0.923378 -0.550357
773.66015625 1.49093 0.88903 -0.6019
774.484375 1.717374 1.184077 -0.533297
775.2734375 1.6565910000000001 1.119949 -0.536642
776.0625 1.573036 1.002375 -0.570661
776.6015625 1.441163 0.894511 -0.546652
777.55078125 1.582483 1.104584 -0.477899
778.359375 1.725203 1.22927 -0.495933
779.19921875 1.486999 0.97237 -0.514629
780.0390625 1.4534690000000001 0.893469 -0.56
780.86328125 1.5820889999999999 1.02714 -0.554949
781.671875 1.673544 1.183114 -0.49043
782.44921875 1.565655 1.056082 -0.509573
783.20703125 1.4764680000000001 0.972086 -0.504382
783.98046875 1.5835839999999999 1.069025 -0.514559
784.76171875 1.702596 1.224979 -0.477617
785.5625 1.659516 1.120844 -0.538672
786.37890625 1.5474439999999998 1.061284 -0.48616
787.19140625 1.52624 0.992856 -0.533384
787.9765625 1.6129310000000001 1.113545 -0.499386
788.734375 1.6930200000000002 1.192771 -0.500249
789.4921875 1.579085 1.079085 -0.5
790.25390625 1.522738 0.962738 -0.56
791.05078125 1.6018 1.025 -0.5768
791.87109375 1.6574719999999998 1.152472 -0.505
792.67578125 1.641559 1.15 -0.491559
793.48046875 1.5859130000000001 1.109847 -0.476066
794.26953125 1.5064739999999999 0.989124 -0.51735
795.02734375 1.6012920000000002 1.152381 -0.448911
795.796875 1.6653539999999998 1.181145 -0.484209
796.56640625 1.631363 1.205868 -0.425495
797.3671875 1.498997 1.008505 -0.490492
798.203125 1.7106590000000002 1.198922 -0.511737
799.046875 1.720775 1.22901 -0.491765
799.84765625 1.588163 1.113685 -0.474478
800.625 1.405 0.95 -0.455
801.40625 1.419791 0.97669 -0.443101
802.203125 1.666872 1.257977 -0.408895
802.98828125 1.5731789999999999 1.156672 -0.416507
803.8125 1.49223 1.012522 -0.479708
804.6328125 1.500705 0.960705 -0.54
805.4765625 1.625324 1.130789 -0.494535
806.26953125 1.432536 1.021084 -0.411452
807.05078125 1.4618980000000001 0.985519 -0.476379
807.81640625 1.539497 1.009518 -0.529979
808.640625 1.690378 1.190436 -0.499942
809.46875 1.696332 1.157144 -0.539188
810.26953125 1.512622 0.989441 -0.523181
811.0859375 1.5143659999999999 0.990592 -0.523774
811.89453125 1.61206 1.10471 -0.50735
812.68359375 1.531348 0.994745 -0.536603
813.45703125 1.44291 0.898866 -0.544044
814.23046875 1.4805350000000002 0.914848 -0.565687
815.03125 1.553156 1.033156 -0.52
815.87109375 1.541004 1.021004 -0.52
816.69921875 1.423743 0.906312 -0.517431
817.48828125 1.4898989999999999 0.965155 -0.524744
818.28515625 1.525702 1.080925 -0.444777
819.046875 1.6481249999999998 1.178159 -0.469966
819.83984375 1.537986 1.026986 -0.511
820.61328125 1.434647 0.919647 -0.515
821.4375 1.532043 1.053712 -0.478331
822.26171875 1.56267 1.113033 -0.449637
823.109375 1.5291770000000002 1.016841 -0.512336
823.921875 1.469891 0.924917 -0.544974
824.69140625 1.4906380000000001 0.978786 -0.511852
825.47265625 1.6192980000000001 1.125391 -0.493907
826.25390625 1.6160329999999998 1.093767 -0.522266
827.05078125 1.425993 0.895 -0.530993
827.87109375 1.503062 0.997166 -0.505896
828.70703125 1.663494 1.221342 -0.442152
829.5234375 1.5744099999999999 1.07941 -0.495
830.3359375 1.5394709999999998 0.986683 -0.552788
831.12890625 1.4897209999999999 0.909721 -0.58
831.8984375 1.640699 1.12096 -0.519739
832.65625 1.640266 1.108954 -0.531312
833.4765625 1.541253 0.997866 -0.543387
834.3359375 1.4896509999999998 0.887763 -0.601888
835.171875 1.5711300000000001 0.99094 -0.58019
835.9453125 1.6506189999999998 1.100039 -0.55058
836.6953125 1.580574 1.01613 -0.564444
837.484375 1.4495969999999998 0.880859 -0.568738
838.28515625 1.4660980000000001 0.873009 -0.593089
839.06640625 1.799099 1.254336 -0.544763
839.85546875 1.6136560000000002 1.039975 -0.573681
840.6796875 1.551281 0.961417 -0.589864
841.5234375 1.526745 0.929829 -0.596916
842.3359375 1.60961 1.049782 -0.559828
843.0625 1.709461 1.15 -0.559461
843.8125 1.63231 1.0355 -0.59681
844.625 1.497723 0.815 -0.682723
845.44921875 1.568358 0.927814 -0.640544
846.21875 1.6200519999999998 1.041094 -0.578958
847.01171875 1.535882 0.963335 -0.572547
847.80859375 1.561662 0.994733 -0.566929
848.60546875 1.473878 0.839883 -0.633995
849.19140625 1.673301 0.988431 -0.68487
850.09765625 1.566489 0.994787 -0.571702
850.9375 1.472426 0.944974 -0.527452
851.78125 1.447105 0.92966 -0.517445
852.625 1.645 1.195 -0.45
853.4296875 1.5635750000000002 1.08515 -0.478425
854.20703125 1.479487 0.982783 -0.496704
854.84765625 1.48268 0.971958 -0.510722
855.73046875 1.514672 0.90987 -0.604802
856.52734375 1.578322 1.038322 -0.54
857.29296875 1.506802 0.983877 -0.522925
858.08984375 1.432254 0.895171 -0.537083
858.93359375 1.457424 0.857424 -0.6
859.765625 1.531606 0.977344 -0.554262
860.5 1.57151 1.04 -0.53151
861.2578125 1.5138500000000001 0.928911 -0.584939
862.03515625 1.4207990000000001 0.84489 -0.575909
862.85546875 1.510755 0.939947 -0.570808
863.65234375 1.594271 1.039049 -0.555222
864.44140625 1.548365 1.003542 -0.544823
865.24609375 1.5448490000000001 0.983579 -0.56127
866.0625 1.521356 0.941934 -0.579422
866.83984375 1.5825099999999999 1.11451 -0.468
867.578125 1.5636130000000001 1.093301 -0.470312
868.34765625 1.473598 0.979739 -0.493859
868.96484375 1.5350869999999999 0.977831 -0.557256
869.984375 1.5770819999999999 1.065815 -0.511267
870.85546875 1.508969 1.06906 -0.439909
871.6875 1.509792 1.052561 -0.457231
872.47265625 1.409526 0.819787 -0.589739
873.2578125 1.513864 0.999137 -0.514727
874.06640625 1.545135 1.0665 -0.478635
874.8671875 1.499961 1.027238 -0.472723
875.68359375 1.43696 0.88696 -0.55
876.50390625 1.469641 0.935192 -0.534449
877.34375 1.594306 1.094306 -0.5
878.15625 1.532292 1.036377 -0.495915
878.9296875 1.434572 0.905291 -0.529281
879.703125 1.51569 0.999445 -0.516245
880.50390625 1.736642 1.218996 -0.517646
881.29296875 1.514295 1.024344 -0.489951
882.11328125 1.511977 0.992028 -0.519949
882.73828125 1.45143 0.835494 -0.615936
883.73828125 1.560416 1.025559 -0.534857
884.55078125 1.603011 1.071678 -0.531333
885.359375 1.51603 0.995493 -0.520537
886.140625 1.392026 0.83267 -0.559356
886.73046875 1.535946 0.984801 -0.551145
887.7421875 1.609731 1.071112 -0.538619
888.625 1.6 1.01 -0.59
889.45703125 1.4353799999999999 0.835953 -0.599427
890.26171875 1.547863 0.967425 -0.580438
891.07421875 1.6385360000000002 1.144211 -0.494325
891.8671875 1.6125379999999998 1.109621 -0.502917
892.69921875 1.4878529999999999 0.969326 -0.518527
893.5078125 1.477463 0.917785 -0.559678
894.35546875 1.6843620000000001 1.144811 -0.539551
895.2109375 1.628336 1.063689 -0.564647
896.03515625 1.572517 1.005792 -0.566725
896.82421875 1.481163 0.89486 -0.586303
897.609375 1.62601 1.054748 -0.571262
898.40625 1.629681 1.091141 -0.53854
899.25390625 1.61123 1.063313 -0.547917
900.125 1.537446 0.93 -0.607446
900.94921875 1.6223290000000001 1.101815 -0.520514
901.78125 1.660979 1.131143 -0.529836
902.58203125 1.592001 1.10316 -0.488841
903.375 1.5311599999999999 0.985 -0.54616
904.15234375 1.583018 0.998018 -0.585
904.953125 1.572593 0.998518 -0.574075
905.8046875 1.689318 1.139435 -0.549883
906.65625 1.77 1.22 -0.55
907.4921875 1.418975 0.821896 -0.597079
908.296875 1.5019550000000002 0.942991 -0.558964
909.1015625 1.637561 1.155577 -0.481984
909.90625 1.6217009999999998 1.121533 -0.500168
910.72265625 1.605416 1.065416 -0.54
911.52734375 1.479725 0.884725 -0.595
912.3671875 1.578473 1.034818 -0.543655
913.20703125 1.574868 1.06439 -0.510478
914.046875 1.66936 1.119707 -0.549653
914.83203125 1.374238 0.842168 -0.53207
915.609375 1.472012 0.940911 -0.531101
916.42578125 1.5880800000000002 1.104816 -0.483264
917.26953125 1.5291640000000002 1.02482 -0.504344
918.125 1.457688 0.885 -0.572688
918.9453125 1.493247 0.942999 -0.550248
919.7890625 1.638663 1.109718 -0.528945
920.5859375 1.496572 0.96431 -0.532262
921.40234375 1.5560230000000002 1.03 -0.526023
922.19140625 1.468099 0.868099 -0.6
923.0 1.547091 1.015 -0.532091
923.859375 1.5435130000000001 1.025003 -0.51851
924.71484375 1.501763 0.953096 -0.548667
925.5546875 1.415642 0.853334 -0.562308
926.33203125 1.528316 0.987283 -0.541033
927.1328125 1.660393 1.210858 -0.449535
927.93359375 1.5102639999999998 1.004954 -0.50531
928.74609375 1.434855 0.872101 -0.562754
929.56640625 1.509005 0.964108 -0.544897
930.3984375 1.5836569999999999 1.08096 -0.502697
931.24609375 1.540256 1.034521 -0.505735
932.06640625 1.421165 0.926268 -0.494897
932.84375 1.452093 0.88531 -0.566783
933.61328125 1.563825 1.069162 -0.494663
934.40625 1.5374059999999998 1.037321 -0.500085
935.22265625 1.486075 0.968196 -0.517879
936.0546875 1.4596010000000001 0.880173 -0.579428
936.89453125 1.737791 1.214969 -0.522822
937.69921875 1.5232899999999998 0.945 -0.57829
938.51171875 1.479222 0.888954 -0.590268
939.29296875 1.4963220000000002 0.845573 -0.650749
940.08984375 1.5635919999999999 0.948748 -0.614844
940.89453125 1.6994699999999998 1.104833 -0.594637
941.734375 1.442299 0.837426 -0.604873
942.57421875 1.422015 0.807716 -0.614299
943.43359375 1.709509 1.139546 -0.569963
944.23828125 1.5660159999999999 0.966291 -0.599725
945.015625 1.649114 1.048729 -0.600385
945.8125 1.581371 0.921371 -0.66
946.61328125 1.5200740000000001 0.904046 -0.616028
947.4296875 1.6298309999999998 1.066749 -0.563082
948.27734375 1.532727 1.01277 -0.519957
949.125 1.479978 0.825 -0.654978
949.9296875 1.475516 0.862091 -0.613425
950.73828125 1.6434980000000001 1.114603 -0.528895
951.51953125 1.57672 1.005581 -0.571139
952.28515625 1.4887860000000002 0.884758 -0.604028
953.1015625 1.52914 0.877573 -0.651567
953.91796875 1.528195 0.883195 -0.645
954.73828125 1.651512 1.046777 -0.604735
955.54296875 1.524696 0.951434 -0.573262
956.33203125 1.5949659999999999 1.029823 -0.565143
957.1015625 1.450214 0.881844 -0.56837
957.8984375 1.67315 1.238789 -0.434361
958.69140625 1.532487 1.073686 -0.458801
959.48828125 1.53155 0.971673 -0.559877
960.33984375 1.43236 0.817048 -0.615312
961.16015625 1.589271 1.006238 -0.583033
961.96875 1.6680730000000001 1.088516 -0.579557
962.76953125 1.546386 0.969811 -0.576575
963.34375 1.3832119999999999 0.779635 -0.603577
964.30078125 1.527248 0.866142 -0.661106
965.15234375 1.633277 1.088277 -0.545
966.0 1.53938 1.005 -0.53438
966.83984375 1.425351 0.806684 -0.618667
967.6875 1.62337 1.027448 -0.595922
968.49609375 1.6516730000000002 1.103911 -0.547762
969.26171875 1.5282850000000001 1.048599 -0.479686
970.05859375 1.558732 0.99245 -0.566282
970.83984375 1.557705 1.04281 -0.514895
971.6796875 1.575422 0.994174 -0.581248
972.53515625 1.625899 1.137811 -0.488088
973.359375 1.5293830000000002 0.994557 -0.534826
974.1484375 1.423648 0.89251 -0.531138
974.9453125 1.533385 0.967556 -0.565829
975.73828125 1.656741 1.171915 -0.484826
976.3359375 1.661209 1.134126 -0.527083
977.28125 1.489572 0.969572 -0.52
978.09765625 1.494054 0.834873 -0.659181
978.93359375 1.650601 1.034679 -0.615922
979.75390625 1.5931099999999998 1.00311 -0.59
980.51953125 1.489881 0.869779 -0.620102
981.26953125 1.460391 0.80488 -0.655511
982.08203125 1.608579 0.948863 -0.659716
982.8671875 1.576341 0.977586 -0.598755
983.69140625 1.6141480000000001 0.994148 -0.62
984.515625 1.438496 0.861206 -0.57729
985.328125 1.5445669999999998 0.975976 -0.568591
986.15625 1.671745 1.098574 -0.573171
986.953125 1.578208 1.010477 -0.567731
987.72265625 1.510267 0.891984 -0.618283
988.49609375 1.538433 0.909371 -0.629062
989.34765625 1.657668 1.103227 -0.554441
990.17578125 1.604905 1.053572 -0.551333
990.99609375 1.479014 0.941335 -0.537679
991.79296875 1.532512 0.97051 -0.562002
992.578125 1.7047350000000001 1.154735 -0.55
993.36328125 1.747712 1.202855 -0.544857
994.16796875 1.602094 1.057184 -0.54491
994.9609375 1.578833 0.989397 -0.589436
995.7890625 1.665034 1.038722 -0.626312
996.63671875 1.6345049999999999 1.099505 -0.535
997.4609375 1.7346059999999999 1.267555 -0.467051
998.234375 1.544342 0.964497 -0.579845
998.984375 1.442437 0.868388 -0.574049
999.73046875 1.461867 0.894906 -0.566961
1000.50390625 1.492432 0.932438 -0.559994
1001.30859375 1.596867 1.093441 -0.503426
1002.12109375 1.627835 1.20596 -0.421875
1002.921875 1.59372 1.168773 -0.424947
1003.734375 1.6057190000000001 1.086071 -0.519648
1004.515625 1.811657 1.293835 -0.517822
1005.26171875 1.675828 1.110529 -0.565299
1006.0078125 1.5567760000000002 1.032331 -0.524445
1006.80859375 1.626153 1.12901 -0.497143
1007.58984375 1.706667 1.278096 -0.428571
1008.40625 1.649914 1.205281 -0.444633
1009.21875 1.5410650000000001 1.031188 -0.509877
1010.015625 1.6022469999999998 1.059999 -0.542248
1010.7734375 1.616936 1.093512 -0.523424
1011.55078125 1.536858 1.022172 -0.514686
1012.3515625 1.512162 0.963415 -0.548747
1013.140625 1.6530170000000002 1.113434 -0.539583
1013.953125 1.576602 1.065269 -0.511333
1014.8046875 1.5012889999999999 1.017107 -0.484182
1015.66796875 1.54985 1.011142 -0.538708
1016.4296875 1.67524 1.149792 -0.525448
1017.19921875 1.618458 1.055317 -0.563141
1018.0078125 1.5884479999999999 1.003159 -0.585289
1018.828125 1.6129129999999998 1.054304 -0.558609
1019.62109375 1.606628 1.064298 -0.54233
1020.453125 1.4741080000000002 0.935 -0.539108
1021.31640625 1.5467460000000002 0.97638 -0.570366
1022.11328125 1.655676 1.100701 -0.554975
1022.91015625 1.5937649999999999 1.048053 -0.545712
1023.69921875 1.5153159999999999 0.962382 -0.552934
1024.51171875 1.564526 1.068921 -0.495605
1025.3046875 1.6938270000000002 1.149874 -0.543953
1026.140625 1.55438 1.021587 -0.532793
1026.984375 1.480203 0.914388 -0.565815
1027.80859375 1.747345 1.189952 -0.557393
1028.5546875 1.6385169999999998 1.075092 -0.563425
1029.32421875 1.558453 1.035538 -0.522915
1030.1171875 1.521527 0.989418 -0.532109
1030.921875 1.609658 1.114729 -0.494929
1031.68359375 1.7022059999999999 1.18164 -0.520566
1032.51171875 1.5702319999999999 1.01294 -0.557292
1033.3515625 1.488739 0.911431 -0.577308
1034.16796875 1.662668 1.162533 -0.500135
1034.8828125 1.691903 1.237169 -0.454734
1035.65234375 1.764869 1.314869 -0.45
1036.45703125 1.4963410000000001 0.988797 -0.507544
1037.30078125 1.622566 1.118445 -0.504121
1038.08984375 1.7703280000000001 1.183176 -0.587152
1038.890625 1.611416 1.076709 -0.534707
1039.734375 1.611887 1.028539 -0.583348
1040.54296875 1.648674 1.154553 -0.494121
1041.265625 1.735174 1.244569 -0.490605
1042.01171875 1.577632 1.103324 -0.474308
1042.8125 1.5311720000000002 0.98872 -0.542452
1043.65625 1.638954 1.147298 -0.491656
1044.44140625 1.698747 1.169899 -0.528848
1045.2421875 1.571335 1.076214 -0.495121
1046.04296875 1.4898250000000002 0.974844 -0.514981
1046.8359375 1.63001 1.144202 -0.485808
1047.44921875 1.8387090000000001 1.279133 -0.559576
1048.34765625 1.614896 1.145607 -0.469289
1049.16796875 1.549274 1.00634 -0.542934
1050.015625 1.652725 1.178453 -0.474272
1050.859375 1.6827830000000001 1.237951 -0.444832
1051.6875 1.6077780000000002 1.13847 -0.469308
1052.4609375 1.7383600000000001 1.189807 -0.548553
1053.21875 1.717913 1.236598 -0.481315
1054.0 1.729119 1.24 -0.489119
1054.80859375 1.8281450000000001 1.31 -0.518145
1055.62109375 1.560308 0.956748 -0.60356
1056.421875 1.606065 1.07217 -0.533895
1057.25390625 1.696841 1.182153 -0.514688
1058.05078125 1.6331390000000001 1.111784 -0.521355
1058.8125 1.535806 1.01125 -0.524556
1059.58984375 1.644291 1.189624 -0.454667
1060.34765625 1.712081 1.254715 -0.457366
1061.15625 1.693968 1.174926 -0.519042
1061.96875 1.5115880000000002 0.926643 -0.584945
1062.80078125 1.7648419999999998 1.264908 -0.499934
1063.59765625 1.6016920000000001 1.119282 -0.48241
1064.3984375 1.4829919999999999 0.967992 -0.515
1065.16015625 1.532051 0.912051 -0.62
1065.953125 1.622545 1.077983 -0.544562
1066.7421875 1.5506699999999998 1.046652 -0.504018
1067.546875 1.5638640000000001 1.018005 -0.545859
1068.375 1.4739710000000001 0.92 -0.553971
1069.2109375 1.61955 1.089846 -0.529704
1070.015625 1.61281 1.120045 -0.492765
1070.80078125 1.6085859999999998 1.078674 -0.529912
1071.58203125 1.40366 0.79866 -0.605
1072.36328125 1.4991750000000001 0.909475 -0.5897
1073.19140625 1.643732 1.048834 -0.594898
1074.02734375 1.588849 0.973849 -0.615
1074.8359375 1.460126 0.844361 -0.615765
1075.671875 1.6464919999999998 0.987817 -0.658675
1076.48046875 1.635832 1.05982 -0.576012
1077.25390625 1.539227 0.95426 -0.584967
1078.01171875 1.4631340000000002 0.813134 -0.65
1078.8125 1.6627169999999998 1.087287 -0.57543
1079.64453125 1.688526 1.10491 -0.583616
1080.5 1.620724 1.05 -0.570724
1081.328125 1.495794 0.840794 -0.655
1082.12109375 1.514583 1.006224 -0.508359
1082.9453125 1.629589 1.11763 -0.511959
1083.75 1.514697 0.975 -0.539697
1084.5390625 1.468128 0.834805 -0.633323
1085.36328125 1.555482 0.990905 -0.564577
1086.22265625 1.5706069999999999 1.075607 -0.495
1087.0703125 1.6138210000000002 1.124489 -0.489332
1087.890625 1.458411 0.900791 -0.55762
1088.6796875 1.533658 1.024421 -0.509237
1089.45703125 1.592481 1.090508 -0.501973
1090.26171875 1.4994519999999998 0.942749 -0.556703
1091.05859375 1.4310079999999998 0.807653 -0.623355
1091.8828125 1.6132659999999999 1.053297 -0.559969
1092.71484375 1.587155 1.11528 -0.471875
1093.5390625 1.542953 1.06 -0.482953
1094.32421875 1.429147 0.869147 -0.56
1095.12109375 1.594973 1.106973 -0.488
1095.88671875 1.534026 0.998814 -0.535212
1096.66796875 1.475892 0.906032 -0.56986
1097.48828125 1.4628 0.853 -0.6098
1098.33984375 1.625466 1.082586 -0.54288
1099.16015625 1.566454 1.06281 -0.503644
1099.96875 1.559204 0.994384 -0.56482
1100.74609375 1.489376 0.871358 -0.618018
1101.53515625 1.623292 1.091654 -0.531638
1102.34765625 1.5745820000000001 1.075071 -0.499511
1103.1484375 1.527596 0.997887 -0.529709
1103.7109375 1.4389379999999998 0.928943 -0.509995
1104.734375 1.5963820000000002 1.099528 -0.496854
1105.578125 1.563745 1.070145 -0.4936
1106.375 1.4797099999999999 0.965 -0.51471
1107.13671875 1.534313 0.944547 -0.589766
1107.9296875 1.684275 1.136589 -0.547686
1108.71875 1.5694029999999999 1.048228 -0.521175
1109.546875 1.620196 1.001138 -0.619058
1110.36328125 1.559192 0.958116 -0.601076
1111.17578125 1.612917 1.032917 -0.58
1112.0078125 1.6193849999999999 1.01935 -0.600035
1112.77734375 1.437808 0.777808 -0.66
1113.546875 1.5256150000000002 0.907335 -0.61828
1114.34375 1.6198320000000002 1.100273 -0.519559
1115.1484375 1.628011 1.143415 -0.484596
1115.99609375 1.548498 0.943579 -0.604919
1116.8359375 1.5643449999999999 0.969517 -0.594828
1117.66796875 1.6576710000000001 1.138109 -0.519562
1118.4609375 1.619543 1.099646 -0.519897
1119.2578125 1.487412 0.874912 -0.6125
1120.04296875 1.527903 0.943416 -0.584487
1120.859375 1.610989 1.141036 -0.469953
1121.6796875 1.54546 1.102187 -0.443273
1122.5 1.467436 0.95 -0.517436
1123.34375 1.513019 0.978019 -0.535
1124.16015625 1.6146070000000001 1.122996 -0.491611
1124.9453125 1.5024250000000001 1.024833 -0.477592
1125.70703125 1.4850379999999999 0.900968 -0.58407
1126.51171875 1.6291790000000002 1.149194 -0.479985
1127.32421875 1.554786 1.111916 -0.44287
1128.140625 1.511222 0.983619 -0.527603
1128.9609375 1.45159 0.791686 -0.659904
1129.765625 1.601285 1.03926 -0.562025
1130.5703125 1.61816 1.105094 -0.513066
1131.359375 1.49002 0.939754 -0.550266
1132.109375 1.4496060000000002 0.844663 -0.604943
1132.9140625 1.657626 1.139979 -0.517647
1133.75390625 1.592926 1.078238 -0.514688
1134.58984375 1.464382 0.885334 -0.579048
1135.40625 1.517403 0.957403 -0.56
1136.1953125 1.6505869999999998 1.19576 -0.454827
1136.984375 1.560136 1.128547 -0.431589
1137.76953125 1.471965 0.964971 -0.506994
1138.55859375 1.532758 1.053946 -0.478812
1139.37890625 1.604182 1.174924 -0.429258
1140.21484375 1.5609259999999998 1.088426 -0.4725
1141.05859375 1.463962 0.891681 -0.572281
1141.8671875 1.50065 0.938577 -0.562073
1142.64453125 1.7548869999999999 1.300296 -0.454591
1143.421875 1.64261 1.211876 -0.430734
1144.2109375 1.549089 1.02984 -0.519249
1145.01953125 1.486634 0.924752 -0.561882
1145.8671875 1.7856969999999999 1.290697 -0.495
1146.71484375 1.70974 1.135985 -0.573755
1147.5234375 1.5651460000000001 1.000803 -0.564343
1148.33984375 1.532476 0.921687 -0.610789
1149.14453125 1.614804 1.124995 -0.489809
1149.9140625 1.659243 1.08469 -0.574553
1150.69140625 1.4598 0.93819 -0.52161
1151.50390625 1.5816970000000001 0.949267 -0.63243
1152.35546875 1.6840030000000001 1.159893 -0.52411
1153.17578125 1.608816 1.06961 -0.539206
1153.9765625 1.609814 1.04064 -0.569174
1154.73046875 1.5081989999999998 0.94473 -0.563469
1155.5390625 1.675313 1.146142 -0.529171
1156.3203125 1.801888 1.247277 -0.554611
1157.09765625 1.473449 0.832727 -0.640722
1157.91796875 1.555879 0.899541 -0.656338
1158.7578125 1.766121 1.16284 -0.603281
1159.5703125 1.617004 1.11 -0.507004
1160.359375 1.497348 0.964478 -0.53287
1161.12890625 1.6680920000000001 1.080398 -0.587694
1161.90234375 1.7198660000000001 1.191462 -0.528404
1162.71484375 1.716965 1.204381 -0.512584
1163.51953125 1.5582690000000001 0.988914 -0.569355
1164.32421875 1.66995 1.128434 -0.541516
1165.1484375 1.669874 1.141154 -0.52872
1165.9609375 1.61503 1.057758 -0.557272
1166.7265625 1.501128 0.903232 -0.597896
1167.5078125 1.602893 1.037915 -0.564978
1168.2890625 1.631835 1.134151 -0.497684
1169.09375 1.6151209999999998 1.043121 -0.572
1169.92578125 1.488974 0.938709 -0.550265
1170.76171875 1.577221 1.112973 -0.464248
1171.57421875 1.688356 1.225206 -0.46315
1172.20703125 1.610356 1.132331 -0.478025
1173.11328125 1.487901 0.958157 -0.529744
1173.8984375 1.565148 1.023039 -0.542109
1174.49609375 1.7022819999999999 1.130212 -0.57207
1175.45703125 1.518213 0.99856 -0.519653
1176.28125 1.424744 0.850442 -0.574302
1177.1328125 1.569689 0.942034 -0.627655
1177.95703125 1.6270159999999998 1.098984 -0.528032
1178.72265625 1.5032510000000001 0.984674 -0.518577
1179.48828125 1.4413239999999998 0.89677 -0.544554
1180.26171875 1.535827 0.946585 -0.589242
1181.078125 1.731814 1.239918 -0.491896
1181.92578125 1.6485500000000002 1.144414 -0.504136
1182.74609375 1.4708649999999999 0.908345 -0.56252
1183.55078125 1.5049109999999999 0.904522 -0.600389
1184.390625 1.645187 1.101892 -0.543295
1185.171875 1.534662 0.959712 -0.57495
1185.94140625 1.431404 0.82 -0.611404
1186.734375 1.4270209999999999 0.824111 -0.60291
1187.56640625 1.629468 1.089953 -0.539515
1188.41015625 1.5928140000000002 1.063627 -0.529187
1189.24609375 1.461103 0.933685 -0.527418
1190.03515625 1.44354 0.920474 -0.523066
1190.828125 1.611954 1.129223 -0.482731
1191.64453125 1.564958 1.099958 -0.465
1192.4375 1.556736 1.087963 -0.468773
1193.21875 1.4664000000000001 0.951667 -0.514733
1194.078125 1.549096 1.049866 -0.49923
1194.90625 1.531045 1.028827 -0.502218
1195.75 1.514687 0.995 -0.519687
1196.5390625 1.403786 0.900586 -0.5032
1197.3203125 1.689524 1.17 -0.519524
1198.1015625 1.581238 1.06451 -0.516728
1198.93359375 1.502934 0.987524 -0.51541
1199.75 1.44449 0.965 -0.47949
1200.58203125 1.730309 1.283074 -0.447235
1201.4140625 1.604956 1.154956 -0.45
1202.21875 1.478405 1.044353 -0.434052
1203.0078125 1.472778 0.985 -0.487778
1203.7890625 1.51647 0.988565 -0.527905
1204.578125 1.6511609999999999 1.13 -0.521161
1205.1171875 1.5981739999999998 1.065527 -0.532647
1206.14453125 1.534149 0.954794 -0.579355
1206.98046875 1.561863 0.994838 -0.567025
1207.80859375 1.669521 1.123643 -0.545878
1208.59765625 1.724413 1.202391 -0.522022
1209.36328125 1.506754 0.992142 -0.514612
1210.1640625 1.612187 1.099043 -0.513144
1210.9765625 1.6030229999999999 1.095616 -0.507407
1211.52734375 1.569432 1.077639 -0.491793
1212.53515625 1.5415809999999999 0.930584 -0.610997
1213.38671875 1.55307 0.969455 -0.583615
1214.21875 1.6940330000000001 1.149145 -0.544888
1215.00390625 1.6117780000000002 1.028367 -0.583411
1215.78125 1.463447 0.890414 -0.573033
1216.5703125 1.7484990000000002 1.223912 -0.524587
1217.4140625 1.6427070000000001 1.104063 -0.538644
1218.25 1.6957239999999998 1.17 -0.525724
1219.0703125 1.495078 0.964496 -0.530582
1219.8828125 1.5529199999999999 1.024371 -0.528549
1220.70703125 1.629671 1.112143 -0.517528
1221.5 1.735 1.11 -0.625
1222.28515625 1.5389650000000001 0.898965 -0.64
1223.09375 1.7580230000000001 1.168309 -0.589714
1223.953125 1.683478 1.116607 -0.566871
1224.81640625 1.633827 1.078849 -0.554978
1225.640625 1.4806590000000002 0.897405 -0.583254
1226.44140625 1.5745010000000002 0.939791 -0.63471
1227.26171875 1.662018 1.129761 -0.532257
1228.08203125 1.562778 1.030265 -0.532513
1228.90625 1.468242 0.914293 -0.553949
1229.5078125 1.491643 0.904277 -0.587366
1230.53515625 1.656432 1.124062 -0.53237
1231.40234375 1.593702 1.028702 -0.565
1232.2421875 1.489071 0.920425 -0.568646
1233.0234375 1.482998 0.932998 -0.55
1233.8203125 1.633296 1.06816 -0.565136
1234.6484375 1.569528 1.001738 -0.56779
1235.29296875 1.587711 1.019746 -0.567965
1236.28125 1.532928 0.982928 -0.55
1237.12109375 1.668596 1.078723 -0.589873
1237.94140625 1.67983 1.119902 -0.559928
1238.74609375 1.556172 1.014345 -0.541827
1239.51953125 1.455136 0.939754 -0.515382
1240.296875 1.7186409999999999 1.193284 -0.525357
1241.109375 1.701934 1.096934 -0.605
1241.95703125 1.751242 1.177158 -0.574084
1242.78125 1.578579 1.035 -0.543579
1243.59765625 1.5471810000000001 0.958431 -0.58875
1244.390625 1.7081359999999999 1.15 -0.558136
1245.1796875 1.6387099999999999 1.064023 -0.574687
1245.96875 1.4537140000000002 0.939238 -0.514476
1246.765625 1.69771 1.188398 -0.509312
1247.60546875 1.924334 1.434919 -0.489415
1248.44921875 1.654585 1.13526 -0.519325
1249.30078125 1.5704129999999998 1.025501 -0.544912
1250.10546875 1.565962 1.084877 -0.481085
1250.90625 1.698026 1.203026 -0.495
1251.6875 1.620648 1.092273 -0.528375
1252.48828125 1.597632 1.083724 -0.513908
1253.3125 1.530546 1.037396 -0.49315
1254.171875 1.698968 1.209355 -0.489613
1255.015625 1.678354 1.196977 -0.481377
1255.8359375 1.555809 1.124514 -0.431295
1256.640625 1.548289 1.073018 -0.475271
1257.4375 1.668479 1.233852 -0.434627
1258.21875 1.708643 1.264111 -0.444532
1259.03125 1.7779960000000001 1.318 -0.459996
1259.84765625 1.575822 1.033935 -0.541887
1260.69921875 1.677273 1.118591 -0.558682
1261.5390625 1.719713 1.229979 -0.489734
1262.34375 1.6761650000000001 1.197966 -0.478199
1262.91796875 1.513142 1.018217 -0.494925
1263.8828125 1.651389 1.116422 -0.534967
1264.703125 1.659929 1.147844 -0.512085
1265.5234375 1.568397 1.08228 -0.486117
1266.35546875 1.569247 1.02993 -0.539317
1267.1953125 1.821183 1.30656 -0.514623
1268.01953125 1.706719 1.235297 -0.471422
1268.80859375 1.5862250000000002 1.135868 -0.450357
1269.5703125 1.540671 1.045882 -0.494789
1270.37109375 1.72398 1.144449 -0.579531
1271.2109375 1.82429 1.194871 -0.629419
1272.046875 1.628129 1.077231 -0.550898
1272.69140625 1.599255 1.029654 -0.569601
1273.6796875 1.743836 1.234163 -0.509673
1274.48828125 1.689174 1.194882 -0.494292
1275.2890625 1.618282 1.133542 -0.48474
1276.05859375 1.551158 1.043209 -0.507949
1276.84375 1.691983 1.168587 -0.523396
1277.68359375 1.747424 1.217424 -0.53
1278.54296875 1.5996830000000002 1.117671 -0.482012
1279.3671875 1.6391719999999999 1.134534 -0.504638
1280.1640625 1.6645409999999998 1.048587 -0.615954
1280.96875 1.753583 1.194548 -0.559035
1281.76171875 1.619162 1.054287 -0.564875
1282.55859375 1.4929649999999999 0.974152 -0.518813
1283.37109375 1.511252 0.943045 -0.568207
1284.2109375 1.749265 1.234919 -0.514346
1285.0625 1.627355 1.078333 -0.549022
1285.88671875 1.531233 0.963369 -0.567864
1286.6640625 1.659246 1.148588 -0.510658
1287.44921875 1.7399520000000002 1.186552 -0.5534
1288.23828125 1.6554119999999999 1.126901 -0.528511
1289.0234375 1.418125 0.878125 -0.54
1289.890625 1.530095 0.98707 -0.543025
1290.734375 1.804907 1.320961 -0.483946
1291.5546875 1.6416680000000001 1.167971 -0.473697
1292.37890625 1.507775 1.047225 -0.46055
1293.1640625 1.442879 0.949338 -0.493541
1293.9453125 1.646315 1.106631 -0.539684
1294.734375 1.68524 1.194658 -0.490582
1295.56640625 1.550901 1.051887 -0.499014
1296.41015625 1.4772530000000001 0.932995 -0.544258
1297.25390625 1.5459209999999999 0.976185 -0.569736
1298.078125 1.6443699999999999 1.118987 -0.525383
1298.859375 1.604218 1.021882 -0.582336
1299.66015625 1.4762089999999999 0.897369 -0.57884
1300.45703125 1.5454439999999998 0.912913 -0.632531
1301.27734375 1.627761 1.092761 -0.535
1302.1171875 1.60852 1.09852 -0.51
1302.9609375 1.5102950000000002 0.974547 -0.535748
1303.78515625 1.5380980000000002 0.944285 -0.593813
1304.61328125 1.7006 1.179946 -0.520654
1305.39453125 1.604737 1.079937 -0.5248
1306.1953125 1.4492820000000002 0.889645 -0.559637
1307.02734375 1.620551 1.035551 -0.585
1307.8828125 1.712967 1.139139 -0.573828
1308.71875 1.653894 1.11428 -0.539614
1309.56640625 1.568536 1.038713 -0.529823
1310.3515625 1.50624 0.957147 -0.549093
1311.1640625 1.659417 1.139683 -0.519734
1311.95703125 1.628713 1.110305 -0.518408
1312.74609375 1.490853 1.008165 -0.482688
1313.578125 1.5751749999999998 1.050779 -0.524396
1314.44921875 1.7321119999999999 1.22905 -0.503062
1315.2734375 1.681842 1.18923 -0.492612
1316.08984375 1.5663930000000001 0.976696 -0.589697
1316.87109375 1.529447 0.935811 -0.593636
1317.67578125 1.731672 1.097061 -0.634611
1318.48046875 1.629169 0.994955 -0.634214
1319.2890625 1.661123 1.034063 -0.62706
1320.10546875 1.6240890000000001 0.984894 -0.639195
1320.96875 1.688122 1.123173 -0.564949
1321.80859375 1.657417 1.039505 -0.617912
1322.6015625 1.4989979999999998 0.865 -0.633998
1323.37890625 1.537455 0.902509 -0.634946
1324.18359375 1.7703639999999998 1.199954 -0.57041
1325.0 1.634863 1.015 -0.619863
1325.85546875 1.5294050000000001 0.924944 -0.604461
1326.6796875 1.584051 0.954079 -0.629972
1327.49609375 1.7504629999999999 1.127249 -0.623214
1328.3203125 1.6421510000000001 1.052467 -0.589684
1329.11328125 1.556378 0.96253 -0.593848
1329.87890625 1.540449 0.910538 -0.629911
1330.66796875 1.694054 1.116099 -0.577955
1331.4765625 1.705582 1.104234 -0.601348
1332.31640625 1.6107079999999998 1.035874 -0.574834
1333.140625 1.5618889999999999 0.950174 -0.611715
1333.94140625 1.630007 1.050878 -0.579129
1334.70703125 1.7211119999999998 1.159042 -0.56207
1335.5 1.623363 1.075 -0.548363
1336.26953125 1.5248059999999999 0.97981 -0.544996
1337.05859375 1.636884 1.073447 -0.563437
1337.89453125 1.844503 1.36992 -0.474583
1338.7265625 1.6641590000000002 1.179618 -0.484541
1339.5546875 1.5036969999999998 0.955 -0.548697
1340.34765625 1.572335 0.993476 -0.578859
1341.11328125 1.560583 1.078406 -0.482177
1341.86328125 1.4611480000000001 0.969132 -0.492016
1342.640625 1.464947 0.933882 -0.531065
1343.4296875 1.7436989999999999 1.125407 -0.618292
1344.25390625 1.745031 1.162706 -0.582325
1345.05859375 1.708091 1.114904 -0.593187
1345.8515625 1.508842 0.95925 -0.549592
1346.62890625 1.604938 1.056422 -0.548516
1347.42578125 1.699868 1.233657 -0.466211
1348.19921875 1.813155 1.323155 -0.49
1349.00390625 1.494699 0.982092 -0.512607
1349.83203125 1.5704609999999999 1.055483 -0.514978
1350.703125 1.682769 1.19483 -0.487939
1351.546875 1.663391 1.143391 -0.52
1352.34375 1.49495 0.92495 -0.57
1353.13671875 1.529582 0.989582 -0.54
1353.95703125 1.735983 1.127269 -0.608714
1354.7734375 1.5458910000000001 0.957739 -0.588152
1355.609375 1.563493 0.945801 -0.617692
1356.4453125 1.546697 0.965 -0.581697
1357.3203125 1.648093 1.064421 -0.583672
1358.14453125 1.57427 1.019689 -0.554581
1358.9296875 1.471517 0.872664 -0.598853
1359.71484375 1.521627 0.94446 -0.577167
1360.5234375 1.70197 1.167959 -0.534011
1361.36328125 1.6658270000000002 1.07542 -0.590407
1362.203125 1.549682 0.901586 -0.648096
1363.04296875 1.627303 1.066315 -0.560988
1363.875 1.757187 1.19 -0.567187
1364.6875 1.5591110000000001 1.022429 -0.536682
1365.47265625 1.4463650000000001 0.862023 -0.584342
1366.25 1.51577 0.92 -0.59577
1367.0703125 1.668227 1.104785 -0.563442
1367.90234375 1.662052 1.072052 -0.59
1368.75 1.453606 0.88 -0.573606
1369.57421875 1.54123 0.921447 -0.619783
1370.390625 1.70868 1.15868 -0.55
1371.17578125 1.577609 1.008161 -0.569448
1371.984375 1.491889 0.894467 -0.597422
1372.77734375 1.524574 0.849574 -0.675
1373.5859375 1.687502 1.112613 -0.574889
1374.41796875 1.693116 1.141804 -0.551312
1375.23828125 1.5234079999999999 0.948458 -0.57495
1376.02734375 1.572677 0.864232 -0.708445
1376.8046875 1.675159 1.120711 -0.554448
1377.5703125 1.6950699999999999 1.133554 -0.561516
1378.3359375 1.606874 1.047945 -0.558929
1379.16796875 1.530215 0.895413 -0.634802
1379.7578125 1.552043 0.927084 -0.624959
1380.76171875 1.7134200000000002 1.160139 -0.553281
1381.6015625 1.687687 1.093139 -0.594548
1382.40234375 1.5583589999999998 0.978359 -0.58
1383.1796875 1.542975 0.944593 -0.598382
1383.97265625 1.678699 1.165 -0.513699
1384.7734375 1.6852429999999998 1.11666 -0.568583
1385.58984375 1.5768870000000001 1.007656 -0.569231
1386.4296875 1.547049 0.917647 -0.629402
1387.2734375 1.734849 1.148358 -0.586491
1388.0625 1.68767 1.202313 -0.485357
1388.85546875 1.6533959999999999 1.134989 -0.518407
1389.63671875 1.640109 1.010248 -0.629861
1390.4140625 1.559566 0.974832 -0.584734
1391.24609375 1.88064 1.299114 -0.581526
1392.0703125 1.674081 1.084852 -0.589229
1392.9140625 1.5590220000000001 0.878443 -0.680579
1393.73828125 1.571553 0.876795 -0.694758
1394.5546875 1.813281 1.113384 -0.699897
1395.32421875 1.7332130000000001 1.082676 -0.650537
1396.11328125 1.555528 0.966909 -0.588619
1396.9140625 1.500515 0.80814 -0.692375
1397.75390625 1.648631 1.087314 -0.561317
1398.6015625 1.675388 1.118945 -0.556443
1399.42578125 1.5467879999999998 1.011788 -0.535
1400.2265625 1.554643 0.965778 -0.588865
1401.04296875 1.720555 1.175555 -0.545
1401.81640625 1.637938 1.109538 -0.5284
1402.6015625 1.642125 1.136437 -0.505688
1403.41015625 1.552077 0.958703 -0.593374
1404.24609375 1.626631 1.099095 -0.527536
1405.0859375 1.7061439999999999 1.216144 -0.49
1405.90234375 1.610706 1.160706 -0.45
1406.66015625 1.583931 1.001987 -0.581944
1407.44140625 1.603844 1.072902 -0.530942
1408.25 1.7227329999999998 1.18 -0.542733
1409.046875 1.6760229999999998 1.091144 -0.584879
1409.8671875 1.447482 0.867529 -0.579953
1410.7109375 1.561749 0.91225 -0.649499
1411.55859375 1.854584 1.319301 -0.535283
1412.375 1.6350000000000002 1.1 -0.535
1413.1796875 1.544338 0.942512 -0.601826
1413.94140625 1.5151080000000001 0.880424 -0.634684
1414.77734375 1.719572 1.199572 -0.52
1415.62109375 1.699999 1.214999 -0.485
1416.453125 1.4867759999999999 0.988744 -0.498032
1417.28125 1.599672 0.992295 -0.607377
1418.11328125 1.72959 1.129183 -0.600407
1418.90234375 1.7228240000000001 1.148115 -0.574709
1419.703125 1.5354160000000001 1.03306 -0.502356
1420.4765625 1.5356779999999999 0.93797 -0.597708
1421.27734375 1.626652 1.101652 -0.525
1422.140625 1.685433 1.155295 -0.530138
1422.9921875 1.592336 1.077336 -0.515
1423.80078125 1.553209 0.933486 -0.619723
1424.5859375 1.5398749999999999 1.039175 -0.5007
1425.37890625 1.748147 1.219436 -0.528711
1426.1796875 1.646935 1.142659 -0.504276
1427.0 1.600101 0.985 -0.615101
1427.81640625 1.5457 0.83811 -0.70759
1428.6640625 1.818463 1.219043 -0.59942
1429.5234375 1.693645 1.119015 -0.57463
1430.33203125 1.556283 1.044699 -0.511584
1431.09765625 1.647497 1.057497 -0.59
1431.87890625 1.7439230000000001 1.232328 -0.511595
1432.67578125 1.766703 1.18268 -0.584023
1433.515625 1.6456840000000001 1.100954 -0.54473
1434.3671875 1.5312510000000001 0.947562 -0.583689
1435.1875 1.7197170000000002 1.12 -0.599717
1436.03125 1.735603 1.240636 -0.494967
1436.8515625 1.685186 1.203924 -0.481262
1437.6484375 1.609375 1.069375 -0.54
1438.421875 1.490733 0.917966 -0.572767
1439.24609375 1.8469229999999999 1.313119 -0.533804
1440.07421875 1.7212429999999999 1.221509 -0.499734
1440.9296875 1.6165379999999998 1.152594 -0.463944
1441.74609375 1.580081 1.070678 -0.509403
1442.51953125 1.529598 0.971575 -0.558023
1443.31640625 1.7343499999999998 1.283308 -0.451042
1444.1171875 1.620546 1.204622 -0.415924
1444.859375 1.507022 1.051445 -0.455577
1445.73046875 1.614676 1.034864 -0.579812
1446.58203125 1.681095 1.191459 -0.489636
1447.171875 1.6872759999999998 1.142294 -0.544982
1448.171875 1.553063 1.112788 -0.440275
1448.96484375 1.469025 0.89448 -0.574545
1449.7578125 1.601091 1.130293 -0.470798
1450.58203125 1.649464 1.190739 -0.458725
1451.421875 1.574684 1.034725 -0.539959
1452.265625 1.663524 1.078567 -0.584957
1453.1015625 1.6093099999999998 1.01931 -0.59
1453.93359375 1.622952 1.169651 -0.453301
1454.74609375 1.6342219999999998 1.100174 -0.534048
1455.5546875 1.513739 0.931553 -0.582186
1456.33203125 1.526048 0.936772 -0.589276
1457.16015625 1.724554 1.209554 -0.515
1458.03125 1.634068 1.149068 -0.485
1458.88671875 1.560971 1.000971 -0.56
1459.69921875 1.4604789999999999 0.882983 -0.577496
1460.50390625 1.6203949999999998 1.098407 -0.521988
1461.2890625 1.714488 1.216126 -0.498362
1462.1015625 1.5213160000000001 1.011768 -0.509548
1462.90625 1.4886789999999999 0.848679 -0.64
1463.7265625 1.5383580000000001 1.011833 -0.526525
1464.56640625 1.623896 1.13406 -0.489836
1465.4140625 1.588343 1.059652 -0.528691
1466.21875 1.446501 0.852152 -0.594349
1466.99609375 1.5364309999999999 0.93679 -0.599641
1467.78515625 1.6886739999999998 1.165757 -0.522917
1468.58203125 1.609708 1.059014 -0.550694
1469.421875 1.484858 0.864917 -0.619941
1470.2578125 1.538362 0.883439 -0.654923
1471.109375 1.774906 1.2614 -0.513506
1471.9375 1.628578 1.119233 -0.509345
1472.75390625 1.479723 0.924782 -0.554941
1473.53125 1.499238 0.894883 -0.604355
1474.34375 1.743622 1.183862 -0.55976
1475.16015625 1.6144919999999998 1.06859 -0.545902
1475.99609375 1.5310190000000001 0.962074 -0.568945
1476.85546875 1.504829 0.924829 -0.58
1477.6875 1.595727 1.061316 -0.534411
1478.4921875 1.668912 1.139818 -0.529094
1479.2890625 1.558682 1.004746 -0.553936
1480.078125 1.67377 1.038684 -0.635086
1480.89453125 1.664649 1.109844 -0.554805
1481.7109375 1.66442 1.194583 -0.469837
1482.5546875 1.6617959999999998 1.136839 -0.524957
1483.3671875 1.699517 1.129567 -0.56995
1484.1875 1.637103 1.026346 -0.610757
1484.98046875 1.7410709999999998 1.15993 -0.581141
1485.7578125 1.831734 1.291748 -0.539986
1486.55859375 1.604695 1.004851 -0.599844
1487.38671875 1.587716 0.987659 -0.600057
1488.24609375 1.7743820000000001 1.258486 -0.515896
1489.078125 1.734505 1.211192 -0.523313
1489.90234375 1.627294 1.162294 -0.465
1490.6796875 1.622058 1.008036 -0.614022
1491.47265625 1.664476 1.158754 -0.505722
1492.25390625 1.705523 1.260538 -0.444985
1493.0703125 1.6214540000000002 1.199256 -0.422198
1493.91796875 1.6602489999999999 1.135249 -0.525
1494.765625 1.7818749999999999 1.246929 -0.534946
1495.6171875 1.7378559999999998 1.265256 -0.4726
1496.41015625 1.740483 1.232329 -0.508154
1497.203125 1.603841 1.074203 -0.529638
1497.99609375 1.56383 0.981369 -0.582461
1498.8203125 1.892433 1.412544 -0.479889
1499.65234375 1.7304560000000002 1.242169 -0.488287
1500.4765625 1.500481 0.981653 -0.518828
1501.3125 1.544368 0.936942 -0.607426
1502.13671875 1.780964 1.242371 -0.538593
1502.921875 1.6981380000000001 1.171596 -0.526542
1503.70703125 1.5824129999999998 1.043024 -0.539389
1504.48828125 1.496476 0.90784 -0.588636
1505.32421875 1.673626 1.133626 -0.54
1506.1875 1.68368 1.182679 -0.501001
1507.02734375 1.752306 1.197306 -0.555
1507.84765625 1.501401 0.936401 -0.565
1508.65625 1.616012 1.0097 -0.606312
1509.46484375 1.651508 1.182966 -0.468542
1510.24609375 1.686477 1.199477 -0.487
1511.06640625 1.6152449999999998 1.095872 -0.519373
1511.90625 1.54331 0.94831 -0.595
1512.75 1.598982 1.035 -0.563982
1513.59765625 1.718543 1.213926 -0.504617
1514.39453125 1.646194 1.139908 -0.506286
1515.15625 1.529634 0.976529 -0.553105
1515.94921875 1.612873 1.098643 -0.51423
1516.73046875 1.7137580000000001 1.21493 -0.498828
1517.51953125 1.603084 1.074853 -0.528231
1518.33203125 1.574705 0.944705 -0.63
1518.95703125 2.8465730000000002 0.132849 -2.713724
1520.0 1.689206 1.11 -0.579206
1520.78515625 1.676009 1.102267 -0.573742
1521.55078125 1.442595 0.861229 -0.581366
1522.3125 1.556456 0.915 -0.641456
1523.15234375 1.763774 1.197636 -0.566138
1523.98046875 1.668594 1.1199 -0.548694
1524.79296875 1.5162900000000001 0.941806 -0.574484
1525.60546875 1.5471059999999999 0.88485 -0.662256
1526.39453125 1.636456 1.034881 -0.601575
1527.1796875 1.702413 1.13394 -0.568473
1527.97265625 1.6339350000000001 1.092233 -0.541702
1528.74609375 1.49772 0.882095 -0.615625
1529.55859375 1.7445089999999999 1.144587 -0.599922
1530.421875 1.669812 1.094831 -0.574981
1531.26171875 1.661515 1.109547 -0.551968
1532.03515625 1.525315 0.968383 -0.556932
1532.8203125 1.6525509999999999 1.054759 -0.597792
1533.6015625 1.688775 1.19553 -0.493245
1534.40234375 1.624283 1.134283 -0.49
1535.22265625 1.6153279999999999 1.045812 -0.569516
1536.04296875 1.567655 0.930897 -0.636758
1536.8984375 1.764787 1.185963 -0.578824
1537.74609375 1.7436559999999999 1.213299 -0.530357
1538.546875 1.589185 1.084185 -0.505
1539.3203125 1.6030440000000001 0.952018 -0.651026
1540.109375 1.691076 1.136657 -0.554419
1540.8984375 1.668227 1.105234 -0.562993
1541.7421875 1.5894270000000001 0.997758 -0.591669
1542.56640625 1.5776819999999998 0.864053 -0.713629
1543.37109375 1.580946 0.953029 -0.627917
1544.20703125 1.8113329999999999 1.224098 -0.587235
1545.01171875 1.7906780000000002 1.246261 -0.544417
1545.79296875 1.5876810000000001 1.007686 -0.579995
1546.5703125 1.489691 0.850062 -0.639629
1547.37890625 1.569038 0.940115 -0.628923
1548.2265625 1.725428 1.164994 -0.560434
1549.078125 1.689679 1.108376 -0.581303
1549.89453125 1.5744470000000002 0.959862 -0.614585
1550.6640625 1.563742 0.958742 -0.605
1551.46875 1.7740559999999999 1.224205 -0.549851
1552.2578125 1.6734559999999998 1.122785 -0.550671
1553.0625 1.6546219999999998 1.010943 -0.643679
1553.875 1.519063 0.845 -0.674063
1554.7109375 1.589712 0.994761 -0.594951
1555.55078125 1.7241620000000002 1.199982 -0.52418
1556.37890625 1.741825 1.209559 -0.532266
1557.15625 1.5171329999999998 0.917133 -0.6
1557.90625 1.543101 0.935 -0.608101
1558.7265625 1.693271 1.139387 -0.553884
1559.54296875 1.681539 1.097497 -0.584042
1560.3671875 1.621994 1.012344 -0.60965
1561.1640625 1.4827460000000001 0.816675 -0.666071
1561.96875 1.659437 1.01007 -0.649367
1562.75390625 1.632434 1.022145 -0.610289
1563.3671875 1.6911960000000001 1.049817 -0.641379
1564.28515625 1.619011 0.962589 -0.656422
1565.06640625 1.623642 0.948642 -0.675
1565.921875 1.702877 1.139603 -0.563274
1566.75 1.6342789999999998 1.075 -0.559279
1567.5546875 1.517904 0.947645 -0.570259
1568.33984375 1.747016 1.188112 -0.558904
1569.1171875 1.685896 1.131677 -0.554219
1569.90234375 1.62141 1.05141 -0.57
1570.703125 1.524859 0.932624 -0.592235
1571.50390625 1.560514 0.982169 -0.578345
1572.3359375 1.714144 1.18444 -0.529704
1572.9453125 1.666654 1.126654 -0.54
1573.93359375 1.598934 1.093215 -0.505719
1574.71875 1.53628 1.018033 -0.518247
1575.515625 1.7100049999999998 1.182324 -0.527681
1576.0546875 1.777526 1.351141 -0.426385
1577.00390625 1.649582 1.148261 -0.501321
1577.8515625 1.520157 0.906759 -0.613398
1578.6875 1.5828470000000001 0.969048 -0.613799
1579.51171875 1.6998980000000001 1.216059 -0.483839
1580.33203125 1.869685 1.406581 -0.463104
1581.125 1.5841749999999999 1.035 -0.549175
1581.89453125 1.528948 0.889937 -0.639011
1582.67578125 1.660237 1.080646 -0.579591
1583.49609375 1.682443 1.201193 -0.48125
1584.3515625 1.659535 1.134994 -0.524541
1585.1875 1.5223559999999998 0.932877 -0.589479
1585.9921875 1.548713 1.006653 -0.54206
1586.796875 1.651344 1.106369 -0.544975
1587.60546875 1.783657 1.189853 -0.593804
1588.421875 1.520069 0.875303 -0.644766
1589.23046875 1.574027 0.934976 -0.639051
1590.078125 1.706545 1.149737 -0.556808
1590.91796875 1.6982650000000001 1.127356 -0.570909
1591.77734375 1.575299 0.965299 -0.61
1592.578125 1.574509 0.934327 -0.640182
1593.35546875 1.7049820000000002 1.179782 -0.5252
1594.1484375 1.797522 1.317522 -0.48
1594.98046875 1.5758210000000001 1.124888 -0.450933
1595.640625 1.578676 1.053005 -0.525671
1596.62890625 1.601456 1.093213 -0.508243
1597.48828125 1.757685 1.252816 -0.504869
1598.296875 1.712638 1.19765 -0.514988
1599.10546875 1.631863 0.994865 -0.636998
1599.88671875 1.627787 1.012608 -0.615179
1600.69140625 1.814407 1.259602 -0.554805
1601.53125 1.694705 1.157402 -0.537303
1602.3984375 1.5611 1.051974 -0.509126
1603.23046875 1.53325 0.959945 -0.573305
1604.046875 1.616257 1.031405 -0.584852
1604.8359375 1.7393800000000001 1.169489 -0.569891
1605.625 1.698155 1.06 -0.638155
1606.41796875 1.5593249999999999 0.915839 -0.643486
1607.2265625 1.615302 1.066708 -0.548594
1608.05859375 1.762031 1.24 -0.522031
1608.90234375 1.650768 1.119224 -0.531544
1609.578125 1.583286 1.003717 -0.579569
1610.53125 1.571544 0.891544 -0.68
1611.3203125 1.8301569999999998 1.28124 -0.548917
1612.10546875 1.629598 1.099995 -0.529603
1612.91015625 1.5987900000000002 1.035954 -0.562836
1613.7421875 1.619206 0.989567 -0.629639
1614.57421875 1.534184 0.909184 -0.625
1615.3984375 1.633628 1.099018 -0.53461
1616.20703125 1.905082 1.363635 -0.541447
1617.0 1.582436 1.025 -0.557436
1617.765625 1.468972 0.850784 -0.618188
1618.52734375 1.580393 1.110393 -0.47
1619.22265625 1.916385 1.041385 -0.875
1620.109375 1.6612520000000002 1.309295 -0.351957
1620.94140625 1.449123 1.179193 -0.26993
1621.7265625 1.413818 0.995616 -0.418202
1622.4921875 1.408253 0.804134 -0.604119
1623.23046875 1.308994 0.659825 -0.649169
1623.984375 1.346704 0.616894 -0.72981
1624.73046875 1.3867500000000001 0.624851 -0.761899
1625.48828125 1.403697 0.653748 -0.749949
1626.26171875 1.391572 0.666059 -0.725513
1627.03125 1.487889 0.788182 -0.699707
1627.80859375 1.44531 0.8 -0.64531
1628.54296875 1.443486 0.813551 -0.629935
1629.234375 1.407226 0.812539 -0.594687
1629.91796875 1.387157 0.861659 -0.525498
1630.640625 1.448498 0.933011 -0.515487
1631.38671875 1.507209 0.946938 -0.560271
1632.14453125 1.444021 0.944852 -0.499169
1632.8984375 1.443972 0.89334 -0.550632
1633.6484375 1.6646740000000002 1.131652 -0.533022
1634.37890625 1.431407 0.816438 -0.614969
1635.12109375 1.5627710000000001 0.983421 -0.57935
1635.84765625 1.43127 0.86861 -0.56266
1636.60546875 1.515345 0.899981 -0.615364
1637.37109375 1.410083 0.841738 -0.568345
1638.1875 1.39886 0.808202 -0.590658
1639.00390625 1.466276 0.821745 -0.644531
1639.76953125 1.434534 0.864729 -0.569805
1640.5234375 1.453113 0.873404 -0.579709
1641.2890625 1.45827 0.844186 -0.614084
1642.06640625 1.434654 0.819654 -0.615
1642.828125 1.606847 1.002522 -0.604325
1643.62890625 1.464218 0.779051 -0.685167
1644.4453125 1.60599 0.982126 -0.623864
1645.24609375 1.5234070000000002 0.905907 -0.6175
1646.03125 1.451238 0.866238 -0.585
1646.81640625 1.521604 0.904544 -0.61706
1647.41015625 1.506132 0.971132 -0.535
1648.296875 1.479875 0.897016 -0.582859
1649.12109375 1.4794489999999998 0.774797 -0.704652
1649.97265625 1.421408 0.791408 -0.63
1650.78125 1.6925970000000001 1.04447 -0.648127
1651.5625 1.463416 0.748729 -0.714687
1652.375 1.589866 0.93 -0.659866
1653.1328125 1.6548979999999998 1.049929 -0.604969
1653.89453125 1.5989589999999998 1.024892 -0.574067
1654.6953125 1.5568149999999998 0.943457 -0.613358
1655.53515625 1.696165 1.137249 -0.558916
1656.328125 1.610519 1.154324 -0.456195
1657.17578125 1.449583 0.914583 -0.535
1658.0 1.652711 1.15 -0.502711
1658.7109375 1.534575 1.137127 -0.397448
1659.44921875 1.453823 0.930977 -0.522846
1660.1953125 1.570579 0.955443 -0.615136
1660.90234375 1.594416 0.959563 -0.634853
1661.62890625 1.5408469999999999 0.824357 -0.71649
1662.38671875 1.619609 0.929979 -0.68963
1663.09375 1.6971690000000001 1.044669 -0.6525
1663.8046875 1.582744 0.978265 -0.604479
1664.50390625 1.480349 0.860407 -0.619942
1665.19140625 1.554479 0.964015 -0.590464
1665.84375 1.616736 1.044844 -0.571892
1666.53515625 1.644361 1.069808 -0.574553
1667.26171875 1.537814 0.917841 -0.619973
1668.01171875 1.603631 1.073123 -0.530508
1668.71875 1.602999 1.118203 -0.484796
1669.4765625 1.540352 1.040352 -0.5
1670.203125 1.5371670000000002 0.932914 -0.604253
1670.9375 1.58543 1.025 -0.56043
1671.66796875 1.556773 0.982668 -0.574105
1672.3984375 1.50347 0.81847 -0.685
1673.140625 1.5442719999999999 0.94 -0.604272
1673.921875 1.65492 1.124223 -0.530697
1674.703125 1.477473 0.904918 -0.572555
1675.49609375 1.5245000000000002 0.901089 -0.623411
1676.265625 1.620135 1.072955 -0.54718
1677.0078125 1.635881 1.067672 -0.568209
1677.75 1.5441989999999999 0.94 -0.604199
1678.546875 1.598665 0.928684 -0.669981
1679.34765625 1.717568 1.182628 -0.53494
1680.125 1.84285 1.33 -0.51285
1680.96875 1.5971060000000001 1.017643 -0.579463
1681.83203125 1.6661290000000002 1.047095 -0.619034
1682.6015625 1.692425 1.123043 -0.569382
1683.35546875 1.6898680000000001 1.129871 -0.559997
1684.1484375 1.585874 0.975 -0.610874
1684.96875 1.699872 1.161179 -0.538693
1685.78125 1.6428880000000001 1.122888 -0.52
1686.609375 1.675685 1.074028 -0.601657
1687.4296875 1.5453130000000002 0.938041 -0.607272
1688.2421875 1.663112 1.109603 -0.553509
1689.01171875 1.4683540000000002 0.886062 -0.582292
1689.74609375 1.512139 0.883397 -0.628742
1690.48828125 1.533542 0.997188 -0.536354
1691.26171875 1.6411349999999998 1.212816 -0.428319
1692.046875 1.487033 0.948716 -0.538317
1692.84765625 1.515222 0.855222 -0.66
1693.65625 1.539842 0.858968 -0.680874
1694.41015625 1.475162 0.758287 -0.716875
1695.171875 1.57801 0.813036 -0.764974
1695.95703125 1.581365 0.839192 -0.742173
1696.73046875 1.584307 0.984495 -0.599812
1697.52734375 1.5872899999999999 0.99 -0.59729
1698.33203125 1.6028060000000002 0.952806 -0.65
1699.15625 1.644544 1.020596 -0.623948
1699.9609375 1.542557 0.932014 -0.610543
1700.734375 1.5876869999999998 1.010309 -0.577378
1701.5 1.79971 1.255 -0.54471
1702.27734375 1.669264 1.149264 -0.52
1703.078125 1.6367369999999999 1.104307 -0.53243
1703.88671875 1.6905580000000002 1.177674 -0.512884
1704.703125 1.7068249999999998 1.212519 -0.494306
1705.51171875 1.715273 1.205273 -0.51
1706.27734375 1.619267 1.089267 -0.53
1707.0546875 1.7159060000000002 1.217602 -0.498304
1707.82421875 1.8030680000000001 1.293068 -0.51
1708.58203125 1.622798 1.093864 -0.528934
1709.36328125 1.650254 1.076758 -0.573496
1710.21484375 1.743131 1.205724 -0.537407
1711.0234375 1.7083789999999999 1.157986 -0.550393
1711.8046875 1.576199 1.036994 -0.539205
1712.57421875 1.6417540000000002 1.125575 -0.516179
1713.34375 1.6983670000000002 1.218649 -0.479718
1714.12890625 1.766937 1.286202 -0.480735
1714.90625 1.5873140000000001 1.042314 -0.545
1715.7109375 1.6890640000000001 1.129956 -0.559108
1716.52734375 1.748504 1.138504 -0.61
1717.35546875 1.6496490000000001 1.044834 -0.604815
1718.13671875 1.569528 0.961119 -0.608409
1718.90234375 1.68289 1.09289 -0.59
1719.671875 1.693385 1.187868 -0.505517
1720.453125 1.594621 1.09103 -0.503591
1721.26171875 1.6449289999999999 1.06344 -0.581489
1722.08984375 1.605901 1.026853 -0.579048
1722.91796875 1.739076 1.189801 -0.549275
1723.7265625 1.6173440000000001 1.118924 -0.49842
1724.515625 1.6153089999999999 1.104792 -0.510517
1725.28515625 1.616713 1.222987 -0.393726
1726.0546875 1.598711 1.234836 -0.363875
1726.8359375 1.585834 1.164389 -0.421445
1727.62109375 1.545604 1.032792 -0.512812
1728.46484375 1.6797 1.162899 -0.516801
1729.28125 1.7085279999999998 1.170105 -0.538423
1730.06640625 1.6791740000000002 1.104375 -0.574799
1730.8046875 1.6364100000000001 1.045055 -0.591355
1731.578125 1.727916 1.182217 -0.545699
1732.33203125 1.6600009999999998 1.14207 -0.517931
1733.10546875 1.543018 1.059922 -0.483096
1733.86328125 1.7653249999999998 1.210349 -0.554976
1734.671875 1.713285 1.201544 -0.511741
1735.4609375 1.7047819999999998 1.200589 -0.504193
1736.25 1.6896390000000001 1.215 -0.474639
1736.97265625 1.52437 0.987199 -0.537171
1737.72265625 1.62427 1.072311 -0.551959
1738.484375 1.757365 1.162955 -0.59441
1739.2734375 1.596873 1.041651 -0.555222
1740.078125 1.595062 0.941167 -0.653895
1740.87890625 1.749151 1.129151 -0.62
1741.66796875 1.6643720000000002 1.113587 -0.550785
1742.44921875 1.610789 1.066907 -0.543882
1743.2109375 1.50864 0.928797 -0.579843
1743.96484375 1.698611 1.11 -0.588611
1744.73046875 1.6596 1.144768 -0.514832
1745.53125 1.608349 1.063536 -0.544813
1746.359375 1.57943 1.086801 -0.492629
1747.16796875 1.600003 1.097796 -0.502207
1747.69921875 1.565708 1.127723 -0.437985
1748.6015625 1.705577 1.185733 -0.519844
1749.3359375 1.6282229999999998 1.044242 -0.583981
1750.078125 1.625318 1.074918 -0.5504
1750.8046875 1.4878339999999999 0.879493 -0.608341
1751.5625 1.64885 0.974574 -0.674276
1752.328125 1.705382 1.119446 -0.585936
1753.08203125 1.490959 0.982103 -0.508856
1753.828125 1.528759 0.965647 -0.563112
1754.54296875 1.5588790000000001 0.958879 -0.6
1755.2734375 1.675186 1.162014 -0.513172
1755.9921875 1.564299 0.95 -0.614299
1756.70703125 1.557043 0.838595 -0.718448
1757.46875 1.629948 0.958036 -0.671912
1758.21875 1.7351869999999998 1.210878 -0.524309
1758.96875 1.748863 1.254137 -0.494726
1759.71875 1.6936080000000002 1.148608 -0.545
1760.46875 1.569633 1.039837 -0.529796
1761.19140625 1.586979 1.097052 -0.489927
1761.8984375 1.507311 0.987311 -0.52
1762.625 1.6645250000000003 1.12 -0.544525
1763.40625 1.589856 0.97559 -0.614266
1764.1875 1.6786979999999998 1.108698 -0.57
1764.984375 1.542084 0.981477 -0.560607
1765.79296875 1.5291139999999999 0.890628 -0.638486
1766.57421875 1.581453 1.011984 -0.569469
1767.33203125 1.6518730000000001 1.073932 -0.577941
1768.11328125 1.551691 0.961917 -0.589774
1768.921875 1.524414 0.939414 -0.585
1769.73828125 1.7860040000000001 1.284105 -0.501899
1770.5546875 1.598199 1.050117 -0.548082
1771.40234375 1.456437 0.916437 -0.54
1772.21484375 1.534022 0.983113 -0.550909
1773.0078125 1.7328069999999998 1.21284 -0.519967
1773.78125 1.541464 1.040808 -0.500656
1774.57421875 1.48862 0.879586 -0.609034
1775.390625 1.5690110000000002 0.991703 -0.577308
1776.2421875 1.579885 1.037839 -0.542046
1777.0703125 1.546967 0.966857 -0.58011
1777.88671875 1.517906 0.880183 -0.637723
1778.6953125 1.593375 0.981919 -0.611456
1779.48828125 1.634162 1.054475 -0.579687
1780.28125 1.627236 1.047236 -0.58
1781.05078125 1.473544 0.865299 -0.608245
1781.890625 1.67468 1.015727 -0.658953
1782.71484375 1.5693890000000001 1.024389 -0.545
1783.515625 1.527938 1.011846 -0.516092
1784.26953125 1.518124 0.999944 -0.51818
1785.0390625 1.6721300000000001 1.214958 -0.457172
1785.80078125 1.70605 1.256108 -0.449942
1786.56640625 1.522895 0.957785 -0.56511
1787.33203125 1.609902 1.05759 -0.552312
1788.1171875 1.611668 1.076691 -0.534977
1788.90625 1.601544 1.116544 -0.485
1789.68359375 1.37962 0.840312 -0.539308
1790.4140625 1.588498 1.054375 -0.534123
1791.1328125 1.612894 1.042915 -0.569979
1791.83984375 1.455531 0.960714 -0.494817
1792.55859375 1.445641 0.872802 -0.572839
1793.28125 1.558672 0.934329 -0.624343
1794.06640625 1.549375 0.979791 -0.569584
1794.8125 1.449255 0.909545 -0.53971
1795.5390625 1.528674 0.944505 -0.584169
1796.2734375 1.684062 1.131104 -0.552958
1796.99609375 1.825963 1.241069 -0.584894
1797.6875 1.494733 0.919754 -0.574979
1798.375 1.456301 0.925 -0.531301
1799.08984375 1.4907240000000002 0.953581 -0.537143
1799.8203125 1.549687 0.974323 -0.575364
1800.56640625 1.533178 0.879123 -0.654055
1801.328125 1.627648 0.992891 -0.634757
1802.03515625 1.546547 0.988077 -0.55847
1802.71875 1.4557769999999999 0.926178 -0.529599
1803.421875 1.456203 0.908381 -0.547822
1804.125 1.523959 0.93 -0.593959
