4.33984375 1.780719 1.527782 -0.252937
4.984375 1.8562100000000001 1.629277 -0.226933
5.671875 1.891728 1.544685 -0.347043
6.359375 1.816856 1.446856 -0.37
7.0234375 1.80571 1.436918 -0.368792
7.6640625 1.908242 1.584782 -0.32346
8.31640625 1.8740729999999999 1.444073 -0.43
8.96484375 1.822002 1.337002 -0.485
9.62109375 1.827796 1.393227 -0.434569
10.2890625 1.891773 1.449905 -0.441868
10.94140625 1.885335 1.305335 -0.58
11.57421875 1.892011 1.302011 -0.59
12.22265625 1.878318 1.38848 -0.489838
12.90625 1.965099 1.481242 -0.483857
13.55859375 1.9234740000000001 1.403474 -0.52
14.1875 1.772696 1.292696 -0.48
14.83203125 1.842814 1.382882 -0.459932
15.48046875 1.868083 1.384955 -0.483128
16.125 1.797436 1.375 -0.422436
16.76953125 1.90979 1.644879 -0.264911
17.421875 1.919387 1.585 -0.334387
18.0703125 1.883993 1.468993 -0.415
18.71484375 1.834185 1.389185 -0.445
19.37109375 1.881869 1.396869 -0.485
20.03125 1.815653 1.388118 -0.427535
20.68359375 1.892256 1.643069 -0.249187
21.32421875 1.934375 1.657007 -0.277368
21.96875 1.922647 1.637815 -0.284832
22.6171875 1.8548740000000001 1.63975 -0.215124
23.27734375 1.821561 1.625706 -0.195855
23.94921875 1.859734 1.706118 -0.153616
24.58984375 1.920274 1.845415 -0.074859
25.234375 1.981126 1.83709 -0.144036
25.89453125 1.909859 1.659983 -0.249876
26.578125 1.865522 1.533803 -0.331719
27.234375 1.797265 1.431797 -0.365468
27.87109375 1.8030750000000002 1.403326 -0.399749
28.515625 1.845202 1.435858 -0.409344
29.17578125 1.845141 1.450177 -0.394964
29.83984375 1.769371 1.3994 -0.369971
30.5078125 1.822298 1.480631 -0.341667
31.140625 1.8754659999999999 1.595975 -0.279491
31.78125 1.8896650000000002 1.614672 -0.274993
32.42578125 1.878693 1.543964 -0.334729
33.09765625 1.8880720000000002 1.475 -0.413072
33.7421875 1.8136599999999998 1.38366 -0.43
34.3828125 1.8424399999999999 1.41244 -0.43
35.0234375 1.8048389999999999 1.394839 -0.41
35.6796875 1.83607 1.446601 -0.389469
36.3125 1.8375409999999999 1.567788 -0.269753
36.9765625 1.96347 1.72347 -0.24
37.62890625 1.987255 1.642255 -0.345
38.27734375 1.9427819999999998 1.518015 -0.424767
38.9140625 1.9121139999999999 1.47114 -0.440974
39.58203125 1.9030109999999998 1.486376 -0.416635
40.24609375 1.924482 1.53957 -0.384912
40.8984375 1.8883320000000001 1.549007 -0.339325
41.53125 1.8883320000000001 1.666848 -0.221484
42.18359375 1.968052 1.768069 -0.199983
42.8203125 2.007507 1.777507 -0.23
43.4765625 1.964075 1.664446 -0.299629
44.14453125 1.959717 1.594863 -0.364854
44.78125 1.984593 1.590719 -0.393874
45.4140625 1.9629649999999998 1.654289 -0.308676
46.05859375 2.029902 1.684902 -0.345
46.7421875 1.9784899999999999 1.553958 -0.424532
47.390625 1.989998 1.464269 -0.525729
48.0234375 1.9766430000000001 1.531686 -0.444957
48.6640625 2.004218 1.674218 -0.33
49.3203125 2.052304 1.802304 -0.25
49.9765625 2.09762 1.78762 -0.31
50.640625 1.984093 1.579217 -0.404876
51.2890625 1.961854 1.454254 -0.5076
51.9375 1.8798050000000002 1.308 -0.571805
52.57421875 1.85316 1.320117 -0.533043
53.25390625 1.8999549999999998 1.364955 -0.535
53.90234375 1.853872 1.368872 -0.485
54.546875 1.885138 1.386364 -0.498774
55.17578125 1.881823 1.381823 -0.5
55.81640625 1.8938229999999998 1.374229 -0.519594
56.4453125 1.857894 1.359209 -0.498685
57.09375 1.885097 1.440363 -0.444734
57.73828125 1.851902 1.451902 -0.4
58.37109375 1.849473 1.461973 -0.3875
58.9921875 1.8265090000000002 1.456509 -0.37
59.640625 1.8391080000000002 1.499108 -0.34
60.29296875 1.918448 1.723814 -0.194634
60.93359375 1.973579 1.718826 -0.254753
61.5625 1.9778319999999998 1.492889 -0.484943
62.203125 1.871908 1.371908 -0.5
62.84375 1.934256 1.665833 -0.268423
63.49609375 1.960545 1.805811 -0.154734
64.16015625 1.9557630000000001 1.575763 -0.38
64.79296875 1.84205 1.28205 -0.56
65.4375 1.844028 1.504394 -0.339634
66.0703125 1.8119530000000001 1.626953 -0.185
66.73828125 1.861729 1.479463 -0.382266
67.375 1.829689 1.255 -0.574689
68.015625 1.7169349999999999 1.276935 -0.44
68.64453125 1.782443 1.484976 -0.297467
69.28515625 1.825502 1.625502 -0.2
69.91015625 1.828953 1.584379 -0.244574
70.5625 1.726782 1.399056 -0.327726
71.21484375 1.6716630000000001 1.323018 -0.348645
71.8515625 1.784639 1.40554 -0.379099
72.47265625 1.791399 1.361399 -0.43
73.13671875 1.8131439999999999 1.308144 -0.505
73.80078125 1.885751 1.345984 -0.539767
74.453125 1.812434 1.326125 -0.486309
75.078125 1.842784 1.436134 -0.40665
75.71875 1.830966 1.404466 -0.4265
76.36328125 1.816725 1.472002 -0.344723
77.01171875 1.891596 1.736672 -0.154924
77.6796875 1.869285 1.644285 -0.225
78.3203125 1.938882 1.633882 -0.305
78.953125 1.8189279999999999 1.473928 -0.345
79.59765625 1.811045 1.441208 -0.369837
80.265625 1.818572 1.438591 -0.379981
80.91015625 1.775465 1.431461 -0.344004
81.546875 1.7695940000000001 1.502073 -0.267521
82.1875 1.821032 1.582882 -0.23815
82.84765625 1.794418 1.579418 -0.215
83.48828125 1.831084 1.611208 -0.219876
84.14453125 1.777891 1.539454 -0.238437
84.78515625 1.822995 1.578009 -0.244986
85.4296875 1.882517 1.617524 -0.264993
86.05859375 1.841521 1.588449 -0.253072
86.71484375 1.825416 1.590584 -0.234832
87.3671875 1.880658 1.761214 -0.119444
88.01171875 1.9378570000000002 1.808502 -0.129355
88.63671875 2.0667720000000003 1.752202 -0.31457
89.2734375 1.870261 1.475261 -0.395
89.90625 1.816362 1.381609 -0.434753
90.5625 1.878527 1.454679 -0.423848
91.21484375 1.886323 1.537245 -0.349078
91.84765625 1.893004 1.633988 -0.259016
92.47265625 1.981592 1.678911 -0.302681
93.109375 1.954926 1.529926 -0.425
93.76953125 1.846781 1.304848 -0.541933
94.41015625 1.8102489999999998 1.372051 -0.438198
95.046875 1.903204 1.669274 -0.23393
95.66796875 1.953925 1.693925 -0.26
96.31640625 1.9721730000000002 1.507786 -0.464387
96.95703125 1.882603 1.352135 -0.530468
97.61328125 1.876383 1.370874 -0.505509
98.26171875 1.952005 1.597216 -0.354789
98.90234375 1.971661 1.653513 -0.318148
99.53515625 1.932955 1.512955 -0.42
100.1953125 1.8837110000000001 1.510026 -0.373685
100.85546875 1.857516 1.605583 -0.251933
101.50390625 1.922617 1.647701 -0.274916
102.1328125 1.893731 1.543905 -0.349826
102.7734375 1.8395519999999999 1.485229 -0.354323
103.40234375 1.851399 1.581399 -0.27
104.0546875 1.8676970000000002 1.674279 -0.193418
104.70703125 1.944418 1.679474 -0.264944
105.34375 1.847462 1.558047 -0.289415
105.9765625 1.866647 1.602009 -0.264638
106.625 1.84 1.6 -0.24
107.30078125 1.8918540000000001 1.578583 -0.313271
107.9453125 1.8821530000000002 1.517481 -0.364672
108.58203125 1.8317320000000001 1.483011 -0.348721
109.23046875 1.888153 1.529955 -0.358198
109.8828125 1.8437189999999999 1.475571 -0.368148
110.52734375 1.894408 1.524418 -0.36999
111.1796875 1.876471 1.581471 -0.295
111.8359375 1.935482 1.734549 -0.200933
112.484375 2.014272 1.674272 -0.34
113.1171875 1.956708 1.586708 -0.37
113.78515625 1.932294 1.52068 -0.411614
114.453125 1.881316 1.395246 -0.48607
115.109375 1.8948490000000002 1.349849 -0.545
115.75 1.884532 1.365 -0.519532
116.39453125 1.923687 1.548719 -0.374968
117.03515625 1.988791 1.54975 -0.439041
117.69140625 1.8976130000000002 1.382613 -0.515
118.37109375 1.851905 1.302244 -0.549661
119.0078125 1.8147579999999999 1.319882 -0.494876
119.63671875 1.938774 1.56918 -0.369594
120.28515625 1.9556 1.6356 -0.32
120.9609375 2.005539 1.589758 -0.415781
121.61328125 1.913699 1.443699 -0.47
122.2421875 1.885872 1.476302 -0.40957
122.875 1.9451239999999999 1.67 -0.275124
123.5234375 1.9575699999999998 1.812898 -0.144672
124.171875 2.029039 1.844039 -0.185
124.8125 2.046226 1.755898 -0.290328
125.453125 1.8422939999999999 1.392294 -0.45
126.08984375 1.724221 1.289259 -0.434962
126.69921875 1.843416 1.563564 -0.279852
127.33203125 1.811609 1.74947 -0.062139
127.99609375 1.9148939999999999 1.626029 -0.288865
128.64453125 1.959966 1.489995 -0.469971
129.28515625 1.807633 1.338776 -0.468857
129.9375 1.740559 1.285887 -0.454672
130.58203125 1.753047 1.308386 -0.444661
131.2421875 1.743194 1.299154 -0.44404
131.90625 1.729733 1.288858 -0.440875
132.54296875 1.721995 1.316995 -0.405
133.18359375 1.7789160000000002 1.453799 -0.325117
133.8359375 1.894679 1.564689 -0.32999
134.515625 1.8666939999999999 1.462135 -0.404559
135.171875 1.8041770000000001 1.359177 -0.445
135.81640625 1.792075 1.288974 -0.503101
136.4609375 1.776682 1.313674 -0.463008
137.12109375 1.826159 1.371159 -0.455
137.79296875 1.850416 1.380416 -0.47
138.46484375 1.8189670000000002 1.438967 -0.38
139.109375 1.901099 1.486099 -0.415
139.75390625 1.8842530000000002 1.464309 -0.419944
140.3984375 1.841544 1.488367 -0.353177
141.078125 1.893254 1.671967 -0.221287
141.73046875 1.9615529999999999 1.684945 -0.276608
142.3828125 1.966258 1.566483 -0.399775
143.0234375 1.861137 1.424487 -0.43665
143.68359375 1.796502 1.356521 -0.439981
144.328125 1.7881740000000002 1.438174 -0.35
144.9921875 1.855552 1.637655 -0.217897
145.64453125 1.9549050000000001 1.789905 -0.165
146.29296875 1.973093 1.644245 -0.328848
146.9296875 1.96024 1.54641 -0.41383
147.609375 1.79542 1.352348 -0.443072
148.265625 1.817205 1.387635 -0.42957
148.9140625 1.879467 1.53462 -0.344847
149.55078125 1.997065 1.697367 -0.299698
150.1953125 1.997283 1.650633 -0.34665
150.83203125 1.928712 1.498788 -0.429924
151.484375 1.93081 1.425922 -0.504888
152.14453125 1.883508 1.340581 -0.542927
152.78515625 1.779791 1.224897 -0.554894
153.41015625 1.807282 1.288205 -0.519077
154.0625 1.8458620000000001 1.430862 -0.415
154.734375 1.940447 1.577947 -0.3625
155.375 1.854288 1.48 -0.374288
156.0 1.872266 1.47 -0.402266
156.640625 1.736164 1.291276 -0.444888
157.2890625 1.804193 1.356693 -0.4475
157.9453125 1.788411 1.393411 -0.395
158.609375 1.878938 1.574902 -0.304036
159.25390625 1.90002 1.555132 -0.344888
159.8984375 1.8729419999999999 1.53327 -0.339672
160.53515625 1.813205 1.478222 -0.334983
161.203125 1.869154 1.584623 -0.284531
161.8515625 1.807697 1.477873 -0.329824
162.4921875 1.862892 1.532892 -0.33
163.12109375 1.914189 1.660769 -0.25342
163.76953125 1.960644 1.82416 -0.136484
164.3984375 1.944735 1.749006 -0.195729
165.046875 1.920808 1.682917 -0.237891
165.6953125 1.966663 1.655882 -0.310781
166.33984375 1.857907 1.487907 -0.37
166.96875 1.831704 1.558632 -0.273072
167.625 1.885 1.655 -0.23
168.29296875 1.889285 1.576915 -0.31237
168.9453125 1.864116 1.456383 -0.407733
169.578125 1.763791 1.336135 -0.427656
170.2265625 1.794846 1.489846 -0.305
170.875 1.8447850000000001 1.465 -0.379785
171.53515625 1.783944 1.27405 -0.509894
172.19921875 1.747395 1.212723 -0.534672
172.83984375 1.8142530000000001 1.290102 -0.524151
173.48828125 1.7608869999999999 1.243814 -0.517073
174.1484375 1.6944430000000001 1.094486 -0.599957
174.83203125 1.764528 1.164983 -0.599545
175.4765625 1.817543 1.321645 -0.495898
176.10546875 1.843978 1.493978 -0.35
176.74609375 1.830822 1.470822 -0.36
177.39453125 1.911808 1.579875 -0.331933
178.04296875 1.848267 1.523538 -0.324729
178.70703125 1.812925 1.419727 -0.393198
179.33984375 1.685368 1.265456 -0.419912
179.984375 1.766156 1.366774 -0.399382
180.6171875 1.7623570000000002 1.441197 -0.32116
181.29296875 1.875891 1.553521 -0.32237
181.9453125 1.790847 1.491038 -0.299809
182.59375 1.7317710000000002 1.418643 -0.313128
183.23828125 1.779753 1.45 -0.329753
183.890625 1.803333 1.534388 -0.268945
184.52734375 1.8806740000000002 1.55289 -0.327784
185.1953125 1.827922 1.413469 -0.414453
185.85546875 1.785579 1.355579 -0.43
186.50390625 1.770366 1.3581 -0.412266
187.12890625 1.7729439999999999 1.367435 -0.405509
187.78125 1.822703 1.408359 -0.414344
188.4453125 1.8341889999999998 1.505771 -0.328418
189.09375 1.919181 1.512669 -0.406512
189.71875 1.856574 1.364668 -0.491906
190.35546875 1.854828 1.339828 -0.515
190.99609375 1.837278 1.342278 -0.495
191.640625 1.813811 1.303811 -0.51
192.296875 1.80975 1.300176 -0.509574
192.92578125 1.855112 1.425346 -0.429766
193.55859375 1.897289 1.528951 -0.368338
194.1953125 1.8622619999999999 1.384785 -0.477477
194.87109375 1.823612 1.249042 -0.57457
195.515625 1.878311 1.282436 -0.595875
196.15234375 1.825158 1.355541 -0.469617
196.78515625 1.848159 1.5356 -0.312559
197.44140625 1.924534 1.514206 -0.410328
198.07421875 1.91765 1.38765 -0.53
198.734375 1.8744489999999998 1.464449 -0.41
199.37890625 1.913668 1.612372 -0.301296
200.01953125 1.689194 1.279975 -0.409219
200.640625 1.241406 0.776406 -0.465
201.296875 0.8878410000000001 0.54 -0.347841
201.95703125 1.2038119999999999 1.003812 -0.2
202.609375 1.282756 1.03284 -0.249916
203.234375 1.209793 0.907474 -0.302319
203.87890625 1.213132 0.898132 -0.315
204.5234375 1.27281 1.083591 -0.189219
205.1875 1.061284 0.962143 -0.099141
205.85546875 0.929824 0.734976 -0.194848
206.5078125 1.31855 0.95355 -0.365
207.1640625 1.599708 1.164979 -0.434729
207.81640625 1.733511 1.249507 -0.484004
208.48828125 1.76228 1.312591 -0.449689
209.140625 1.859264 1.439264 -0.42
209.78515625 1.900088 1.365701 -0.534387
210.42578125 1.8534700000000002 1.267857 -0.585613
211.07421875 1.8094290000000002 1.238142 -0.571287
211.71484375 1.800024 1.260024 -0.54
212.3671875 1.778397 1.213397 -0.565
213.01171875 1.785491 1.275491 -0.51
213.65234375 1.8588930000000001 1.403893 -0.455
214.28125 1.891612 1.507038 -0.384574
214.9375 1.9517060000000002 1.520636 -0.43107
215.59375 1.879534 1.38175 -0.497784
216.24609375 1.889335 1.359765 -0.52957
216.875 1.8050000000000002 1.3 -0.505
217.5234375 1.837731 1.429659 -0.408072
218.171875 1.981254 1.563255 -0.417999
218.83984375 1.8476219999999999 1.377622 -0.47
219.51171875 1.873316 1.359935 -0.513381
220.15234375 1.7668139999999999 1.276822 -0.489992
220.78515625 1.866502 1.453718 -0.412784
221.44921875 1.928071 1.663071 -0.265
222.1171875 1.96806 1.65366 -0.3144
222.765625 1.943983 1.518983 -0.425
223.3984375 1.895122 1.406101 -0.489021
224.046875 1.816101 1.332417 -0.483684
224.69921875 1.8056839999999998 1.406011 -0.399673
225.3515625 1.9130099999999999 1.545329 -0.367681
226.0078125 1.9683869999999999 1.609699 -0.358688
226.65625 1.853004 1.468047 -0.384957
227.29296875 1.868158 1.458158 -0.41
227.93359375 1.867842 1.498912 -0.36893
228.59765625 1.930104 1.67016 -0.259944
229.25390625 1.933326 1.608794 -0.324532
229.90234375 1.907368 1.526916 -0.380452
230.55078125 1.7949460000000002 1.382937 -0.412009
231.20703125 1.8102989999999999 1.400299 -0.41
231.84765625 1.7845620000000002 1.404562 -0.38
232.5078125 1.835668 1.493643 -0.342025
233.17578125 1.914981 1.59 -0.324981
233.828125 1.8836909999999998 1.513691 -0.37
234.46484375 1.807469 1.373016 -0.434453
235.125 1.80558 1.225 -0.58058
235.796875 1.85666 0.654617 -1.202043
236.4453125 1.795145 0.635 -1.160145
237.0703125 1.7426309999999998 1.03785 -0.704781
237.71875 1.801059 1.53611 -0.264949
238.359375 1.824487 1.796618 -0.027869
239.01953125 1.939947 1.974947 0.035
239.69140625 1.9610969999999999 1.919447 -0.04165
240.3359375 1.926135 1.916135 -0.01
240.98046875 1.884848 1.989848 0.105
241.64453125 1.819895 2.014895 0.195
242.33203125 1.8324699999999998 2.09847 0.266
243.0 1.934848 2.155 0.220152
243.6484375 1.97048 2.027765 0.057285
244.30078125 1.825704 1.717924 -0.10778
244.96875 1.759338 1.534669 -0.224669
245.64453125 1.8290639999999998 1.624923 -0.204141
246.3203125 1.875883 1.705883 -0.17
246.9765625 1.837903 1.603154 -0.234749
247.62890625 1.934439 1.608503 -0.325936
248.29296875 1.87886 1.51886 -0.36
248.9765625 1.880651 1.61975 -0.260901
249.63671875 1.9448919999999998 1.707158 -0.237734
250.2890625 1.9640279999999999 1.619028 -0.345
250.94921875 1.896128 1.469645 -0.426483
251.61328125 1.895673 1.376385 -0.519288
252.2890625 1.834715 1.324715 -0.51
252.96875 1.9076419999999998 1.477669 -0.429973
253.6328125 1.92985 1.593215 -0.336635
254.296875 1.908922 1.508922 -0.4
254.9609375 1.898882 1.409097 -0.489785
255.66015625 1.758436 1.248683 -0.509753
256.3203125 1.7902299999999998 1.3377 -0.45253
256.9765625 1.873034 1.508118 -0.364916
257.63671875 1.853735 1.442802 -0.410933
258.3046875 1.7633169999999998 1.328156 -0.435161
258.96875 1.77083 1.37025 -0.40058
259.640625 1.852516 1.552559 -0.299957
260.29296875 1.976594 1.681594 -0.295
260.9453125 1.877984 1.511501 -0.366483
261.6015625 1.820962 1.410962 -0.41
262.28515625 1.8722489999999998 1.442249 -0.43
262.94921875 1.889297 1.494723 -0.394574
263.6015625 1.955017 1.63518 -0.319837
264.25 1.967143 1.76 -0.207143
264.91796875 2.013868 1.708868 -0.305
265.578125 1.9808919999999999 1.646142 -0.33475
266.25 1.8777329999999999 1.575 -0.302733
266.91796875 1.836187 1.511361 -0.324826
267.5703125 1.887103 1.499878 -0.387225
268.21484375 1.890646 1.471321 -0.419325
268.8828125 1.873696 1.403829 -0.469867
269.54296875 1.799575 1.294808 -0.504767
270.1875 1.872857 1.457857 -0.415
270.8203125 1.8940050000000002 1.334005 -0.56
271.46484375 1.938253 1.215463 -0.72279
272.09765625 1.947352 1.141519 -0.805833
272.73828125 1.853425 1.061904 -0.791521
273.38671875 1.838858 1.119682 -0.719176
274.01171875 1.847085 1.247108 -0.599977
274.6328125 1.935323 1.395538 -0.539785
275.26953125 1.9749759999999998 1.469976 -0.505
275.92578125 2.0179020000000003 1.517648 -0.500254
276.5625 2.017348 1.407348 -0.61
277.1875 1.9192879999999999 1.267353 -0.651935
277.81640625 1.8452920000000002 1.279447 -0.565845
278.4609375 1.915452 1.442178 -0.473274
279.10546875 1.959687 1.574855 -0.384832
279.75390625 1.868328 1.439265 -0.429063
280.390625 1.835 1.39 -0.445
281.0234375 1.824329 1.393991 -0.430338
281.64453125 1.7977089999999998 1.429976 -0.367733
282.29296875 1.8356560000000002 1.520666 -0.31499
282.9453125 1.869949 1.584978 -0.284971
283.58984375 1.870981 1.552794 -0.318187
284.20703125 1.825796 1.487007 -0.338789
284.8359375 1.801582 1.48 -0.321582
285.46875 1.833931 1.563931 -0.27
286.125 1.9277840000000002 1.705 -0.222784
286.7890625 1.919171 1.604822 -0.314349
287.41796875 1.86 1.495 -0.365
288.05078125 1.858803 1.454122 -0.404681
288.69921875 1.861552 1.416552 -0.445
289.375 1.834916 1.445 -0.389916
290.015625 1.9112209999999998 1.541518 -0.369703
290.65234375 1.904795 1.468911 -0.435884
291.28515625 1.840954 1.395954 -0.445
291.93359375 1.839404 1.404404 -0.435
292.5703125 1.8420170000000002 1.442017 -0.4
293.22265625 1.825409 1.436971 -0.388438
293.859375 1.8244390000000001 1.369439 -0.455
294.49609375 1.842331 1.362331 -0.48
295.1171875 1.778315 1.414139 -0.364176
295.76953125 1.850422 1.620832 -0.22959
296.4140625 1.899518 1.749789 -0.149729
297.05859375 1.924042 1.649042 -0.275
297.68359375 1.8890580000000001 1.469953 -0.419105
298.32421875 1.8071810000000001 1.343158 -0.464023
298.95703125 1.759614 1.306888 -0.452726
299.60546875 1.854865 1.424989 -0.429876
300.265625 1.836362 1.362651 -0.473711
300.8984375 1.7854180000000002 1.399034 -0.386384
301.54296875 1.9370230000000002 1.672257 -0.264766
302.17578125 1.911633 1.686952 -0.224681
302.85546875 1.865475 1.535573 -0.329902
303.4921875 1.822686 1.44288 -0.379806
304.12890625 1.771078 1.44179 -0.329288
304.765625 1.7743769999999999 1.494427 -0.27995
305.41796875 1.823606 1.543925 -0.279681
306.0546875 1.813159 1.479136 -0.334023
306.71484375 1.826101 1.469957 -0.356144
307.3671875 1.7987069999999998 1.436173 -0.362534
308.015625 1.850082 1.487074 -0.363008
308.63671875 1.8630470000000001 1.493759 -0.369288
309.3046875 1.7724700000000002 1.38247 -0.39
309.96875 1.7629800000000002 1.314839 -0.448141
310.62109375 1.680006 1.271878 -0.408128
311.25390625 1.62398 1.264126 -0.359854
311.90234375 1.6215970000000002 1.27252 -0.349077
312.5546875 1.664136 1.264136 -0.4
313.22265625 1.622352 1.167861 -0.454491
313.890625 1.700395 1.275417 -0.424978
314.5546875 1.715996 1.401315 -0.314681
315.19921875 1.717493 1.332549 -0.384944
315.8671875 1.756642 1.306642 -0.45
316.54296875 1.7255749999999999 1.256959 -0.468616
317.203125 1.639624 1.247788 -0.391836
317.83984375 1.691335 1.389407 -0.301928
318.4921875 1.823556 1.448803 -0.374753
319.1484375 1.756679 1.321685 -0.434994
319.8203125 1.684483 1.224483 -0.46
320.484375 1.800794 1.406379 -0.394415
321.125 1.9000000000000001 1.61 -0.29
321.7734375 1.8729449999999999 1.577983 -0.294962
322.4296875 1.831715 1.517034 -0.314681
323.109375 1.826277 1.491445 -0.334832
323.76171875 1.7885419999999999 1.488654 -0.299888
324.41015625 1.8817510000000002 1.634381 -0.24737
325.05859375 1.837424 1.502424 -0.335
325.72265625 1.893418 1.474578 -0.41884
326.390625 1.855035 1.383473 -0.471562
327.0625 1.8724759999999998 1.43125 -0.441226
327.72265625 2.021776 1.656776 -0.365
328.375 1.9626810000000001 1.59 -0.372681
329.02734375 1.943263 1.508277 -0.434986
329.71484375 1.846063 1.382223 -0.46384
330.3828125 1.827958 1.358603 -0.469355
331.0390625 1.801354 1.449851 -0.351503
331.6796875 1.911876 1.606876 -0.305
332.3359375 1.887683 1.544957 -0.342726
332.9765625 1.888792 1.369003 -0.519789
333.64453125 1.869626 1.669873 -0.199753
334.296875 1.8 1.415 -0.385
334.94921875 1.8837350000000002 0.953679 -0.930056
335.59375 1.637961 0.753438 -0.884523
336.28515625 1.685555 0.910555 -0.775
336.95703125 1.7842129999999998 1.186299 -0.597914
337.625 1.8825479999999999 1.48 -0.402548
338.2734375 1.8800000000000001 1.59 -0.29
338.94140625 1.877989 1.618912 -0.259077
339.58984375 1.827333 1.587333 -0.24
340.2578125 1.80901 1.576657 -0.232353
340.92578125 1.822819 1.612658 -0.210161
341.58203125 1.8399869999999998 1.610043 -0.229944
342.22265625 1.819991 1.610185 -0.209806
342.890625 1.76851 1.574822 -0.193688
343.55859375 1.773591 1.608599 -0.164992
344.21484375 1.772259 1.595361 -0.176898
344.8515625 1.651605 1.361605 -0.29
345.51171875 1.4415939999999998 1.090847 -0.350747
346.16796875 1.3455080000000001 0.951899 -0.393609
346.83984375 1.3808219999999998 1.002336 -0.378486
347.5234375 1.573157 1.223423 -0.349734
348.1875 1.8466040000000001 1.506604 -0.34
348.8359375 1.859183 1.484148 -0.375035
349.51953125 1.796319 1.416329 -0.37999
350.203125 1.835278 1.479377 -0.355901
350.87890625 1.843712 1.601251 -0.242461
351.52734375 1.8660219999999998 1.672413 -0.193609
352.19140625 1.898991 1.549641 -0.34935
352.85546875 1.80057 1.345845 -0.454725
353.54296875 1.7336260000000001 1.258626 -0.475
354.234375 1.67787 1.206379 -0.471491
354.90234375 1.658886 1.211567 -0.447319
355.55859375 1.732732 1.289841 -0.442891
356.23828125 1.655499 1.266899 -0.3886
356.91796875 1.7878699999999998 1.416483 -0.371387
357.59375 1.8031700000000002 1.496145 -0.307025
358.24609375 1.70014 1.421759 -0.278381
358.90625 1.7171349999999999 1.462135 -0.255
359.5625 1.7026489999999999 1.512649 -0.19
360.24609375 1.743549 1.569296 -0.174253
360.9296875 1.799665 1.566734 -0.232931
361.59375 1.746772 1.46587 -0.280902
362.25 1.815 1.545 -0.27
362.94140625 1.792651 1.493077 -0.299574
363.6328125 1.818347 1.469612 -0.348735
364.30859375 1.803545 1.458545 -0.345
364.97265625 1.774711 1.504243 -0.270468
365.6484375 1.769678 1.589766 -0.179912
366.31640625 1.829782 1.649782 -0.18
367.0078125 1.88816 1.703265 -0.184895
367.6953125 1.991279 1.795814 -0.195465
368.36328125 1.9884140000000001 1.668844 -0.31957
369.01953125 1.879732 1.464947 -0.414785
369.70703125 1.79772 1.323501 -0.474219
370.390625 1.7875649999999998 1.296816 -0.490749
371.0625 1.882969 1.347063 -0.535906
371.71875 1.983718 1.459187 -0.524531
372.3828125 1.9521540000000002 1.408228 -0.543926
373.0390625 1.8987030000000003 1.363703 -0.535
373.71484375 1.826199 1.258932 -0.567267
374.40234375 1.748198 1.301329 -0.446869
375.06640625 1.743912 1.408912 -0.335
375.7109375 1.789034 1.60478 -0.184254
376.375 1.8547850000000001 1.8 -0.054785
377.05859375 1.787909 1.722959 -0.06495
377.71484375 1.767557 1.753007 -0.01455
378.34765625 1.859516 1.875375 0.015859
378.98828125 1.865468 1.93 0.064532
379.62890625 1.919833 1.90248 -0.017353
380.28515625 1.8332030000000001 1.694698 -0.138505
380.9453125 1.788252 1.538295 -0.249957
381.5859375 1.802595 1.484243 -0.318352
382.21875 1.7053829999999999 1.360833 -0.34455
382.8671875 1.7713590000000001 1.45524 -0.316119
383.5390625 1.7459630000000002 1.484479 -0.261484
384.19140625 1.7692869999999998 1.524287 -0.245
384.8359375 1.773301 1.513731 -0.25957
385.484375 1.771693 1.474193 -0.2975
386.1484375 1.783182 1.519034 -0.264148
386.81640625 1.819022 1.514022 -0.305
387.48046875 1.8015919999999999 1.479901 -0.321691
388.140625 1.817574 1.452658 -0.364916
388.79296875 1.940735 1.626161 -0.314574
389.44140625 1.92897 1.632477 -0.296493
390.11328125 1.903755 1.501255 -0.4025
390.78125 1.817653 1.323068 -0.494585
391.44140625 1.791665 1.273939 -0.517726
392.0859375 1.773831 1.294932 -0.478899
392.7265625 1.739387 1.299387 -0.44
393.375 1.74864 1.38 -0.36864
394.02734375 1.8718620000000001 1.596862 -0.275
394.6953125 1.865082 1.580738 -0.284344
395.3359375 1.859833 1.499979 -0.359854
395.97265625 1.8040720000000001 1.409072 -0.395
396.625 1.7496530000000001 1.37 -0.379653
397.30078125 1.846144 1.534811 -0.311333
397.953125 1.8924320000000001 1.697432 -0.195
398.59765625 1.937754 1.730254 -0.2075
399.24609375 1.922262 1.735334 -0.186928
399.90234375 1.928677 1.641652 -0.287025
400.5703125 1.774149 1.516289 -0.25786
401.25390625 1.726561 1.893165 0.166604
401.90625 1.6286010000000002 2.548912 0.920311
402.55078125 1.208047 2.848376 1.640329
403.20703125 1.447752 2.29058 0.842828
403.890625 1.626446 1.729227 0.102781
404.54296875 1.69402 1.319827 -0.374193
405.1875 1.6362379999999999 1.016228 -0.62001
405.8359375 1.649327 0.838177 -0.81115
406.50390625 1.678209 0.685131 -0.993078
407.171875 1.651132 0.621132 -1.03
407.84375 1.8178599999999998 0.095179 -1.722681
408.5078125 1.69934 -0.29066 -1.99
409.17578125 1.777235 -0.049417 -1.826652
409.83984375 1.678042 0.194259 -1.483783
410.5390625 1.720996 0.549405 -1.171591
411.203125 1.6892800000000001 0.771525 -0.917755
411.85546875 1.688828 1.004828 -0.684
412.51171875 1.6919810000000002 1.173345 -0.518636
413.1796875 1.730046 1.355046 -0.375
413.8359375 1.722656 1.457666 -0.26499
414.5 1.7137959999999999 1.555 -0.158796
415.16015625 1.77077 1.61578 -0.15499
415.8125 1.79965 1.656549 -0.143101
416.453125 1.7563710000000001 1.652371 -0.104
417.12109375 1.79898 1.69898 -0.1
417.7890625 1.889301 1.779594 -0.109707
418.44921875 1.9431289999999999 1.81327 -0.129859
419.09375 1.820759 1.675759 -0.145
419.765625 1.730535 1.562608 -0.167927
420.41796875 1.775755 1.545755 -0.23
421.08984375 1.758176 1.538176 -0.22
421.765625 1.755921 1.574271 -0.18165
422.43359375 1.808039 1.613474 -0.194565
423.08203125 1.838696 1.583696 -0.255
423.7578125 1.77458 1.45458 -0.32
424.4375 1.7813189999999999 1.368949 -0.41237
425.10546875 1.8126609999999999 1.399813 -0.412848
425.74609375 1.863094 1.4931 -0.369994
426.40234375 1.8053789999999998 1.43587 -0.369509
427.0625 1.810909 1.355909 -0.455
427.73046875 1.769945 1.470568 -0.299377
428.4140625 1.894147 1.394147 -0.5
429.07421875 1.8466399999999998 1.285394 -0.561246
429.734375 1.701267 1.169452 -0.531815
430.4296875 1.729136 1.259136 -0.47
431.125 1.799734 1.19 -0.609734
431.8125 1.793095 0.979349 -0.813746
432.4765625 1.701426 0.701651 -0.999775
433.15234375 1.7179730000000002 0.732917 -0.985056
433.8203125 1.689295 0.859486 -0.829809
434.5078125 1.636022 1.028883 -0.607139
435.1875 1.774404 1.386316 -0.388088
435.8515625 1.729932 1.383682 -0.34625
436.51171875 1.713609 1.457359 -0.25625
437.1953125 1.737543 1.557572 -0.179971
437.8671875 1.732574 1.642867 -0.089707
438.5390625 1.7268729999999999 1.913719 0.186846
439.1875 1.85763 2.112949 0.255319
439.84375 1.8207769999999999 2.044215 0.223438
440.4921875 1.8602670000000001 2.035267 0.175
441.15625 1.812105 1.893917 0.081812
441.828125 1.859214 1.794733 -0.064481
442.484375 1.922631 1.867699 -0.054932
443.12109375 1.9298819999999999 1.760028 -0.169854
443.79296875 1.875366 1.582996 -0.29237
444.46484375 1.784423 1.429423 -0.355
445.125 1.77 1.365 -0.405
445.76953125 1.7849350000000002 1.329935 -0.455
446.42578125 1.750213 1.252532 -0.497681
447.078125 1.722984 1.206703 -0.516281
447.7421875 1.798251 1.249814 -0.548437
448.421875 1.87364 1.294372 -0.579268
449.07421875 1.828957 1.243964 -0.584993
449.71484375 1.781522 1.216522 -0.565
450.37890625 1.759473 1.196973 -0.5625
451.0625 1.8045649999999998 1.279386 -0.525179
451.71484375 1.8225 1.32 -0.5025
452.3515625 1.795886 1.295962 -0.499924
452.9921875 1.9491710000000002 1.475969 -0.473202
453.6484375 1.9272340000000001 1.443213 -0.484021
454.3125 1.8105170000000002 1.365517 -0.445
454.984375 1.721689 1.274423 -0.447266
455.62890625 1.8181289999999999 1.398598 -0.419531
456.2734375 1.880887 1.486668 -0.394219
456.92578125 1.8898350000000002 1.444835 -0.445
457.61328125 1.729001 1.242841 -0.48616
458.265625 1.78601 1.362559 -0.423451
458.9140625 1.811778 1.454063 -0.357715
459.5625 1.801327 1.426327 -0.375
460.2265625 1.690965 1.324179 -0.366786
460.8828125 1.760928 1.416396 -0.344532
461.546875 1.792826 1.438803 -0.354023
462.19140625 1.797378 1.409722 -0.387656
462.84375 1.702736 1.292736 -0.41
463.48046875 1.829438 1.444918 -0.38452
464.1484375 1.8389179999999998 1.446651 -0.392267
464.79296875 1.787997 1.342997 -0.445
465.4453125 1.827158 1.377158 -0.45
466.08203125 1.820043 1.385258 -0.434785
466.73046875 1.864642 1.449953 -0.414689
467.36328125 1.772617 1.327763 -0.444854
468.0234375 1.809247 1.337926 -0.471321
468.67578125 1.862673 1.38268 -0.479993
469.32421875 1.860313 1.386045 -0.474268
469.953125 1.758131 1.289619 -0.468512
470.6171875 1.804738 1.318905 -0.485833
471.28125 1.8628090000000002 1.423137 -0.439672
471.93359375 1.8639109999999999 1.498919 -0.364992
472.55859375 1.78409 1.43909 -0.345
473.1953125 1.767084 1.402084 -0.365
473.83203125 1.844684 1.513565 -0.331119
474.484375 1.8377649999999999 1.522765 -0.315
475.14453125 1.8002369999999999 1.499909 -0.300328
475.77734375 1.800619 1.50861 -0.292009
476.3984375 1.94909 1.654404 -0.294686
477.03515625 1.9071960000000001 1.597196 -0.31
477.703125 1.837888 1.532926 -0.304962
478.34375 1.8421440000000002 1.587144 -0.255
478.9765625 1.959954 1.700078 -0.259876
479.609375 1.899534 1.619534 -0.28
480.2578125 1.79585 1.511178 -0.284672
480.8828125 1.844368 1.529444 -0.314924
481.53515625 1.84601 1.511024 -0.334986
482.1875 1.8007900000000001 1.511154 -0.289636
482.83203125 1.831769 1.506984 -0.324785
483.45703125 1.7905030000000002 1.463853 -0.32665
484.11328125 1.785183 1.40043 -0.384753
484.77734375 1.847024 1.44245 -0.404574
485.42578125 1.881509 1.516509 -0.365
486.0546875 1.806675 1.40848 -0.398195
486.703125 1.742438 1.35402 -0.388418
487.34375 1.80947 1.45447 -0.355
488.0 1.879916 1.555 -0.324916
488.65234375 1.848641 1.508651 -0.33999
489.296875 1.747323 1.412337 -0.334986
489.9375 1.831078 1.466375 -0.364703
490.57421875 1.911481 1.593512 -0.317969
491.2421875 1.9026349999999999 1.602901 -0.299734
491.88671875 1.931445 1.586445 -0.345
492.53125 1.8295439999999998 1.454872 -0.374672
493.1640625 1.782843 1.423068 -0.359775
493.8203125 1.807069 1.477079 -0.32999
494.46484375 1.892441 1.638222 -0.254219
495.12109375 1.890175 1.618031 -0.272144
495.78125 1.823938 1.578938 -0.245
496.42578125 1.7303169999999999 1.500317 -0.23
497.0546875 1.778565 1.559488 -0.219077
497.7109375 1.894682 1.684682 -0.21
498.37890625 1.7680230000000001 1.603023 -0.165
499.03515625 1.7449240000000001 1.592502 -0.152422
499.65625 1.78869 1.646885 -0.141805
500.296875 1.833275 1.663701 -0.169574
500.93359375 1.804123 1.619953 -0.18417
501.59375 1.808203 1.573883 -0.23432
502.25 1.894785 1.63 -0.264785
502.88671875 1.866655 1.562146 -0.304509
503.5234375 1.842107 1.517107 -0.325
504.171875 1.824237 1.464256 -0.359981
504.8359375 1.866163 1.529365 -0.336798
505.48046875 1.874847 1.569847 -0.305
506.1171875 1.8097530000000002 1.449753 -0.36
506.7578125 1.808829 1.430511 -0.378318
507.40625 1.8883889999999999 1.503858 -0.384531
508.05078125 1.808662 1.433049 -0.375613
508.70703125 1.693668 1.339098 -0.35457
509.3515625 1.77533 1.42033 -0.355
509.98828125 1.89583 1.526738 -0.369092
510.62109375 1.8099379999999998 1.430084 -0.379854
511.2734375 1.729949 1.369949 -0.36
511.91796875 1.7974839999999999 1.488011 -0.309473
512.55078125 1.744506 1.397924 -0.346582
513.17578125 1.716354 1.325045 -0.391309
513.80859375 1.798328 1.474718 -0.32361
514.4375 1.784006 1.515266 -0.26874
515.08203125 1.792055 1.53227 -0.259785
515.7421875 1.834609 1.599609 -0.235
516.3671875 1.8312869999999999 1.595287 -0.236
516.9921875 1.79649 1.576658 -0.219832
517.63671875 1.7734130000000001 1.520486 -0.252927
518.3046875 1.820364 1.595364 -0.225
518.953125 1.8085879999999999 1.618644 -0.189944
519.578125 1.791443 1.578279 -0.213164
520.2109375 1.878196 1.649785 -0.228411
520.85546875 1.830006 1.556568 -0.273438
521.4921875 1.796688 1.546688 -0.25
522.1328125 1.7555999999999998 1.473148 -0.282452
522.76953125 1.7378460000000002 1.474919 -0.262927
523.39453125 1.7428379999999999 1.489947 -0.252891
524.01171875 1.793933 1.538205 -0.255728
524.66015625 1.791596 1.432987 -0.358609
525.3125 1.708567 1.354719 -0.353848
525.94921875 1.745712 1.401076 -0.344636
526.56640625 1.8422420000000002 1.512242 -0.33
527.19921875 1.8429740000000001 1.522974 -0.32
527.8359375 1.770197 1.459037 -0.31116
528.484375 1.8417599999999998 1.546816 -0.294944
529.14453125 1.801791 1.514525 -0.287266
529.77734375 1.833224 1.531392 -0.301832
530.40625 1.761757 1.461767 -0.29999
531.05859375 1.814222 1.519229 -0.294993
531.7265625 1.809884 1.541759 -0.268125
532.37109375 1.863634 1.609296 -0.254338
533.0 1.8371080000000002 1.58 -0.257108
533.640625 1.714245 1.454245 -0.26
534.28125 1.743917 1.473917 -0.27
534.9296875 1.863319 1.593319 -0.27
535.57421875 1.7820559999999999 1.522092 -0.259964
536.2109375 1.714263 1.455 -0.259263
536.83984375 1.72587 1.470902 -0.254968
537.46875 1.818938 1.536041 -0.282897
538.125 1.813301 1.52 -0.293301
538.7734375 1.757109 1.428948 -0.328161
539.4140625 1.697579 1.349384 -0.348195
540.046875 1.7102769999999998 1.361136 -0.349141
540.67578125 1.756914 1.409154 -0.34776
541.3046875 1.854652 1.492395 -0.362257
541.9609375 1.891706 1.485587 -0.406119
542.62890625 1.812631 1.403019 -0.409612
543.265625 1.7586979999999999 1.339902 -0.418796
543.890625 1.8395800000000002 1.432889 -0.406691
544.54296875 1.8427799999999999 1.452812 -0.389968
545.2109375 1.7938939999999999 1.354873 -0.439021
545.85546875 1.818197 1.344848 -0.473349
546.48046875 1.810643 1.344903 -0.46574
547.12109375 1.783398 1.386254 -0.397144
547.76171875 1.927128 1.58344 -0.343688
548.40625 1.835078 1.4701 -0.364978
549.06640625 1.853003 1.455312 -0.397691
549.69921875 1.8114160000000001 1.396559 -0.414857
550.328125 1.813159 1.437207 -0.375952
550.96484375 1.9004290000000001 1.597301 -0.303128
551.625 1.924832 1.62 -0.304832
552.265625 1.849898 1.534898 -0.315
552.89453125 1.814863 1.489863 -0.325
553.53125 1.836664 1.547125 -0.289539
554.1796875 1.865201 1.605201 -0.26
554.81640625 1.823811 1.568847 -0.254964
555.4609375 1.77408 1.53993 -0.23415
556.10546875 1.719389 1.44976 -0.269629
556.73828125 1.767718 1.539366 -0.228352
557.359375 1.7650000000000001 1.51 -0.255
558.00390625 1.7187009999999998 1.446748 -0.271953
558.66015625 1.7172 1.3772 -0.34
559.296875 1.739729 1.409729 -0.33
559.91015625 1.738895 1.393895 -0.345
560.53515625 1.6844700000000001 1.30447 -0.38
561.16796875 1.6681650000000001 1.238626 -0.429539
561.8046875 1.7150459999999998 1.305046 -0.41
562.453125 1.707907 1.288737 -0.41917
563.08203125 1.69061 1.261395 -0.429215
563.7109375 1.714255 1.254293 -0.459962
564.3359375 1.778214 1.333338 -0.444876
564.98828125 1.7141279999999999 1.273491 -0.440637
565.64453125 1.694849 1.259849 -0.435
566.28515625 1.6595469999999999 1.257742 -0.401805
566.9140625 1.7497790000000002 1.359779 -0.39
567.546875 1.6895090000000001 1.319509 -0.37
568.1796875 1.723225 1.308225 -0.415
568.8203125 1.683912 1.18392 -0.499992
569.47265625 1.737904 1.262904 -0.475
570.09375 1.7131450000000001 1.278145 -0.435
570.71875 1.702563 1.292778 -0.409785
571.359375 1.73844 1.339264 -0.399176
572.015625 1.775104 1.467627 -0.307477
572.6484375 1.848366 1.548366 -0.3
573.2734375 1.9024839999999998 1.559643 -0.342841
573.90625 1.795352 1.420352 -0.375
574.5546875 1.704954 1.337584 -0.36737
575.203125 1.7015820000000001 1.373901 -0.327681
575.8671875 1.752263 1.517315 -0.234948
576.51171875 1.774332 1.550316 -0.224016
577.1640625 1.744631 1.474631 -0.27
577.81640625 1.73334 1.428369 -0.304971
578.49609375 1.720288 1.420535 -0.299753
579.15625 1.798466 1.510305 -0.288161
579.8203125 1.792308 1.470202 -0.322106
580.47265625 1.745707 1.386537 -0.35917
581.1328125 1.74687 1.425 -0.32187
581.78125 1.841663 1.486663 -0.355
582.44921875 1.773885 1.418885 -0.355
583.12109375 1.7332990000000001 1.393299 -0.34
583.77734375 1.783967 1.479043 -0.304924
584.4140625 1.8697249999999999 1.554725 -0.315
585.08203125 1.753708 1.455781 -0.297927
585.75390625 1.7 1.385 -0.315
586.41796875 1.712302 1.353739 -0.358563
587.06640625 1.714625 1.359647 -0.354978
587.72265625 1.752805 1.402861 -0.349944
588.375 1.7 1.315 -0.385
589.04296875 1.650341 1.290341 -0.36
589.7265625 1.699888 1.34 -0.359888
590.37890625 1.7769309999999998 1.467396 -0.309535
591.015625 1.888337 1.588351 -0.299986
591.6796875 1.859702 1.509732 -0.34997
592.359375 1.8034279999999998 1.440095 -0.363333
593.0078125 1.765978 1.411103 -0.354875
593.640625 1.8011700000000002 1.462166 -0.339004
594.28515625 1.776163 1.418002 -0.358161
594.94140625 1.8172229999999998 1.472414 -0.344809
595.59375 1.864312 1.564312 -0.3
596.25 1.889288 1.58 -0.309288
596.88671875 1.889472 1.589747 -0.299725
597.53515625 1.765882 1.401507 -0.364375
598.18359375 1.769786 1.394786 -0.375
598.8671875 1.77851 1.463634 -0.314876
599.51953125 1.76993 1.459937 -0.309993
600.17578125 1.7026530000000002 1.372192 -0.330461
600.82421875 1.736244 1.387846 -0.348398
601.49609375 1.8373739999999998 1.522992 -0.314382
602.16015625 1.811974 1.447245 -0.364729
602.8359375 1.768202 1.393202 -0.375
603.49609375 1.830577 1.441905 -0.388672
604.15625 1.902812 1.503955 -0.398857
604.80859375 1.776272 1.378902 -0.39737
605.4921875 1.780617 1.381441 -0.399176
606.15234375 1.851353 1.438103 -0.41325
606.8203125 1.847215 1.398225 -0.44899
607.46875 1.752811 1.343491 -0.40932
608.1328125 1.739476 1.329145 -0.410331
608.78125 1.837711 1.433711 -0.404
609.453125 1.857977 1.458248 -0.399729
610.11328125 1.747651 1.365626 -0.382025
610.7734375 1.7147620000000001 1.325741 -0.389021
611.4140625 1.768483 1.414479 -0.354004
612.08984375 1.7284389999999998 1.349084 -0.379355
612.7578125 1.682939 1.334814 -0.348125
613.41796875 1.666342 1.29327 -0.373072
614.0625 1.75648 1.392522 -0.363958
614.72265625 1.804238 1.429238 -0.375
615.3671875 1.700172 1.335483 -0.364689
616.03515625 1.692151 1.327577 -0.364574
616.69921875 1.792552 1.477777 -0.314775
617.3515625 1.795577 1.492244 -0.303333
617.98828125 1.811754 1.485155 -0.326599
618.6640625 1.777978 1.424293 -0.353685
619.3359375 1.7794429999999999 1.467129 -0.312314
619.98828125 1.8360509999999999 1.506589 -0.329462
620.625 1.748512 1.395 -0.353512
621.27734375 1.756163 1.386163 -0.37
621.92578125 1.7808130000000002 1.407372 -0.373441
622.58984375 1.8799230000000002 1.489942 -0.389981
623.26171875 1.856633 1.462914 -0.393719
623.91015625 1.72644 1.35144 -0.375
624.546875 1.694848 1.311018 -0.38383
625.20703125 1.811646 1.396646 -0.415
625.89453125 1.807916 1.364844 -0.443072
626.55078125 1.765439 1.335439 -0.43
627.1875 1.866789 1.437773 -0.429016
627.84375 1.806279 1.346311 -0.459968
628.5 1.775 1.365 -0.41
629.1640625 1.755454 1.373548 -0.381906
629.8359375 1.874341 1.544397 -0.329944
630.48828125 1.886241 1.518169 -0.368072
631.140625 1.822552 1.404583 -0.417969
631.7890625 1.7681330000000002 1.399979 -0.368154
632.46875 1.884365 1.525273 -0.359092
633.12890625 1.8664079999999998 1.494141 -0.372267
633.7734375 1.76863 1.422937 -0.345693
634.42578125 1.799811 1.489811 -0.31
635.0859375 1.836661 1.511675 -0.324986
635.75 1.7553610000000002 1.425 -0.330361
636.421875 1.767779 1.469005 -0.298774
637.0703125 1.7883879999999999 1.503388 -0.285
637.72265625 1.819515 1.499579 -0.319936
638.375 1.773711 1.435 -0.338711
639.0546875 1.734478 1.359792 -0.374686
639.7109375 1.752022 1.362147 -0.389875
640.359375 1.798308 1.40499 -0.393318
640.9921875 1.724318 1.404565 -0.319753
641.6484375 1.787269 1.438118 -0.349151
642.2890625 1.734265 1.369265 -0.365
642.9453125 1.7803039999999999 1.421447 -0.358857
643.5859375 1.914848 1.524848 -0.39
644.2265625 1.883132 1.453132 -0.43
644.8515625 1.8856540000000002 1.43792 -0.447734
645.51171875 1.880538 1.420383 -0.460155
646.1640625 1.853439 1.424979 -0.42846
646.8125 1.847963 1.422963 -0.425
647.44140625 1.849262 1.479723 -0.369539
648.0859375 1.944412 1.589931 -0.354481
648.72265625 1.7891029999999999 1.489568 -0.299535
649.390625 1.791355 1.45214 -0.339215
650.05859375 1.908268 1.559467 -0.348801
650.71484375 1.914658 1.609658 -0.305
651.35546875 1.853693 1.468693 -0.385
652.02734375 1.885808 1.32487 -0.560938
652.703125 1.888449 1.294162 -0.594287
653.359375 1.887902 1.420722 -0.46718
653.9921875 1.984093 1.56918 -0.414913
654.6484375 1.957964 1.51337 -0.444594
655.29296875 1.896877 1.457398 -0.439479
655.9453125 2.036502 1.743357 -0.293145
656.60546875 1.956104 1.636104 -0.32
657.2421875 2.027037 1.605516 -0.421521
657.87890625 1.8793549999999999 1.50914 -0.370215
658.515625 1.9546970000000001 1.639785 -0.314912
659.1875 1.881949 1.452174 -0.429775
659.83984375 1.9239789999999999 1.481871 -0.442108
660.48046875 1.916841 1.474947 -0.441894
661.109375 1.9180650000000001 1.491807 -0.426258
661.76953125 1.8969170000000002 1.419863 -0.477054
662.41796875 1.865043 1.390043 -0.475
663.078125 1.890165 1.431967 -0.458198
663.734375 1.94919 1.478859 -0.470331
664.3828125 1.889643 1.434699 -0.454944
665.015625 1.813559 1.410825 -0.402734
665.69140625 1.89402 1.474339 -0.419681
666.359375 1.908375 1.428487 -0.479888
667.01953125 1.8393950000000001 1.389914 -0.449481
667.65234375 1.857286 1.481353 -0.375933
668.296875 1.897533 1.499372 -0.398161
668.9375 1.839524 1.444524 -0.395
669.59765625 1.810423 1.430804 -0.379619
670.25390625 1.890026 1.600026 -0.29
670.90234375 1.918948 1.589871 -0.329077
671.53515625 1.830015 1.465465 -0.36455
672.19140625 1.874231 1.529595 -0.344636
672.859375 1.841514 1.496807 -0.344707
673.51171875 1.868525 1.498699 -0.369826
674.1484375 1.8794460000000002 1.509446 -0.37
674.79296875 1.8348559999999998 1.536695 -0.298161
675.44140625 1.885036 1.554708 -0.330328
676.10546875 1.834868 1.464982 -0.369886
676.76171875 1.797642 1.467228 -0.330414
677.41015625 1.8572879999999998 1.562288 -0.295
678.0546875 1.941495 1.546495 -0.395
678.69921875 1.851855 1.378754 -0.473101
679.359375 1.797513 1.384979 -0.412534
679.99609375 1.8454890000000002 1.435683 -0.409806
680.6328125 1.843489 1.430833 -0.412656
681.26171875 1.820862 1.496073 -0.324789
681.8984375 1.779578 1.696158 -0.08342
682.5234375 1.80393 1.82286 0.01893
683.17578125 1.945972 1.783125 -0.162847
683.8359375 1.929325 1.594325 -0.335
684.47265625 1.8705189999999998 1.330766 -0.539753
685.10546875 1.75474 1.189881 -0.564859
685.76953125 1.753842 1.244821 -0.509021
686.4453125 1.774343 1.319343 -0.455
687.09765625 1.802942 1.357942 -0.445
687.72265625 1.7712620000000001 1.421408 -0.349854
688.37109375 1.8764790000000002 1.62722 -0.249259
689.015625 1.872605 1.647933 -0.224672
689.6796875 1.922589 1.602589 -0.32
690.3359375 1.79657 1.472742 -0.323828
690.98046875 1.849634 1.624945 -0.224689
691.6171875 1.840299 1.665808 -0.174491
692.265625 1.832832 1.614528 -0.218304
692.94140625 1.874587 1.644587 -0.23
693.5859375 1.903836 1.694715 -0.209121
694.22265625 1.930916 1.785916 -0.145
694.87890625 1.953462 1.658462 -0.295
695.54296875 1.8980670000000002 1.565101 -0.332966
696.19921875 1.8535590000000002 1.59393 -0.259629
696.859375 1.925362 1.783464 -0.141898
697.5234375 1.9216069999999998 1.626607 -0.295
698.18359375 1.868748 1.518748 -0.35
698.8359375 1.844909 1.541667 -0.303242
699.51171875 1.9835699999999998 1.72857 -0.255
700.18359375 1.934243 1.579243 -0.355
700.83984375 1.907527 1.554146 -0.353381
701.48828125 2.004616 1.714909 -0.289707
702.1484375 1.9832940000000001 1.654935 -0.328359
702.80859375 1.93639 1.567774 -0.368616
703.46875 1.919159 1.563244 -0.355915
704.12890625 1.9634690000000001 1.673539 -0.28993
704.77734375 2.0474740000000002 1.698612 -0.348862
705.421875 1.985903 1.566826 -0.419077
706.08984375 1.965627 1.595466 -0.370161
706.76171875 2.0119190000000002 1.746995 -0.264924
707.421875 1.981141 1.611141 -0.37
708.05859375 1.9951349999999999 1.613553 -0.381582
708.7109375 1.993498 1.741671 -0.251827
709.35546875 2.0459870000000002 1.769487 -0.2765
710.03515625 1.915958 1.572286 -0.343672
710.70703125 1.9118549999999999 1.576601 -0.335254
711.3515625 2.0184610000000003 1.728682 -0.289779
712.0 1.95518 1.505 -0.45018
712.6640625 1.8640130000000001 1.404384 -0.459629
713.3359375 1.909904 1.514904 -0.395
713.98828125 1.9649450000000002 1.612165 -0.35278
714.625 1.908148 1.54 -0.368148
715.26953125 1.832617 1.464961 -0.367656
715.91015625 1.727462 1.503009 -0.224453
716.56640625 1.784009 1.474435 -0.309574
717.234375 1.871068 1.506138 -0.36493
717.8671875 1.83782 1.472904 -0.364916
718.5 1.8393199999999998 1.44 -0.39932
719.15234375 1.842504 1.417616 -0.424888
719.82421875 1.848125 1.488125 -0.36
720.4609375 1.867565 1.492603 -0.374962
721.09765625 1.883422 1.433546 -0.449876
721.75390625 1.838066 1.348066 -0.49
722.40625 1.8414609999999998 1.397703 -0.443758
723.06640625 1.9187640000000001 1.528793 -0.389971
723.734375 1.881307 1.437828 -0.443479
724.390625 1.8221880000000001 1.386827 -0.435361
725.04296875 1.848266 1.441695 -0.406571
725.69140625 1.898135 1.538135 -0.36
726.375 1.8369330000000001 1.395 -0.441933
727.03515625 1.782599 1.305763 -0.476836
727.6796875 1.797041 1.342387 -0.454654
728.3203125 1.914443 1.549655 -0.364788
728.97265625 1.919254 1.484585 -0.434669
729.62109375 1.8568920000000002 1.349358 -0.507534
730.28125 1.84375 1.41375 -0.43
730.9375 1.935943 1.541214 -0.394729
731.5859375 1.921275 1.359517 -0.561758
732.22265625 1.847371 1.274871 -0.5725
732.88671875 1.8857730000000001 1.460773 -0.425
733.5546875 1.90247 1.40747 -0.495
734.20703125 1.8516730000000001 1.212657 -0.639016
734.83984375 1.785385 1.196169 -0.589216
735.48046875 1.8848090000000002 1.424897 -0.459912
736.12109375 1.862921 1.327921 -0.535
736.77734375 1.768713 1.164562 -0.604151
737.43359375 1.7953549999999998 1.265377 -0.529978
738.07421875 1.808367 1.422058 -0.386309
738.70703125 1.838508 1.338733 -0.499775
739.35546875 1.78102 1.183955 -0.597065
740.01953125 1.778568 1.274814 -0.503754
740.65625 1.820105 1.475105 -0.345
741.28515625 1.829645 1.394645 -0.435
741.92578125 1.779924 1.286823 -0.493101
742.56640625 1.7952149999999998 1.413633 -0.381582
743.23046875 1.8408470000000001 1.460847 -0.38
743.89453125 1.817128 1.384989 -0.432139
744.53515625 1.8171220000000001 1.420508 -0.396614
745.171875 1.825067 1.440067 -0.385
745.82421875 1.819216 1.389131 -0.430085
746.5 1.894854 1.44 -0.454854
747.1484375 1.867483 1.427483 -0.44
747.796875 1.888058 1.378283 -0.509775
748.4375 1.8158820000000002 1.331136 -0.484746
749.0859375 1.909253 1.517163 -0.39209
749.7265625 1.870452 1.387119 -0.483333
750.38671875 1.86917 1.34917 -0.52
751.0390625 1.839639 1.429639 -0.41
751.67578125 1.9119700000000002 1.43697 -0.475
752.30078125 1.881176 1.351205 -0.529971
752.953125 1.906225 1.423064 -0.483161
753.609375 1.960122 1.452996 -0.507126
754.2578125 1.927877 1.334158 -0.593719
754.88671875 1.952836 1.342273 -0.610563
755.5234375 1.932146 1.298289 -0.633857
756.16015625 1.859229 1.25438 -0.604849
756.80859375 1.897002 1.348317 -0.548685
757.48046875 1.945764 1.575296 -0.370468
758.12109375 1.974551 1.384551 -0.59
758.7578125 1.9691649999999998 1.343451 -0.625714
759.41015625 1.997383 1.446586 -0.550797
760.09765625 2.010325 1.630488 -0.379837
760.74609375 1.99223 1.49223 -0.5
761.38671875 1.994253 1.439909 -0.554344
762.03125 1.937507 1.433158 -0.504349
762.69921875 2.010973 1.623503 -0.38747
763.359375 1.951778 1.435767 -0.516011
764.01953125 1.84979 1.360576 -0.489214
764.66796875 1.886616 1.487665 -0.398951
765.3203125 1.96834 1.536508 -0.431832
765.9765625 1.899823 1.469935 -0.429888
766.66015625 1.891057 1.488493 -0.402564
767.328125 2.030909 1.660909 -0.37
767.984375 1.899639 1.434785 -0.464854
768.63671875 1.870075 1.350131 -0.519944
769.3125 1.942922 1.463225 -0.479697
769.97265625 2.012851 1.579726 -0.433125
770.65234375 1.898318 1.393865 -0.504453
771.3203125 1.93396 1.405799 -0.528161
771.98828125 1.907927 1.47 -0.437927
772.63671875 2.006217 1.58374 -0.422477
773.31640625 1.974058 1.520863 -0.453195
773.984375 1.886901 1.371977 -0.514924
774.65234375 1.8809040000000001 1.376451 -0.504453
775.296875 1.898527 1.499619 -0.398908
775.94921875 1.8871850000000001 1.508169 -0.379016
776.6015625 1.912789 1.422983 -0.489806
777.2734375 1.8518629999999998 1.366863 -0.485
777.9453125 1.7982069999999999 1.305046 -0.493161
778.6015625 1.7959340000000001 1.308434 -0.4875
779.2421875 1.833648 1.305162 -0.528486
779.9140625 1.857187 1.369956 -0.487231
780.5859375 1.904414 1.514844 -0.38957
781.24609375 2.008876 1.709142 -0.299734
781.890625 1.957848 1.516016 -0.441832
782.54296875 1.882308 1.373925 -0.508383
783.19140625 1.809417 1.311538 -0.497879
783.859375 1.83366 1.42909 -0.40457
784.53125 1.9347210000000001 1.581909 -0.352812
785.1796875 1.976047 1.515727 -0.46032
785.81640625 1.856684 1.439848 -0.416836
786.4765625 1.83643 1.596651 -0.239779
787.15234375 1.989072 1.794072 -0.195
787.796875 1.883618 1.579274 -0.304344
788.4296875 1.818814 1.4341 -0.384714
789.07421875 1.867995 1.649065 -0.21893
789.7265625 1.824289 1.604289 -0.22
790.38671875 1.883614 1.501712 -0.381902
791.05078125 1.805844 1.411767 -0.394077
791.6875 1.775077 1.401 -0.374077
792.328125 1.868039 1.563652 -0.304387
792.96875 1.9002379999999999 1.495785 -0.404453
793.64453125 1.8949660000000002 1.369995 -0.524971
794.2890625 1.759983 1.22 -0.539983
794.9375 1.844427 1.324679 -0.519748
795.5703125 1.869723 1.467932 -0.401791
796.2265625 1.8835129999999998 1.419007 -0.464506
796.86328125 1.875798 1.333718 -0.54208
797.51171875 1.8325749999999998 1.325469 -0.507106
798.16015625 1.808302 1.317369 -0.490933
798.80078125 1.8090220000000001 1.334022 -0.475
799.41796875 1.78875 1.38876 -0.39999
800.07421875 1.919358 1.649819 -0.269539
800.73046875 1.969921 1.539921 -0.43
801.37890625 1.832155 1.372466 -0.459689
802.0 1.851898 1.395 -0.456898
802.640625 1.91689 1.622991 -0.293899
803.27734375 1.9396309999999999 1.56707 -0.372561
803.9375 1.922963 1.502963 -0.42
804.6015625 1.83425 1.45425 -0.38
805.23828125 1.933648 1.60318 -0.330468
805.87890625 1.946404 1.636404 -0.31
806.53515625 1.9498090000000001 1.559809 -0.39
807.2109375 1.8879549999999998 1.519345 -0.36861
807.86328125 1.9175339999999998 1.63539 -0.282144
808.4921875 1.942752 1.747243 -0.195509
809.1328125 1.974842 1.629912 -0.34493
809.78515625 1.956944 1.544383 -0.412561
810.4453125 1.878469 1.458469 -0.42
811.10546875 1.881149 1.479989 -0.40116
811.734375 1.9096000000000002 1.5696 -0.34
812.375 1.9100000000000001 1.55 -0.36
813.015625 1.861133 1.513477 -0.347656
813.68359375 1.854563 1.53459 -0.319973
814.32421875 1.8767989999999999 1.711855 -0.164944
814.97265625 1.86773 1.923533 0.055803
815.609375 1.8230280000000003 2.615791 0.792763
816.2578125 1.779594 2.464594 0.685
816.8984375 1.796565 1.609446 -0.187119
817.5625 1.7143549999999999 0.989355 -0.725
818.21875 1.6938179999999998 0.743818 -0.95
818.87109375 1.7779569999999998 0.714576 -1.063381
819.5078125 1.7513830000000001 0.651453 -1.09993
820.17578125 1.8001239999999998 0.851047 -0.949077
820.8359375 1.798566 1.039552 -0.759014
821.48828125 1.779744 1.221307 -0.558437
822.13671875 1.8475920000000001 1.385583 -0.462009
822.79296875 1.8283150000000001 1.413315 -0.415
823.4296875 1.8185470000000001 1.448547 -0.37
824.09765625 1.803286 1.562717 -0.240569
824.76953125 1.8486470000000002 1.674808 -0.173839
825.421875 1.856818 1.642279 -0.214539
826.0625 1.813846 1.589483 -0.224363
826.734375 1.810231 1.571477 -0.238754
827.41796875 1.795058 1.620058 -0.175
828.08984375 1.7814699999999999 1.546546 -0.234924
828.734375 1.830628 1.576058 -0.25457
829.40234375 1.741402 1.484049 -0.257353
830.06640625 1.84853 1.584845 -0.263685
830.75 1.79 1.475 -0.315
831.43359375 1.815739 1.467959 -0.34778
832.1015625 1.786132 1.438272 -0.34786
832.75 1.8832579999999999 1.555 -0.328258
833.4375 1.8469350000000002 1.466935 -0.38
834.1171875 1.836079 1.466509 -0.36957
834.7890625 1.7892929999999998 1.489723 -0.29957
835.43359375 1.791623 1.382693 -0.40893
836.08984375 1.7994210000000002 1.414589 -0.384832
836.73828125 1.820153 1.502228 -0.317925
837.41015625 1.855496 1.565496 -0.29
838.08203125 1.789073 1.404129 -0.384944
838.7421875 1.730267 1.358632 -0.371635
839.3828125 1.81603 1.522068 -0.293962
840.05078125 1.819251 1.442964 -0.376287
840.73046875 1.7601040000000001 1.350298 -0.409806
841.3984375 1.664207 1.259676 -0.404531
842.04296875 1.732172 1.422172 -0.31
842.69921875 1.748127 1.443134 -0.304993
843.35546875 1.676322 1.376322 -0.3
844.02734375 1.716842 1.431842 -0.285
844.70703125 1.775058 1.400058 -0.375
845.3125 1.834612 1.335268 -0.499344
845.8984375 1.8555519999999999 1.298001 -0.557551
846.3828125 1.6627169999999998 1.092717 -0.57
846.91796875 1.735015 1.232907 -0.502108
847.3984375 1.676542 1.306542 -0.37
847.859375 1.638686 1.358686 -0.28
848.40625 1.7501659999999999 1.540878 -0.209288
848.953125 1.716772 1.651772 -0.065
849.5390625 1.819765 1.829514 0.009749
850.15234375 1.792253 1.752876 -0.039377
850.7421875 1.7429919999999999 1.715725 -0.027267
851.37890625 1.779658 1.729908 -0.04975
852.01953125 1.8444120000000002 1.709931 -0.134481
852.5703125 1.7380419999999999 1.538468 -0.199574
853.10546875 1.694145 1.459877 -0.234268
853.71875 1.746628 1.497551 -0.249077
854.37109375 1.7556600000000002 1.464541 -0.291119
855.04296875 1.7489629999999998 1.38092 -0.368043
855.70703125 1.770755 1.395755 -0.375
856.3515625 1.762861 1.397899 -0.364962
856.890625 1.783722 1.456455 -0.327267
857.45703125 1.742921 1.389013 -0.353908
858.0859375 1.889217 1.574217 -0.315
858.6171875 1.8546710000000002 1.574456 -0.280215
859.14453125 1.8535570000000001 1.509948 -0.343609
859.71484375 1.919937 1.484937 -0.435
860.265625 1.838463 1.417995 -0.420468
860.7890625 1.704323 1.305 -0.399323
861.27734375 1.684656 1.314724 -0.369932
861.7265625 1.70292 1.36292 -0.34
862.14453125 1.642434 1.309875 -0.332559
862.57421875 1.65356 1.31357 -0.33999
863.015625 1.640695 1.31 -0.330695
863.48046875 1.6232799999999998 1.324976 -0.298304
863.98828125 1.750488 1.580517 -0.169971
864.4140625 1.850583 1.740583 -0.11
864.87109375 1.70884 1.466677 -0.242163
865.328125 1.729727 1.429727 -0.3
865.77734375 1.70678 1.38178 -0.325
866.203125 1.61968 1.244723 -0.374957
866.625 1.730056 1.345 -0.385056
867.07421875 1.597023 1.227068 -0.369955
867.515625 1.5872760000000001 1.261713 -0.325563
867.9375 1.618837 1.338837 -0.28
868.3515625 1.7900399999999999 1.54504 -0.245
868.78515625 1.843498 1.543498 -0.3
869.24609375 1.6970690000000002 1.407145 -0.289924
869.66015625 1.740674 1.435557 -0.305117
870.078125 1.7324110000000001 1.338661 -0.39375
870.47265625 1.7482820000000001 1.392138 -0.356144
870.8828125 1.849475 1.533591 -0.315884
871.87890625 1.925026 1.590026 -0.335
872.60546875 1.996985 1.579841 -0.417144
873.296875 1.8373540000000002 1.372354 -0.465
874.00390625 1.8370410000000001 1.414924 -0.422117
874.703125 1.944394 1.564408 -0.379986
875.390625 1.926856 1.536856 -0.39
876.0546875 1.924585 1.472824 -0.451761
876.734375 1.8655979999999999 1.42 -0.445598
877.41796875 1.902963 1.537963 -0.365
878.10546875 1.859547 1.418714 -0.440833
878.7890625 1.924352 1.469352 -0.455
879.46484375 1.8227060000000002 1.412965 -0.409741
880.1328125 1.89243 1.558767 -0.333663
880.83203125 1.914961 1.484961 -0.43
881.5078125 1.7815919999999998 1.361662 -0.41993
882.171875 1.896344 1.511344 -0.385
882.83984375 1.837895 1.447895 -0.39
883.51953125 1.9162169999999998 1.494908 -0.421309
884.1875 1.8495510000000002 1.458962 -0.390589
884.8671875 1.887298 1.522298 -0.365
885.5390625 1.8863720000000002 1.45479 -0.431582
886.19921875 1.847628 1.402628 -0.445
886.8671875 1.849011 1.434081 -0.41493
887.56640625 1.839652 1.339652 -0.5
888.23828125 1.833603 1.24277 -0.590833
888.90234375 1.942568 1.25678 -0.685788
889.57421875 1.811856 1.096866 -0.71499
890.25 1.814629 1.245 -0.569629
890.921875 1.849262 1.444262 -0.405
891.60546875 1.841978 1.464953 -0.377025
892.2734375 1.774069 1.405557 -0.368512
892.9296875 1.835893 1.496812 -0.339081
893.5859375 1.896378 1.524476 -0.371902
894.28125 1.795174 1.336756 -0.458418
894.94921875 1.774634 1.379634 -0.395
895.59765625 1.835041 1.59335 -0.241691
896.23828125 1.872478 1.690545 -0.181933
896.90625 1.847063 1.502391 -0.344672
897.5625 1.8200020000000001 1.283693 -0.536309
898.2265625 1.812956 1.17815 -0.634806
898.890625 1.7942609999999999 1.183701 -0.61056
899.53515625 1.804894 1.214894 -0.59
900.1875 1.8074020000000002 1.252412 -0.55499
900.8671875 1.857882 1.328148 -0.529734
901.53515625 1.848154 1.37938 -0.468774
902.1875 1.8426719999999999 1.382928 -0.459744
902.828125 1.824195 1.377061 -0.447134
903.48046875 1.864946 1.434946 -0.43
904.12890625 1.7856450000000001 1.425672 -0.359973
904.78515625 1.797831 1.417831 -0.38
905.44140625 1.821015 1.486774 -0.334241
906.08984375 1.857562 1.562292 -0.29527
906.734375 1.840357 1.385357 -0.455
907.40234375 1.815253 1.380253 -0.435
908.06640625 1.859076 1.463779 -0.395297
908.7265625 1.943367 1.633367 -0.31
909.3671875 1.9152550000000002 1.555255 -0.36
910.01953125 1.907398 1.489976 -0.417422
910.671875 1.845955 1.490955 -0.355
911.33984375 1.919698 1.634698 -0.285
912.015625 1.926537 1.504271 -0.422266
912.6640625 1.896029 1.433112 -0.462917
913.30859375 1.860961 1.53128 -0.329681
913.9765625 1.863635 1.570708 -0.292927
914.65234375 1.855207 1.440245 -0.414962
915.31640625 1.781673 1.261673 -0.52
915.95703125 1.83821 1.428416 -0.409794
916.6015625 1.906393 1.513089 -0.393304
917.25 1.832341 1.4 -0.432341
917.91796875 1.764402 1.323673 -0.440729
918.59375 1.8726 1.495273 -0.377327
919.23828125 1.884997 1.585491 -0.299506
919.875 1.89452 1.575 -0.31952
920.53125 1.864166 1.494166 -0.37
921.203125 1.7872350000000001 1.388219 -0.399016
921.8515625 1.870312 1.56286 -0.307452
922.48828125 1.9498419999999999 1.578862 -0.37098
923.140625 1.9383139999999999 1.482244 -0.45607
923.7890625 1.868123 1.40956 -0.458563
924.44921875 1.821436 1.394022 -0.427414
925.11328125 1.8924560000000001 1.552456 -0.34
925.765625 1.906323 1.501491 -0.404832
926.41015625 1.816255 1.408529 -0.407726
927.0625 1.883441 1.539483 -0.343958
927.73828125 1.832725 1.65187 -0.180855
928.38671875 1.882119 1.815959 -0.06616
929.02734375 1.952466 1.717772 -0.234694
929.671875 1.939627 1.584627 -0.355
930.33203125 1.814263 1.409331 -0.404932
930.98828125 1.810396 1.42052 -0.389876
931.640625 1.8542640000000001 1.439264 -0.415
932.29296875 1.804301 1.385616 -0.418685
932.93359375 1.848401 1.464324 -0.384077
933.578125 1.89622 1.641876 -0.254344
934.24609375 1.951223 1.64289 -0.308333
934.91796875 1.904836 1.574836 -0.33
935.57421875 1.9294149999999999 1.54964 -0.379775
936.22265625 1.9315639999999998 1.577618 -0.353946
936.87890625 1.958688 1.691438 -0.26725
937.5390625 1.945757 1.599844 -0.345913
938.21484375 1.83872 1.509185 -0.329535
938.88671875 1.856829 1.536829 -0.32
939.55078125 1.910582 1.673061 -0.237521
940.19921875 1.8489620000000002 1.514941 -0.334021
940.87109375 1.8212929999999998 1.48796 -0.333333
941.55078125 1.83 1.555 -0.275
942.22265625 1.864423 1.644423 -0.22
942.87109375 1.803561 1.524041 -0.27952
943.5234375 1.694417 1.408365 -0.286052
944.171875 1.752196 1.547196 -0.205
944.84375 1.8157930000000002 1.651261 -0.164532
945.5234375 1.8413840000000001 1.571814 -0.26957
946.171875 1.779455 1.518229 -0.261226
946.81640625 1.801945 1.617395 -0.18455
947.49609375 1.867581 1.65222 -0.215361
948.18359375 1.833056 1.503951 -0.329105
948.84375 1.8147790000000001 1.503924 -0.310855
949.49609375 1.893548 1.633548 -0.26
950.15234375 1.861843 1.512499 -0.349344
950.8125 1.7923959999999999 1.402831 -0.389565
951.48046875 1.800346 1.444491 -0.355855
952.1640625 1.889765 1.584765 -0.305
952.80859375 1.8597160000000001 1.479716 -0.38
953.453125 1.751738 1.375156 -0.376582
954.12109375 1.789773 1.505597 -0.284176
954.80078125 1.8497 1.582765 -0.266935
955.45703125 1.8337409999999998 1.458751 -0.37499
956.09375 1.8344850000000001 1.397156 -0.437329
956.73828125 1.862703 1.462763 -0.39994
957.390625 1.834902 1.374902 -0.46
958.05078125 1.809753 1.379753 -0.43
958.72265625 1.838702 1.508702 -0.33
959.37109375 1.886177 1.501177 -0.385
960.015625 1.8293620000000002 1.429362 -0.4
960.6640625 1.843098 1.468098 -0.375
961.34765625 1.856822 1.501822 -0.355
961.99609375 1.852551 1.683616 -0.168935
962.64453125 1.920704 1.881329 -0.039375
963.296875 1.8946319999999999 1.731191 -0.163441
963.9609375 1.8623589999999999 1.527359 -0.335
964.61328125 1.712472 1.277472 -0.435
965.27734375 1.773021 1.363064 -0.409957
965.9453125 1.8097999999999999 1.389808 -0.419992
966.6015625 1.7763060000000002 1.371641 -0.404665
967.24609375 1.775109 1.505589 -0.26952
967.921875 1.81558 1.643021 -0.172559
968.58984375 1.8087179999999998 1.56557 -0.243148
969.25 1.780124 1.435 -0.345124
969.89453125 1.775067 1.394912 -0.380155
970.56640625 1.6895310000000001 1.36 -0.329531
971.23046875 1.86753 1.559937 -0.307593
971.90625 1.8480729999999999 1.528922 -0.319151
972.578125 1.837597 1.428556 -0.409041
973.2578125 1.722736 1.292848 -0.429888
973.9140625 1.819956 1.399956 -0.42
974.609375 1.869141 1.516016 -0.353125
975.29296875 1.901255 1.526911 -0.374344
975.97265625 1.97031 1.48072 -0.48959
976.6328125 1.861822 1.319038 -0.542784
977.31640625 1.8048419999999998 1.266681 -0.538161
977.984375 1.869862 1.414926 -0.454936
978.66796875 1.877571 1.465246 -0.412325
979.33984375 1.900693 1.512545 -0.388148
980.00390625 1.843607 1.468607 -0.375
980.66015625 1.818176 1.453176 -0.365
981.33984375 1.874534 1.529534 -0.345
982.00390625 1.8812250000000001 1.526518 -0.354707
982.66796875 1.917516 1.651877 -0.265639
983.3203125 1.946385 1.636749 -0.309636
983.984375 1.870753 1.435877 -0.434876
984.63671875 1.853301 1.435 -0.418301
985.3125 1.847796 1.417803 -0.429993
985.984375 1.787339 1.399081 -0.388258
986.64453125 1.7929659999999998 1.47 -0.322966
987.29296875 1.846161 1.746974 -0.099187
987.9765625 1.876487 1.718154 -0.158333
988.65234375 1.8461850000000002 1.386376 -0.459809
989.3203125 1.7064810000000001 1.201481 -0.505
989.96875 1.68619 1.274051 -0.412139
990.63671875 1.790397 1.509522 -0.280875
991.28515625 1.761997 1.377051 -0.384946
991.9609375 1.748292 1.34462 -0.403672
992.625 1.7913290000000002 1.415 -0.376329
993.27734375 1.842827 1.489409 -0.353418
993.91796875 1.780275 1.37347 -0.406805
994.59765625 1.7839639999999999 1.313964 -0.47
995.27734375 1.704392 1.319402 -0.38499
995.9375 1.7807719999999998 1.4665 -0.314272
996.578125 1.833341 1.528669 -0.304672
997.23828125 1.8008000000000002 1.402314 -0.398486
997.890625 1.74692 1.337088 -0.409832
998.55859375 1.78411 1.444842 -0.339268
999.23828125 1.859834 1.545131 -0.314703
999.89453125 1.849695 1.459961 -0.389734
1000.5390625 1.7855880000000002 1.405588 -0.38
1001.21484375 1.813628 1.495701 -0.317927
1001.90234375 1.803998 1.528998 -0.275
1002.5703125 1.794443 1.480481 -0.313962
1003.21875 1.812987 1.509669 -0.303318
1003.8671875 1.800435 1.592508 -0.207927
1004.5234375 1.8498780000000001 1.691912 -0.157966
1005.19140625 1.800603 1.568989 -0.231614
1005.87109375 1.754743 1.499321 -0.255422
1006.5234375 1.7389139999999998 1.584161 -0.154753
1007.171875 1.882026 1.716772 -0.165254
1007.84375 1.811227 1.568546 -0.242681
1008.5234375 1.81625 1.559766 -0.256484
1009.1875 1.835771 1.642353 -0.193418
1009.8359375 1.913939 1.609903 -0.304036
1010.4921875 1.79958 1.44458 -0.355
1011.1484375 1.8151389999999998 1.39624 -0.418899
1011.82421875 1.774598 1.355575 -0.419023
1012.51171875 1.813095 1.403236 -0.409859
1013.1640625 1.8102099999999999 1.42 -0.39021
1013.8125 1.884711 1.525044 -0.359667
1014.48046875 1.858359 1.484783 -0.373576
1015.1640625 1.802622 1.414185 -0.388437
1015.8125 1.799808 1.424858 -0.37495
1016.4453125 1.812235 1.46873 -0.343505
1017.08984375 1.772648 1.359864 -0.412784
1017.73828125 1.75279 1.258502 -0.494288
1018.3984375 1.788264 1.333264 -0.455
1019.0703125 1.7893409999999998 1.419341 -0.37
1019.71484375 1.7260050000000002 1.392165 -0.33384
1020.3515625 1.672866 1.327866 -0.345
1021.0078125 1.7493670000000001 1.424714 -0.324653
1021.69140625 1.844578 1.614578 -0.23
1022.33984375 1.881411 1.669092 -0.212319
1022.984375 1.735428 1.360498 -0.37493
1023.640625 1.701206 1.249215 -0.451991
1024.296875 1.7347810000000001 1.383868 -0.350913
1024.95703125 1.861663 1.697642 -0.164021
1025.62890625 1.921142 1.811254 -0.109888
1026.08203125 1.0959910000000002 0.966196 -0.129795
1026.93359375 1.858845 1.473189 -0.385656
1027.5859375 1.844605 1.435584 -0.409021
1028.26171875 1.804124 1.479162 -0.324962
1028.90625 1.8161040000000002 1.576154 -0.23995
1029.55078125 1.939348 1.734809 -0.204539
1030.19140625 1.927422 1.63 -0.297422
1030.8515625 1.909161 1.539161 -0.37
1031.49609375 1.7921710000000002 1.317255 -0.474916
1032.15625 1.7570290000000002 1.222039 -0.53499
1032.80859375 1.860513 1.388786 -0.471727
1033.46484375 1.828442 1.430102 -0.39834
1034.10546875 1.9287869999999998 1.499947 -0.42884
1034.78125 1.912916 1.3993 -0.513616
1035.453125 1.913054 1.364033 -0.549021
1036.11328125 1.906559 1.432983 -0.473576
1036.74609375 1.951732 1.536264 -0.415468
1037.3984375 1.9249999999999998 1.44 -0.485
1038.04296875 1.896809 1.36727 -0.529539
1038.70703125 1.819725 1.374303 -0.445422
1039.36328125 1.8942350000000001 1.496818 -0.397417
1040.00390625 1.867154 1.457701 -0.409453
1040.63671875 1.8507200000000001 1.40572 -0.445
1041.29296875 1.8689930000000001 1.428673 -0.44032
1041.96484375 1.7867769999999998 1.312002 -0.474775
1042.6171875 1.8028920000000002 1.367892 -0.435
1043.24609375 1.8006 1.365132 -0.435468
1043.88671875 1.7541820000000001 1.316829 -0.437353
1044.53125 1.787943 1.350676 -0.437267
1045.19140625 1.731288 1.311288 -0.42
1045.85546875 1.8293359999999999 1.444921 -0.384415
1046.49609375 1.786553 1.407233 -0.37932
1047.13671875 1.8051909999999998 1.4506 -0.354591
1047.78125 1.803089 1.493121 -0.309968
1048.44921875 1.7934430000000001 1.639118 -0.154325
1049.08203125 1.8697110000000001 1.684836 -0.184875
1049.7265625 1.873457 1.598792 -0.274665
1050.36328125 1.813853 1.482889 -0.330964
1051.01171875 1.851868 1.447042 -0.404826
1051.64453125 1.844016 1.294939 -0.549077
1052.30078125 1.8244129999999998 1.417252 -0.407161
1052.9453125 1.876252 1.556589 -0.319663
1053.59375 1.8995 1.345156 -0.554344
1054.2265625 1.854141 1.205 -0.649141
1054.8984375 1.761094 0.96821 -0.792884
1055.55859375 1.811681 1.131681 -0.68
1056.22265625 1.8993449999999998 1.3733 -0.526045
1056.8671875 1.8887660000000002 1.408991 -0.479775
1057.53125 1.8245360000000002 1.239287 -0.585249
1058.1875 1.7399999999999998 1.15 -0.59
1058.86328125 1.7781170000000002 1.328364 -0.449753
1059.55078125 1.820195 1.386047 -0.434148
1060.21484375 1.8172570000000001 1.364109 -0.453148
1060.8515625 1.7897530000000001 1.33 -0.459753
1061.53125 1.7988380000000002 1.359166 -0.439672
1062.21484375 1.8901119999999998 1.544698 -0.345414
1062.87890625 1.875168 1.546284 -0.328884
1063.51953125 1.799185 1.429199 -0.369986
1064.17578125 1.8424049999999998 1.397638 -0.444767
1064.828125 1.7484229999999998 1.329524 -0.418899
1065.50390625 1.765086 1.413382 -0.351704
1066.17578125 1.866654 1.516699 -0.349955
1066.83984375 1.792406 1.342406 -0.45
1067.48828125 1.682531 1.237591 -0.44494
1068.16796875 1.7257609999999999 1.325804 -0.399957
1068.85546875 1.763195 1.439903 -0.323292
1069.52734375 1.740396 1.390406 -0.34999
1070.1796875 1.7325979999999999 1.347584 -0.385014
1070.8515625 1.668655 1.260217 -0.408438
1071.515625 1.785438 1.420857 -0.364581
1072.1953125 1.891578 1.527721 -0.363857
1072.8828125 1.788938 1.403938 -0.385
1073.54296875 1.753051 1.308501 -0.44455
1074.1953125 1.743352 1.333352 -0.41
1074.875 1.883634 1.51 -0.373634
1075.55859375 1.853396 1.428396 -0.425
1076.234375 1.738582 1.254262 -0.48432
1076.8828125 1.809882 1.354882 -0.455
1077.55078125 1.913678 1.481517 -0.432161
1078.21484375 1.800963 1.32403 -0.476933
1078.91015625 1.7558129999999998 1.17824 -0.577573
1079.59765625 1.787105 1.232105 -0.555
1080.265625 1.841891 1.316929 -0.524962
1080.91796875 1.8902100000000002 1.41521 -0.475
1081.6015625 1.76295 1.283118 -0.479832
1082.29296875 1.770946 1.331583 -0.439363
1082.97265625 1.839723 1.464723 -0.375
1083.62109375 1.907266 1.598382 -0.308884
1084.28515625 1.96489 1.67989 -0.285
1084.94140625 1.864147 1.545397 -0.31875
1085.62109375 1.7802980000000002 1.471262 -0.309036
1086.30859375 1.813466 1.473466 -0.34
1086.9609375 1.835685 1.494752 -0.340933
1087.6015625 1.787314 1.497314 -0.29
1088.27734375 1.838702 1.528702 -0.31
1088.94921875 1.832697 1.555344 -0.277353
1089.609375 1.875835 1.605891 -0.269944
1090.2421875 1.857753 1.582854 -0.274899
1090.89453125 1.784931 1.514931 -0.27
1091.5390625 1.830096 1.544026 -0.28607
1092.1953125 1.9642789999999999 1.784279 -0.18
1092.859375 1.870491 1.624658 -0.245833
1093.5078125 1.8519619999999999 1.541078 -0.310884
1094.1484375 1.785339 1.460339 -0.325
1094.8203125 1.8075569999999999 1.364831 -0.442726
1095.51171875 1.767912 1.266655 -0.501257
1096.171875 1.825847 1.398471 -0.427376
1096.80859375 1.8195459999999999 1.599546 -0.22
1097.46875 1.8739290000000002 1.779716 -0.094213
1098.12890625 1.914085 1.609141 -0.304944
1098.8046875 1.903591 1.488591 -0.415
1099.4765625 1.920991 1.354876 -0.566115
1100.13671875 1.84938 1.298312 -0.551068
1100.78515625 1.838195 1.319347 -0.518848
1101.453125 1.876655 1.387693 -0.488962
1102.14453125 1.929031 1.469881 -0.45915
1102.8125 1.8980489999999999 1.538049 -0.36
1103.46484375 1.914218 1.559218 -0.355
1104.12890625 1.910521 1.50707 -0.403451
1104.79296875 1.883759 1.448759 -0.435
1105.4765625 1.874003 1.469003 -0.405
1106.16796875 1.793975 1.424952 -0.369023
1106.8359375 1.856101 1.48 -0.376101
1107.4921875 1.778611 1.443922 -0.334689
1108.171875 1.8699999999999999 1.585 -0.285
1108.86328125 1.9074019999999998 1.662402 -0.245
1109.5390625 1.854906 1.539906 -0.315
1110.1875 1.878049 1.533049 -0.345
1110.84765625 1.879872 1.619872 -0.26
1111.5078125 2.003026 1.891956 -0.11107
1112.19140625 1.9639469999999999 1.738786 -0.225161
1112.875 1.9347530000000002 1.6 -0.334753
1113.53125 1.792532 1.458679 -0.333853
1114.1796875 1.911237 1.706965 -0.204272
1114.859375 1.9739609999999999 1.629085 -0.344876
1115.546875 1.870613 1.379558 -0.491055
1116.2109375 1.834811 1.354811 -0.48
1116.84765625 1.8837199999999998 1.52372 -0.36
1117.51171875 1.876304 1.546304 -0.33
1118.16796875 1.852782 1.385666 -0.467116
1118.84375 1.7867680000000001 1.321768 -0.465
1119.5234375 1.818874 1.458998 -0.359876
1120.17578125 1.768658 1.333658 -0.435
1120.82421875 1.760287 1.228564 -0.531723
1121.48828125 1.7747680000000001 1.326696 -0.448072
1122.171875 1.834506 1.423225 -0.411281
1122.83984375 1.8140399999999999 1.316986 -0.497054
1123.48828125 1.825421 1.270481 -0.55494
1124.1484375 1.7864170000000001 1.34901 -0.437407
1124.80859375 1.868786 1.453786 -0.415
1125.48046875 1.8797799999999998 1.37478 -0.505
1126.16015625 1.8140800000000001 1.309382 -0.504698
1126.8203125 1.903434 1.448843 -0.454591
1127.4765625 1.909592 1.353092 -0.5565
1128.140625 1.787016 1.21214 -0.574876
1128.828125 1.8161 1.431132 -0.384968
1129.50390625 1.907231 1.544188 -0.363043
1130.16015625 1.890212 1.515212 -0.375
1130.8203125 1.9 1.505 -0.395
1131.4921875 1.843363 1.436255 -0.407108
1132.171875 1.866973 1.549728 -0.317245
1132.84765625 1.995508 1.667383 -0.328125
1133.51171875 1.9529359999999998 1.528228 -0.424708
1134.171875 1.88253 1.408262 -0.474268
1134.8359375 1.8541720000000002 1.3845 -0.469672
1135.53125 1.889622 1.524368 -0.365254
1136.19921875 2.009373 1.609405 -0.399968
1136.84765625 1.9193559999999998 1.454581 -0.464775
1137.50390625 1.891277 1.422185 -0.469092
1138.16796875 1.908542 1.473542 -0.435
1138.84375 1.961417 1.499934 -0.461483
1139.51953125 1.96263 1.469915 -0.492715
1140.171875 1.9229910000000001 1.447991 -0.475
1140.82421875 1.889199 1.432715 -0.456484
1141.4921875 1.949533 1.520023 -0.42951
1142.1796875 1.892822 1.445 -0.447822
1142.84375 1.902364 1.398788 -0.503576
1143.50390625 1.870549 1.388616 -0.481933
1144.15625 1.897141 1.492141 -0.405
1144.81640625 1.899271 1.44837 -0.450901
1145.48046875 1.839849 1.394849 -0.445
1146.1484375 1.844487 1.424487 -0.42
1146.80859375 1.824239 1.449239 -0.375
1147.4609375 1.837078 1.504906 -0.332172
1148.10546875 1.881241 1.669995 -0.211246
1148.76953125 1.895829 1.694945 -0.200884
1149.42578125 1.87387 1.494602 -0.379268
1150.08203125 1.923816 1.452035 -0.471781
1150.7265625 1.86018 1.47518 -0.385
1151.37109375 1.8604539999999998 1.570701 -0.289753
1152.015625 1.938765 1.665975 -0.27279
1152.68359375 1.986132 1.583709 -0.402423
1153.35546875 1.919426 1.504856 -0.41457
1154.0078125 1.853575 1.53842 -0.315155
1154.64453125 1.891957 1.674851 -0.217106
1155.31640625 1.9367230000000002 1.639223 -0.2975
1155.98828125 1.903768 1.519479 -0.384289
1156.640625 1.829189 1.494245 -0.334944
1157.26953125 1.904442 1.639989 -0.264453
1157.92578125 2.017777 1.762777 -0.255
1158.57421875 1.927346 1.58236 -0.344986
1159.234375 1.8995259999999998 1.399897 -0.499629
1159.90625 1.826046 1.331283 -0.494763
1160.55078125 1.946463 1.516889 -0.429574
1161.18359375 2.00107 1.635 -0.36607
1161.84375 1.9178510000000002 1.638068 -0.279783
1162.5234375 1.861528 1.572141 -0.289387
1163.1875 1.834706 1.33484 -0.499866
1163.83203125 1.831548 1.166583 -0.664965
1164.49609375 1.751891 1.106891 -0.645
1165.16796875 1.74349 1.116329 -0.627161
1165.85546875 1.817068 1.274962 -0.542106
1166.546875 1.7972139999999999 1.292214 -0.505
1167.21484375 1.780066 1.280066 -0.5
1167.8828125 1.7794050000000001 1.25476 -0.524645
1168.55078125 1.7929140000000001 1.292964 -0.49995
1169.24609375 1.772692 1.300192 -0.4725
1169.91796875 1.8144140000000002 1.385909 -0.428505
1170.5703125 1.767666 1.407695 -0.359971
1171.234375 1.736611 1.382323 -0.354288
1171.8984375 1.833574 1.474359 -0.359215
1172.57421875 1.767138 1.387351 -0.379787
1173.2578125 1.8170320000000002 1.442279 -0.374753
1173.91796875 1.776068 1.386982 -0.389086
1174.57421875 1.8262690000000001 1.417628 -0.408641
1175.25 1.7400000000000002 1.36 -0.38
1175.9453125 1.79502 1.42002 -0.375
1176.62109375 1.815769 1.470769 -0.345
1177.27734375 1.8269630000000001 1.467413 -0.35955
1177.94140625 1.808146 1.443572 -0.364574
1178.60546875 1.834524 1.464895 -0.369629
1179.296875 1.8499999999999999 1.565 -0.285
1179.98828125 1.9419239999999998 1.637158 -0.304766
1180.6484375 1.8636819999999998 1.401074 -0.462608
1181.30078125 1.830538 1.310538 -0.52
1181.984375 1.814259 1.354259 -0.46
1182.67578125 1.846041 1.518671 -0.32737
1183.34375 1.939128 1.70081 -0.238318
1183.9921875 1.926703 1.548688 -0.378015
1184.65234375 1.950574 1.42623 -0.524344
1185.3125 1.781101 1.092773 -0.688328
1185.98828125 1.8092709999999999 1.287402 -0.521869
1186.67578125 1.877076 1.478658 -0.398418
1187.33203125 1.8980230000000002 1.394705 -0.503318
1187.98046875 1.8530330000000002 1.249961 -0.603072
1188.6640625 1.8133689999999998 1.234365 -0.579004
1189.34765625 1.800325 1.315325 -0.485
1190.0078125 1.8411030000000002 1.386103 -0.455
1190.65234375 1.817548 1.438223 -0.379325
1191.3125 1.857927 1.617949 -0.239978
1191.96484375 1.9443810000000001 1.644381 -0.3
1192.62890625 1.9719730000000002 1.548067 -0.423906
1193.3125 1.84635 1.402696 -0.443654
1193.97265625 1.826822 1.386822 -0.44
1194.62109375 1.821139 1.451139 -0.37
1195.2890625 1.830907 1.476132 -0.354775
1195.984375 1.788461 1.431353 -0.357108
1196.64453125 1.8640819999999998 1.519869 -0.344213
1197.2890625 1.797664 1.424904 -0.37276
1197.94921875 1.815076 1.52958 -0.285496
1198.609375 1.9087049999999999 1.76898 -0.139725
1199.28515625 1.9030140000000002 1.658014 -0.245
1199.9765625 1.909519 1.684766 -0.224753
1200.63671875 1.821275 1.532056 -0.289219
1201.2890625 1.7850000000000001 1.405 -0.38
1201.96875 1.907385 1.463047 -0.444338
1202.6640625 1.858444 1.414596 -0.443848
1203.33984375 1.837904 1.368129 -0.469775
1203.984375 1.8331279999999999 1.4 -0.433128
1204.63671875 1.8860000000000001 1.483856 -0.402144
1205.296875 1.84523 1.47023 -0.375
1205.96875 1.982434 1.669306 -0.313128
1206.6484375 1.9786009999999998 1.62956 -0.349041
1207.30859375 2.024782 1.626173 -0.398609
1207.96484375 1.8925429999999999 1.403255 -0.489288
1208.6484375 1.721943 1.182271 -0.539672
1209.3515625 1.7076419999999999 1.184852 -0.52279
1210.0390625 1.7997839999999998 1.314784 -0.485
1210.71484375 1.761647 1.341492 -0.420155
1211.3984375 1.737889 1.390162 -0.347727
1212.0703125 1.769264 1.455201 -0.314063
1212.765625 1.749388 1.414388 -0.335
1213.45703125 1.7993610000000002 1.447642 -0.351719
1214.125 1.8698759999999999 1.565 -0.304876
1214.79296875 1.907056 1.734836 -0.17222
1215.484375 1.994053 1.749053 -0.245
1216.171875 1.950155 1.644075 -0.30608
1216.84765625 1.8017889999999999 1.44606 -0.355729
1217.5234375 1.747627 1.349189 -0.398438
1218.19921875 1.756345 1.381457 -0.374888
1218.8671875 1.8275130000000002 1.522906 -0.304607
1219.55078125 1.882549 1.634354 -0.248195
1220.23046875 1.828019 1.529265 -0.298754
1220.89453125 1.784955 1.444955 -0.34
1221.55078125 1.7125210000000002 1.31 -0.402521
1222.234375 1.695033 1.277889 -0.417144
1222.91796875 1.794528 1.395843 -0.398685
1223.58984375 1.9107210000000001 1.515721 -0.395
1224.2421875 1.802015 1.382015 -0.42
1224.90625 1.768089 1.355305 -0.412784
1225.56640625 1.8190380000000002 1.479038 -0.34
1226.23828125 1.95 1.625 -0.325
1226.91796875 1.894235 1.545405 -0.34883
1227.57421875 1.8428060000000002 1.492814 -0.349992
1228.21875 1.7719770000000001 1.387224 -0.384753
1228.89453125 1.828196 1.419878 -0.408318
1229.57421875 1.86429 1.439759 -0.424531
1230.23828125 1.802126 1.372126 -0.43
1230.8828125 1.768471 1.353596 -0.414875
1231.53125 1.7579690000000001 1.38375 -0.374219
1232.1796875 1.765281 1.420071 -0.34521
1232.83984375 1.752253 1.437282 -0.314971
1233.50390625 1.8000779999999998 1.485078 -0.315
1234.1484375 1.919853 1.649839 -0.270014
1234.7890625 1.8187360000000001 1.519349 -0.299387
1235.44921875 1.786039 1.457898 -0.328141
1236.125 1.8048060000000001 1.53 -0.274806
1236.78125 1.876719 1.581719 -0.295
1237.42578125 1.803409 1.487648 -0.315761
1238.078125 1.892583 1.577583 -0.315
1238.734375 1.835858 1.605858 -0.23
1239.40234375 1.934884 1.738494 -0.19639
1240.07421875 1.821037 1.621783 -0.199254
1240.71875 1.847518 1.624194 -0.223324
1241.3671875 1.768556 1.553668 -0.214888
1242.015625 1.7962660000000001 1.568715 -0.227551
1242.6875 1.89941 1.684439 -0.214971
1243.33203125 1.88136 1.574432 -0.306928
1243.9765625 1.778142 1.428991 -0.349151
1244.61328125 1.805962 1.515269 -0.290693
1245.265625 1.8697970000000002 1.574842 -0.294955
1245.921875 1.832584 1.494824 -0.33776
1246.58984375 1.795475 1.4606 -0.334875
1247.25 1.748634 1.53 -0.218634
1247.90234375 1.770485 1.569905 -0.20058
1248.55078125 1.831705 1.612857 -0.218848
1249.23046875 1.694073 1.41432 -0.279753
1249.890625 1.699583 1.454583 -0.245
1250.546875 1.909825 1.711181 -0.198644
1251.19921875 1.897907 1.767924 -0.129983
1251.859375 1.854797 1.699851 -0.154946
1252.5078125 1.793228 1.588228 -0.205
1253.171875 1.828902 1.65232 -0.176582
1253.8359375 1.954192 1.824601 -0.129591
1254.4921875 1.932404 1.874614 -0.05779
1255.1328125 1.936254 1.833464 -0.10279
1255.8046875 1.794428 1.661471 -0.132957
1256.4765625 1.838288 1.658372 -0.179916
1257.13671875 1.7519140000000002 1.542763 -0.209151
1257.79296875 1.733749 1.460133 -0.273616
1258.46484375 1.711999 1.47214 -0.239859
1259.12109375 1.7388080000000001 1.464298 -0.27451
1259.79296875 1.7316829999999999 1.441997 -0.289686
1260.46875 1.7275449999999999 1.422669 -0.304876
1261.12890625 1.736204 1.436204 -0.3
1261.7734375 1.791155 1.481155 -0.31
1262.4453125 1.73348 1.44848 -0.285
1263.125 1.7449999999999999 1.44 -0.305
1263.78125 1.74359 1.45359 -0.29
1264.42578125 1.786996 1.489216 -0.29778
1265.078125 1.8040559999999999 1.499056 -0.305
1265.73046875 1.856862 1.584929 -0.271933
1266.3984375 1.9190749999999999 1.665012 -0.254063
1267.078125 1.8513870000000001 1.57 -0.281387
1267.73046875 1.7272949999999998 1.434767 -0.292528
1268.375 1.7487190000000001 1.495 -0.253719
1269.04296875 1.822724 1.685998 -0.136726
1269.734375 1.9113909999999998 1.692751 -0.21864
1270.41015625 1.725739 1.442782 -0.282957
1271.06640625 1.6589960000000001 1.31406 -0.344936
1271.734375 1.7113140000000002 1.237996 -0.473318
1272.40234375 1.7293969999999999 1.218484 -0.510913
1273.0859375 1.917073 1.44927 -0.467803
1273.77734375 1.829377 1.753694 -0.075683
1274.44140625 1.791434 1.769079 -0.022355
1275.1015625 1.642968 1.542968 -0.1
1275.7890625 1.6946649999999999 1.534665 -0.16
1276.47265625 1.701017 1.507716 -0.193301
1277.140625 1.681913 1.427484 -0.254429
1277.7890625 1.71993 1.46993 -0.25
1278.4453125 1.819706 1.56 -0.259706
1279.09375 1.8904480000000001 1.570572 -0.319876
1279.76171875 1.8538000000000001 1.478814 -0.374986
1280.44140625 1.781836 1.4 -0.381836
1281.09375 1.7778 1.368093 -0.409707
1281.7421875 1.704387 1.309387 -0.395
1282.42578125 1.8046600000000002 1.3768 -0.42786
1283.11328125 1.747787 1.347843 -0.399944
1283.78515625 1.8149440000000001 1.425729 -0.389215
1284.4453125 1.714798 1.330117 -0.384681
1285.11328125 1.764466 1.404466 -0.36
1285.78125 1.761123 1.379287 -0.381836
1286.4609375 1.8248410000000002 1.449929 -0.374912
1287.15234375 1.75987 1.43487 -0.325
1287.82421875 1.8426420000000001 1.603663 -0.238979
1288.48046875 2.005299 1.795299 -0.21
1289.1640625 1.9876349999999998 1.751132 -0.236503
1289.859375 1.944612 1.666279 -0.278333
1290.53515625 1.814875 1.48989 -0.324985
1291.203125 1.800764 1.45642 -0.344344
1292.5546875 1.810474 1.577017 -0.233457
1293.23828125 1.92699 1.675469 -0.251521
1293.9140625 1.9578220000000002 1.674627 -0.283195
1294.57421875 1.796967 1.482141 -0.314826
1295.2265625 1.751325 1.396325 -0.355
1295.8984375 1.773404 1.456822 -0.316582
1296.56640625 1.825784 1.575784 -0.25
1297.23046875 1.859785 1.559785 -0.3
1297.87890625 1.7347540000000001 1.424754 -0.31
1298.5390625 1.773825 1.474846 -0.298979
1299.19921875 1.85562 1.58562 -0.27
1299.875 1.83116 1.515 -0.31616
1300.5390625 1.732821 1.34966 -0.383161
1301.20703125 1.704854 1.347092 -0.357762
1301.859375 1.885807 1.615891 -0.269916
1302.546875 1.8190110000000002 1.504382 -0.314629
1303.2265625 1.8177079999999999 1.454583 -0.363125
1303.89453125 1.825572 1.430572 -0.395
1304.55078125 1.901761 1.51 -0.391761
1305.2265625 1.819345 1.38997 -0.429375
1305.890625 1.8014320000000001 1.376748 -0.424684
1306.5703125 1.870716 1.485716 -0.385
1307.2421875 1.7779610000000001 1.332961 -0.445
1307.90625 1.759987 1.349987 -0.41
1308.56640625 1.803299 1.393299 -0.41
1309.2578125 1.893666 1.50476 -0.388906
1309.9296875 1.759062 1.374062 -0.385
1310.60546875 1.814816 1.449816 -0.365
1311.26953125 1.864916 1.545572 -0.319344
1311.9453125 1.7236040000000001 1.413604 -0.31
1312.60546875 1.819652 1.454899 -0.364753
1313.28515625 1.832736 1.509377 -0.323359
1313.9609375 1.9096859999999998 1.574979 -0.334707
1314.625 1.851257 1.515 -0.336257
1315.2734375 1.841101 1.501101 -0.34
1315.95703125 1.885172 1.585172 -0.3
1316.62890625 1.9051690000000001 1.576148 -0.329021
1317.29296875 1.829358 1.494358 -0.335
1317.9375 1.87158 1.553045 -0.318535
1318.609375 1.885602 1.524081 -0.361521
1319.26171875 1.8214839999999999 1.426893 -0.394591
1319.93359375 1.842502 1.515852 -0.32665
1320.60546875 1.899596 1.559843 -0.339753
1321.265625 1.841005 1.446786 -0.394219
1321.91796875 1.7243279999999999 1.291342 -0.432986
1322.60546875 1.736233 1.264983 -0.47125
1323.28515625 1.843077 1.388077 -0.455
1323.953125 1.878114 1.444156 -0.433958
1324.6015625 1.839446 1.389446 -0.45
1325.26953125 1.6720709999999999 1.225825 -0.446246
1325.93359375 1.664617 1.353391 -0.311226
1326.60546875 1.6992760000000002 1.434276 -0.265
1327.28125 1.6316229999999998 1.351848 -0.279775
1327.94921875 1.720324 1.372765 -0.347559
1328.58984375 1.8018349999999999 1.476835 -0.325
1329.26953125 1.789848 1.414848 -0.375
1329.94921875 1.783847 1.337011 -0.446836
1330.6171875 1.788767 1.318767 -0.47
1331.26953125 1.880847 1.455847 -0.425
1331.9375 1.828794 1.354122 -0.474672
1332.60546875 1.7992089999999998 1.311084 -0.488125
1333.2890625 1.7270979999999998 1.236646 -0.490452
1333.98046875 1.752236 1.331092 -0.421144
1334.6640625 1.8137880000000002 1.454444 -0.359344
1335.33203125 1.786965 1.471984 -0.314981
1336.02734375 1.790791 1.440897 -0.349894
1336.71875 1.881786 1.576818 -0.304968
1337.41015625 1.804382 1.524382 -0.28
1338.08203125 1.761942 1.521942 -0.24
1338.765625 1.796078 1.529557 -0.266521
1339.4375 1.870887 1.660887 -0.21
1340.1328125 1.8643830000000001 1.644608 -0.219775
1340.81640625 1.7846119999999999 1.584612 -0.2
1341.4921875 1.824172 1.652683 -0.171489
1342.16015625 1.887842 1.738067 -0.149775
1342.859375 1.879203 1.660752 -0.218451
1343.5390625 1.831977 1.545587 -0.28639
1344.21875 1.783771 1.483883 -0.299888
1344.875 1.874719 1.605 -0.269719
1345.55859375 1.8447909999999998 1.539791 -0.305
1346.234375 1.8328200000000001 1.430139 -0.402681
1346.921875 1.6722 1.2422 -0.43
1347.59375 1.7447650000000001 1.263508 -0.481257
1348.265625 1.704 1.196775 -0.507225
1348.921875 1.774916 1.389916 -0.385
1349.6171875 1.858527 1.488527 -0.37
1350.27734375 1.7986469999999999 1.296333 -0.502314
1350.9375 1.6856149999999999 1.080943 -0.604672
1351.58984375 1.725349 1.3 -0.425349
1352.26171875 1.7461229999999999 1.75419 0.008067
1352.91796875 1.6607339999999997 2.072208 0.411474
1353.59765625 1.599869 2.264869 0.665
1354.26171875 1.5041129999999998 2.192843 0.68873
1354.9296875 1.845536 1.844301 -0.001235
1355.58203125 1.510183 1.875476 0.365293
1356.2734375 1.66343 1.414387 -0.249043
1356.9296875 1.863693 0.437079 -1.426614
1357.58203125 1.859923 0.131989 -1.727934
1358.23828125 1.890231 0.385501 -1.50473
1358.9140625 1.834452 0.667138 -1.167314
1359.57421875 1.8398089999999998 0.965 -0.874809
1360.25 1.83 1.17 -0.66
1360.921875 1.781047 1.266047 -0.515
1361.59765625 1.815272 1.378115 -0.437157
1362.265625 1.735439 1.406908 -0.328531
1362.97265625 1.664866 1.784866 0.12
1363.65625 1.7018430000000002 1.971035 0.269192
1364.328125 1.701668 2.01341 0.311742
1364.98046875 1.7149 2.0049 0.29
1365.66015625 1.878411 1.676536 -0.201875
1366.3359375 1.778318 1.604956 -0.173362
1367.01953125 1.7520850000000001 1.489946 -0.262139
1367.67578125 1.767077 1.40447 -0.362607
1368.33984375 1.8064459999999998 1.341716 -0.46473
1369.00390625 1.720068 1.240068 -0.48
1369.7109375 1.7539639999999999 1.239609 -0.514355
1370.390625 1.743672 1.13125 -0.612422
1371.0625 1.9058320000000002 1.030968 -0.874864
1371.73046875 2.030663 1.134918 -0.895745
1372.41015625 1.9598110000000002 0.003181 -1.95663
1373.09765625 1.8475030000000001 0.273961 -1.573542
1373.79296875 1.696034 0.836911 -0.859123
1374.4609375 1.7041369999999998 1.219137 -0.485
1375.1328125 1.741136 1.405808 -0.335328
1375.8125 1.742293 1.472561 -0.269732
1376.51171875 1.693212 1.388212 -0.305
1377.18359375 1.731239 1.558147 -0.173092
1377.84375 1.704028 1.646238 -0.05779
1378.515625 1.660809 1.618468 -0.042341
1379.1875 1.7247430000000001 1.727321 0.002578
1379.86328125 1.749172 1.724219 -0.024953
1380.55859375 1.7736210000000001 1.729791 -0.04383
1381.22265625 1.690998 1.654307 -0.036691
1381.875 1.797266 1.71 -0.087266
1382.54296875 1.845915 1.535915 -0.31
1383.234375 1.747991 1.267991 -0.48
1383.890625 1.724386 1.131602 -0.592784
1384.52734375 1.739008 1.101329 -0.637679
1385.17578125 1.735751 1.140761 -0.59499
1385.82421875 1.7019799999999998 1.147964 -0.554016
1386.48046875 1.7030690000000002 1.289921 -0.413148
1387.1484375 1.689024 1.52861 -0.160414
1387.78515625 1.659804 1.700429 0.040625
1388.41796875 1.6134060000000001 1.733856 0.12045
1389.046875 1.72704 1.868482 0.141442
1389.7109375 1.789672 1.644672 -0.145
1390.34375 1.7362950000000001 1.549811 -0.186484
1390.97265625 1.7751679999999999 1.645168 -0.13
1391.58984375 1.71258 1.413081 -0.299499
1392.234375 1.718439 1.473686 -0.244753
1392.859375 1.793205 1.516775 -0.27643
1393.50390625 1.742885 1.383053 -0.359832
1394.1328125 1.640043 1.255511 -0.384532
1394.76953125 1.736564 1.334983 -0.401581
1395.390625 1.687226 1.222394 -0.464832
1396.03515625 1.683344 1.26377 -0.419574
1396.68359375 1.717768 1.328764 -0.389004
1397.31640625 1.6661650000000001 1.486237 -0.179928
1397.9375 1.6946180000000002 1.454792 -0.239826
1398.56640625 1.5969119999999999 1.312549 -0.284363
1399.203125 1.632387 1.412387 -0.22
1399.8515625 1.592451 1.54333 -0.049121
1400.5078125 1.655418 1.376052 -0.279366
1401.13671875 1.63673 1.381768 -0.254962
1401.77734375 1.7719209999999999 1.550317 -0.221604
1402.421875 1.653662 1.609141 -0.044521
1403.0859375 1.684143 1.724243 0.0401
1403.7265625 1.749775 1.649775 -0.1
1404.36328125 1.5799299999999998 1.33343 -0.2465
1404.9921875 1.6628980000000002 1.338113 -0.324785
1405.640625 1.682998 1.297214 -0.385784
1406.27734375 1.682734 1.27 -0.412734
1406.92578125 1.709901 1.284581 -0.42532
1407.55859375 1.8396660000000002 1.334723 -0.504943
1408.1875 1.8844290000000001 1.354429 -0.53
1408.80078125 1.738813 1.188609 -0.550204
1409.4453125 1.7294520000000002 1.208171 -0.521281
1410.0859375 1.834489 1.254577 -0.579912
1410.71875 1.731858 1.23189 -0.499968
1411.328125 1.6655419999999999 1.266667 -0.398875
1411.94140625 1.69 1.27 -0.42
1412.5546875 1.696172 1.232731 -0.463441
1413.1796875 1.835094 1.325094 -0.51
1413.82421875 1.705402 1.243918 -0.461484
1414.4375 1.747662 1.333704 -0.413958
1415.05078125 1.804613 1.32986 -0.474753
1415.6640625 1.824414 1.379433 -0.444981
1416.31640625 1.8516590000000002 1.416673 -0.434986
1416.94140625 1.839113 1.421691 -0.417422
1417.56640625 1.85244 1.443341 -0.409099
1418.1796875 1.897445 1.463295 -0.43415
1418.80859375 1.836559 1.458501 -0.378058
1419.42578125 1.856794 1.475036 -0.381758
1420.0546875 1.835547 1.435614 -0.399933
1420.6953125 1.75529 1.422575 -0.332715
1421.3046875 1.859699 1.38894 -0.470759
1421.91015625 1.824531 1.184531 -0.64
1422.53125 1.751757 1.2765 -0.475257
1423.17578125 1.834133 1.444602 -0.389531
1423.78125 1.970892 1.421711 -0.549181
1424.390625 1.956056 1.511138 -0.444918
1424.9921875 2.066926 1.472141 -0.594785
1425.61328125 1.9888 1.51423 -0.47457
1426.2265625 1.89093 1.340832 -0.550098
1426.859375 1.859195 1.539423 -0.319772
1427.49609375 1.9930889999999999 1.683136 -0.309953
1428.1171875 2.081722 1.726749 -0.354973
1428.73828125 1.976948 1.670281 -0.306667
1429.37109375 2.021601 1.619101 -0.4025
1430.02734375 2.039303 1.516611 -0.522692
1430.66015625 1.9664359999999999 1.658721 -0.307715
1431.28125 1.923349 1.746768 -0.176581
1431.90625 2.059352 1.934987 -0.124365
1432.54296875 2.112759 1.948541 -0.164218
1433.1875 1.949291 1.910517 -0.038774
1433.83984375 1.972191 1.878863 -0.093328
1434.4765625 2.014292 1.909292 -0.105
1435.11328125 2.099842 1.914857 -0.184985
1435.7421875 2.103012 1.891327 -0.211685
1436.3984375 2.0174279999999998 1.857014 -0.160414
1437.046875 1.9806160000000002 1.768072 -0.212544
1437.69921875 1.853924 1.669072 -0.184852
1438.32421875 1.909308 1.746742 -0.162566
1438.9765625 1.7960260000000001 1.612708 -0.183318
1439.6171875 1.778425 1.903675 0.12525
1440.28125 1.9032930000000001 1.838516 -0.064777
1440.9375 1.97148 1.516727 -0.454753
1441.58203125 1.980996 1.190804 -0.790192
1442.2109375 1.959898 1.339905 -0.619993
1442.8671875 1.965545 1.514045 -0.4515
1443.52734375 2.131279 1.847196 -0.284083
1444.17578125 2.125752 1.961651 -0.164101
1444.8046875 2.061052 1.581692 -0.47936
1445.45703125 2.044472 1.639472 -0.405
1446.1015625 2.006976 1.6478 -0.359176
1446.76171875 2.035316 1.740457 -0.294859
1447.4375 1.912851 1.626379 -0.286472
1448.09375 1.948546 1.703546 -0.245
1448.7421875 1.949178 1.684617 -0.264561
1449.421875 1.897031 1.642763 -0.254268
1450.1171875 1.855139 1.646255 -0.208884
1450.796875 1.909151 1.714151 -0.195
1451.453125 1.989726 1.784732 -0.204994
1452.13671875 1.991836 1.775903 -0.215933
1452.80859375 1.998604 1.793968 -0.204636
1453.50390625 1.915 1.71 -0.205
1454.20703125 1.8759379999999999 1.679776 -0.196162
1454.8984375 1.7821859999999998 1.60028 -0.181906
1455.5625 1.900637 1.74125 -0.159387
1456.25390625 2.016417 1.856417 -0.16
1456.953125 2.01567 1.769304 -0.246366
1457.640625 2.0014760000000003 1.683742 -0.317734
1458.296875 1.985378 1.629917 -0.355461
1458.97265625 2.015305 1.625305 -0.39
1459.64453125 1.989924 1.589962 -0.399962
1460.33203125 1.997157 1.592157 -0.405
1461.0078125 1.992823 1.551663 -0.44116
1461.68359375 2.0274520000000003 1.564264 -0.463188
1462.34375 1.916858 1.441261 -0.475597
1463.04296875 1.9040149999999998 1.389025 -0.51499
1463.7265625 1.9367779999999999 1.399992 -0.536786
1464.41015625 1.918177 1.374672 -0.543505
1465.06640625 1.95877 1.414726 -0.544044
1465.75 2.049725 1.495 -0.554725
1466.421875 2.072524 1.537843 -0.534681
1467.11328125 1.97522 1.47522 -0.5
1467.7890625 1.984266 1.494266 -0.49
1468.4609375 2.039807 1.554932 -0.484875
1469.12890625 2.097886 1.592472 -0.505414
1469.8359375 2.033874 1.504065 -0.529809
1470.51171875 1.9591859999999999 1.434186 -0.525
1471.18359375 2.019791 1.579791 -0.44
1471.84765625 2.068921 1.698921 -0.37
1472.5234375 1.9933450000000001 1.643377 -0.349968
1473.1875 1.932194 1.557522 -0.374672
1473.87109375 1.936025 1.516088 -0.419937
1474.53515625 1.948596 1.495881 -0.452715
1475.20703125 1.9433829999999999 1.545426 -0.397957
1475.8671875 1.8749410000000002 1.47842 -0.396521
1476.55859375 1.979789 1.544789 -0.435
1477.22265625 1.9499950000000001 1.504871 -0.445124
1477.88671875 1.917389 1.427717 -0.489672
1478.55078125 1.905111 1.430626 -0.474485
1479.22265625 2.015957 1.492869 -0.523088
1479.890625 1.991501 1.467434 -0.524067
1480.5703125 1.976497 1.459183 -0.517314
1481.234375 1.915692 1.396775 -0.518917
1481.890625 1.980122 1.505139 -0.474983
1482.54296875 1.94008 1.451359 -0.488721
1483.2265625 1.960481 1.585481 -0.375
1483.875 2.03451 1.6 -0.43451
1484.51953125 2.1372780000000002 1.599834 -0.537444
1485.15234375 2.116738 1.556347 -0.560391
1485.81640625 1.949901 1.434901 -0.515
1486.46875 1.95486 1.492179 -0.462681
1487.1328125 2.017722 1.592722 -0.425
1487.78515625 2.049248 1.645529 -0.403719
1488.4453125 1.888737 1.499279 -0.389458
1489.09375 1.966184 1.653112 -0.313072
1489.78125 1.9259350000000002 1.651126 -0.274809
1490.44921875 2.034043 1.740895 -0.293148
1491.1171875 2.03205 1.747389 -0.284661
1491.77734375 1.988585 1.699732 -0.288853
1492.45703125 2.020968 1.765968 -0.255
1493.12890625 2.001828 1.752145 -0.249683
1493.8203125 1.9649450000000002 1.748658 -0.216287
1494.48828125 1.929355 1.71 -0.219355
1495.16015625 1.947612 1.682799 -0.264813
1495.828125 1.928214 1.703951 -0.224263
1496.52734375 1.911109 1.671403 -0.239706
1497.203125 1.8823509999999999 1.633136 -0.249215
1497.8828125 1.830959 1.581314 -0.249645
1498.55859375 1.893167 1.628167 -0.265
1499.24609375 1.789882 1.549882 -0.24
1499.94140625 1.794873 1.514902 -0.279971
1500.64453125 1.869954 1.584954 -0.285
1501.32421875 1.92596 1.629128 -0.296832
1501.99609375 1.938685 1.608685 -0.33
1502.69140625 1.885504 1.56396 -0.321544
1503.40625 1.78877 1.460352 -0.328418
1504.08984375 1.899864 1.554864 -0.345
1504.75 1.945 1.59 -0.355
1505.42578125 1.918405 1.554328 -0.364077
1506.09375 1.8694989999999998 1.465407 -0.404092
1506.7734375 1.895826 1.491154 -0.404672
1507.46484375 1.98528 1.54318 -0.4421
1508.12109375 1.9779630000000001 1.554167 -0.423796
1508.76953125 1.877784 1.449776 -0.428008
1509.44140625 1.914298 1.489298 -0.425
1510.1328125 2.06264 1.608265 -0.454375
1510.796875 1.993552 1.549013 -0.444539
1511.44140625 1.894842 1.474842 -0.42
1512.1015625 1.921008 1.540884 -0.380124
1512.7578125 1.996285 1.591441 -0.404844
1513.4296875 1.899944 1.521087 -0.378857
1514.1171875 1.8691 1.5041 -0.365
1514.7734375 1.94063 1.57563 -0.365
1515.42578125 1.979347 1.661788 -0.317559
1516.09375 1.909524 1.604524 -0.305
1516.78125 1.9078089999999999 1.586325 -0.321484
1517.44140625 1.9296520000000001 1.554666 -0.374986
1518.078125 1.974777 1.548676 -0.426101
1518.72265625 1.964334 1.546209 -0.418125
1519.37890625 2.002446 1.577592 -0.424854
1520.0390625 2.058452 1.624375 -0.434077
1520.703125 1.979953 1.545995 -0.433958
1521.35546875 1.916887 1.499989 -0.416898
1522.01171875 1.989161 1.574161 -0.415
1522.66796875 1.981812 1.582331 -0.399481
1523.3515625 1.932165 1.482747 -0.449418
1524.015625 1.9185590000000001 1.476761 -0.441798
1524.67578125 1.9507089999999998 1.580709 -0.37
1525.33203125 1.951429 1.603386 -0.348043
1526.0078125 1.9532040000000002 1.518204 -0.435
1526.68359375 1.919087 1.449406 -0.469681
1527.37109375 1.9243080000000001 1.482042 -0.442266
1528.03515625 1.875135 1.405429 -0.469706
1528.69921875 1.926891 1.43099 -0.495901
1529.36328125 1.990473 1.469177 -0.521296
1530.0546875 1.86907 1.42524 -0.44383
1530.72265625 1.903911 1.403911 -0.5
1531.3828125 2.057722 1.352722 -0.705
1532.03515625 1.917329 1.172329 -0.745
1532.703125 1.983407 1.502017 -0.48139
1533.37109375 1.9991370000000002 1.484137 -0.515
1534.05078125 2.051182 1.327252 -0.72393
1534.71484375 1.91114 1.231228 -0.679912
1535.37890625 1.976205 1.406329 -0.569876
1536.046875 1.9774129999999999 1.510478 -0.466935
1536.75 1.965 1.53 -0.435
1537.421875 1.948203 1.623219 -0.324984
1538.08984375 1.897836 1.62 -0.277836
1538.76171875 2.0193309999999998 1.749472 -0.269859
1539.44140625 1.9887160000000002 1.733716 -0.255
1540.125 1.894506 1.69 -0.204506
1540.8046875 2.011383 1.791383 -0.22
1541.46875 2.003121 1.728121 -0.275
1542.1328125 2.0121290000000003 1.631768 -0.380361
1542.80078125 1.930012 1.520045 -0.409967
1543.4921875 2.015335 1.5687 -0.446635
1544.15625 2.01815 1.593931 -0.424219
1544.8046875 1.98156 1.519978 -0.461582
1545.46484375 1.9801959999999998 1.468057 -0.512139
1546.12890625 2.042002 1.466301 -0.575701
1546.80078125 2.008161 1.429138 -0.579023
1547.48046875 1.954878 1.379878 -0.575
1548.140625 2.03727 1.462651 -0.574619
1548.79296875 1.998729 1.461695 -0.537034
1549.45703125 1.8825690000000002 1.398049 -0.48452
1550.15234375 1.892684 1.402716 -0.489968
1550.82421875 1.932722 1.432765 -0.499957
1551.4765625 1.919779 1.43 -0.489779
1552.125 1.9260169999999999 1.44 -0.486017
1552.7890625 1.923397 1.449397 -0.474
1553.453125 1.934888 1.374917 -0.559971
1554.125 1.885 1.105 -0.78
1554.7734375 1.852338 0.910502 -0.941836
1555.41796875 1.873517 1.032997 -0.84052
1556.0703125 1.9986789999999999 1.345867 -0.652812
1556.75390625 1.9023249999999998 1.510724 -0.391601
1557.41015625 1.875178 1.665178 -0.21
1558.05859375 1.957437 1.822483 -0.134954
1558.70703125 2.003759 1.923759 -0.08
1559.375 1.947927 1.825 -0.122927
1560.04296875 1.9532669999999999 1.798538 -0.154729
1560.70703125 1.940915 1.765915 -0.175
1561.35546875 1.881641 1.71868 -0.162961
1562.01171875 1.94555 1.750626 -0.194924
1562.66796875 1.977557 1.759432 -0.218125
1563.3515625 1.9299920000000002 1.599992 -0.33
1564.0078125 1.975511 1.656658 -0.318853
1564.66015625 1.885 1.59 -0.295
1565.3125 1.929901 1.56814 -0.361761
1565.97265625 1.823476 1.491451 -0.332025
1566.63671875 1.846796 1.46907 -0.377726
1567.30859375 1.8226040000000001 1.423756 -0.398848
1567.96484375 1.8703159999999999 1.458181 -0.412135
1568.61328125 1.9653420000000001 1.550342 -0.415
1569.25390625 1.940326 1.54129 -0.399036
1569.9296875 1.8874939999999998 1.457326 -0.430168
1570.5859375 1.934408 1.474877 -0.459531
1571.23828125 1.977481 1.495233 -0.482248
1571.8828125 1.985226 1.475378 -0.509848
1572.5390625 1.94216 1.48456 -0.4576
1573.18359375 1.9217819999999999 1.469223 -0.452559
1573.8515625 1.881158 1.436158 -0.445
1574.515625 1.988945 1.558945 -0.43
1575.17578125 1.972769 1.562769 -0.41
1575.81640625 1.912013 1.538849 -0.373164
1576.4921875 1.8345989999999999 1.469669 -0.36493
1577.15625 1.874141 1.511827 -0.362314
1577.81640625 2.010967 1.653933 -0.357034
1578.453125 1.9627649999999999 1.579405 -0.38336
1579.12109375 1.916883 1.537701 -0.379182
1579.765625 1.856664 1.472344 -0.38432
1580.42578125 1.943152 1.584957 -0.358195
1581.078125 1.94031 1.603043 -0.337267
1581.74609375 1.9700950000000002 1.620219 -0.349876
1582.390625 1.88368 1.546774 -0.336906
1583.0703125 1.912677 1.622677 -0.29
1583.7421875 2.056521 1.80738 -0.249141
1584.4140625 2.056245 1.844526 -0.211719
1585.0625 2.024756 1.809756 -0.215
1585.734375 1.975456 1.741816 -0.23364
1586.40234375 1.992984 1.752984 -0.24
1587.0859375 2.084289 1.759365 -0.324924
1587.76171875 1.978027 1.597559 -0.380468
1588.43359375 1.935244 1.44821 -0.487034
1589.08203125 1.992108 1.475507 -0.516601
1589.765625 2.045858 1.555858 -0.49
1590.44140625 1.974444 1.451923 -0.522521
1591.1171875 1.94729 1.414609 -0.532681
1591.76953125 1.925626 1.389933 -0.535693
1592.43359375 1.926909 1.362979 -0.56393
1593.08203125 1.9940579999999999 1.459389 -0.534669
1593.765625 2.003765 1.540838 -0.462927
1594.43359375 2.008404 1.558404 -0.45
1595.09375 2.030663 1.595663 -0.435
1595.7421875 2.021738 1.632562 -0.389176
1596.421875 1.962953 1.567953 -0.395
1597.09765625 2.006835 1.59748 -0.409355
1597.7734375 1.997095 1.567708 -0.429387
1598.421875 1.995611 1.59217 -0.403441
1599.09375 1.976249 1.586679 -0.38957
1599.7421875 2.0358389999999997 1.616178 -0.419661
1600.42578125 1.919878 1.487658 -0.43222
1601.10546875 1.876149 1.471794 -0.404355
1601.765625 1.8546 1.4596 -0.395
1602.41015625 1.923823 1.53578 -0.388043
1603.1015625 1.9643739999999998 1.564374 -0.4
1603.78515625 1.904138 1.490061 -0.414077
1604.453125 1.904177 1.479177 -0.425
1605.10546875 1.863585 1.444831 -0.418754
1605.7734375 1.9364059999999998 1.54504 -0.391366
1606.43359375 1.9492340000000001 1.559234 -0.39
1607.11328125 1.9234200000000001 1.553544 -0.369876
1607.7890625 1.9395879999999999 1.564979 -0.374609
1608.4609375 1.86468 1.504848 -0.359832
1609.109375 1.954622 1.604622 -0.35
1609.80078125 1.983567 1.593838 -0.389729
1610.4921875 1.972282 1.622621 -0.349661
1611.171875 1.987861 1.614176 -0.373685
1611.82421875 2.004296 1.642898 -0.361398
1612.5 2.054916 1.695 -0.359916
1613.16015625 1.935 1.585 -0.35
1613.83984375 1.925075 1.532419 -0.392656
1614.51953125 2.029848 1.604848 -0.425
1615.19140625 2.035778 1.613099 -0.422679
1615.84375 1.933182 1.588632 -0.34455
1616.51953125 1.899672 1.53 -0.369672
1617.19140625 2.023698 1.659026 -0.364672
1617.859375 2.069269 1.679269 -0.39
1618.515625 1.967238 1.544557 -0.422681
1619.171875 1.9428170000000002 1.542817 -0.4
1619.82421875 2.0792539999999997 1.73491 -0.344344
1620.5 2.035414 1.655 -0.380414
1621.17578125 1.945183 1.570183 -0.375
1621.84375 1.9395470000000001 1.590305 -0.349242
1622.48828125 2.097733 1.798378 -0.299355
1623.171875 2.069919 1.798114 -0.271805
1623.85546875 2.054709 1.75986 -0.294849
1624.5234375 1.991406 1.711653 -0.279753
1625.16796875 2.0322709999999997 1.742271 -0.29
1625.83984375 1.909029 1.602545 -0.306484
1626.5 1.9749999999999999 1.69 -0.285
1627.1796875 2.034259 1.802677 -0.231582
1627.859375 1.9458 1.705838 -0.239962
1628.5234375 1.969874 1.714917 -0.254957
1629.171875 1.842951 1.542951 -0.3
1629.8515625 1.916296 1.606296 -0.31
1630.5234375 1.916879 1.635778 -0.281101
1631.19140625 1.958275 1.680515 -0.27776
1631.8359375 1.957461 1.652629 -0.304832
1632.5078125 1.915231 1.635287 -0.279944
1633.16015625 1.924657 1.61989 -0.304767
1633.84375 1.925732 1.605732 -0.32
1634.52734375 1.995519 1.670541 -0.324978
1635.203125 1.97645 1.663013 -0.313437
1635.85546875 1.9897340000000001 1.639798 -0.349936
1636.54296875 1.956041 1.577184 -0.378857
1637.23046875 1.9697269999999998 1.589921 -0.379806
1637.91015625 1.987226 1.61724 -0.369986
1638.5703125 1.967117 1.627117 -0.34
1639.25 1.894107 1.57 -0.324107
1639.90625 1.958806 1.647224 -0.311582
1640.5859375 1.9946679999999999 1.689419 -0.305249
1641.26953125 1.994655 1.729846 -0.264809
1641.94140625 1.9118789999999999 1.661625 -0.250254
1642.58984375 1.860347 1.591507 -0.26884
1643.27734375 2.004346 1.739837 -0.264509
1643.96484375 1.983896 1.673932 -0.309964
1644.640625 1.983028 1.668253 -0.314775
1645.29296875 1.968594 1.653913 -0.314681
1645.96875 2.062386 1.753632 -0.308754
1646.63671875 2.080575 1.755903 -0.324672
1647.31640625 2.032381 1.708607 -0.323774
1647.9921875 1.9977530000000001 1.68568 -0.312073
1648.65625 1.981663 1.698883 -0.28278
1649.3125 2.042935 1.803396 -0.239539
1650.0 2.065 1.805 -0.26
1650.67578125 1.9286629999999998 1.663663 -0.265
1651.33984375 1.895065 1.605177 -0.289888
1651.984375 1.949916 1.644271 -0.305645
1652.64453125 2.0368950000000003 1.719769 -0.317126
1653.29296875 2.026995 1.671995 -0.355
1653.9609375 1.974349 1.589349 -0.385
1654.6171875 1.912682 1.557682 -0.355
1655.26953125 2.011552 1.689784 -0.321768
1655.91796875 1.9534760000000002 1.615058 -0.338418
1656.59765625 1.9346430000000001 1.568159 -0.366484
1657.26171875 1.9701019999999998 1.584218 -0.385884
1657.9296875 1.993353 1.624276 -0.369077
1658.58203125 1.895686 1.566342 -0.329344
1659.24609375 1.9050259999999999 1.560026 -0.345
1659.8984375 1.9911050000000001 1.693791 -0.297314
1660.578125 2.008301 1.669395 -0.338906
1661.25390625 1.984583 1.634707 -0.349876
1661.9140625 1.874831 1.549874 -0.324957
1662.5625 1.9007319999999999 1.582733 -0.317999
1663.24609375 1.8620700000000001 1.55207 -0.31
1663.91015625 1.9204430000000001 1.617002 -0.303441
1664.5703125 2.022866 1.753887 -0.268979
1665.21875 1.973781 1.703781 -0.27
1665.87890625 1.902117 1.64419 -0.257927
1666.53515625 1.8815309999999998 1.615557 -0.265974
1667.2109375 1.900339 1.658507 -0.241832
1667.890625 1.9427469999999998 1.733086 -0.209661
1668.56640625 1.9260190000000001 1.696182 -0.229837
1669.22265625 1.9277 1.662756 -0.264944
1669.921875 1.949065 1.664917 -0.284148
1670.61328125 1.949616 1.667116 -0.2825
1671.29296875 1.9987219999999999 1.683913 -0.314809
1671.9609375 1.939562 1.644562 -0.295
1672.6484375 1.88156 1.557107 -0.324453
1673.328125 1.951121 1.619402 -0.331719
1674.015625 1.982323 1.618811 -0.363512
1674.69921875 1.971552 1.611552 -0.36
1675.37109375 1.9237520000000001 1.553284 -0.370468
1676.04296875 1.9859149999999999 1.605915 -0.38
1676.73828125 2.027381 1.718345 -0.309036
1677.4140625 2.009788 1.684788 -0.325
1678.078125 1.941907 1.622075 -0.319832
1678.74609375 1.905475 1.565587 -0.339888
1679.42578125 1.896893 1.575311 -0.321582
1680.109375 1.916171 1.564921 -0.35125
1680.8046875 1.928252 1.578616 -0.349636
1681.46875 1.938984 1.591643 -0.347341
1682.13671875 1.9270230000000002 1.58708 -0.339943
1682.8203125 2.041381 1.751171 -0.29021
1683.515625 1.990152 1.662885 -0.327267
1684.1953125 1.9367549999999998 1.594488 -0.342267
1684.8515625 2.024321 1.64018 -0.384141
1685.515625 2.006673 1.627348 -0.379325
1686.1796875 2.088004 1.708004 -0.38
1686.8671875 1.989835 1.626908 -0.362927
1687.55078125 2.011018 1.657088 -0.35393
1688.20703125 2.095001 1.752074 -0.342927
1688.859375 1.9668 1.661332 -0.305468
1689.52734375 1.889544 1.560325 -0.329219
1690.21484375 2.004343 1.63489 -0.369453
1690.88671875 1.9690370000000001 1.569037 -0.4
1691.53515625 1.9846059999999999 1.531563 -0.453043
1692.1953125 1.9671669999999999 1.447245 -0.519922
1692.8515625 2.004505 1.454935 -0.54957
1693.53125 1.943794 1.469313 -0.474481
1694.21875 1.976167 1.561167 -0.415
1694.87890625 1.964378 1.658132 -0.306246
1695.52734375 1.9081350000000001 1.625868 -0.282267
1696.1953125 1.957128 1.677128 -0.28
1696.8828125 2.05394 1.739081 -0.314859
1697.5390625 2.039169 1.729906 -0.309263
1698.18359375 1.9920559999999998 1.694535 -0.297521
1698.8359375 1.969293 1.649293 -0.32
1699.4921875 2.019545 1.678712 -0.340833
1700.15625 2.080156 1.70743 -0.372726
1700.81640625 1.932096 1.583239 -0.348857
1701.46875 1.9135900000000001 1.51859 -0.395
1702.109375 1.974487 1.539487 -0.435
1702.76171875 1.951795 1.546795 -0.405
1703.4453125 1.9304169999999998 1.54246 -0.387957
1704.09765625 1.948127 1.543127 -0.405
1704.74609375 2.032416 1.657416 -0.375
1705.39453125 2.018624 1.629874 -0.38875
1706.0625 1.9412639999999999 1.559459 -0.381805
1706.71875 1.8871730000000002 1.477818 -0.409355
1707.3828125 1.89509 1.48509 -0.41
1708.04296875 1.993074 1.569389 -0.423685
1708.703125 1.997411 1.582879 -0.414532
1709.34375 1.965454 1.581418 -0.384036
1709.8046875 1.31154 0.981704 -0.329836
1710.6796875 1.919303 1.502721 -0.416582
1711.33984375 2.094271 1.653034 -0.441237
1711.9765625 2.051045 1.61292 -0.438125
1712.62109375 2.0611099999999998 1.621376 -0.439734
1713.2578125 2.034893 1.617785 -0.417108
1713.91796875 1.9748080000000001 1.589808 -0.385
1714.58203125 1.973382 1.521276 -0.452106
1715.234375 1.921848 1.555884 -0.365964
1715.8671875 1.885302 1.523667 -0.361635
1716.53125 1.961431 1.628359 -0.333072
1717.19921875 1.967749 1.637999 -0.32975
1717.859375 1.9194490000000002 1.579449 -0.34
1718.48828125 1.958121 1.594621 -0.3635
1719.13671875 1.928556 1.543599 -0.384957
1719.78125 1.8960020000000002 1.513065 -0.382937
1720.4453125 1.962835 1.602835 -0.36
1721.109375 1.975379 1.731905 -0.243474
1721.75390625 1.92564 1.805764 -0.119876
1722.39453125 1.879213 1.894213 0.015
1723.0625 1.8213249999999999 2.101339 0.280014
1723.73828125 1.8472289999999998 2.739295 0.892066
1724.39453125 1.8442890000000003 2.389289 0.545
1724.96484375 1.837905 1.546522 -0.291383
1725.6875 2.025429 0.891042 -1.134387
1726.3515625 1.9862069999999998 0.634516 -1.351691
1727.03515625 2.048255 0.693255 -1.355
1727.72265625 2.034239 0.854239 -1.18
1728.3828125 2.0291620000000004 0.939162 -1.09
1729.03515625 1.9621149999999998 0.991795 -0.97032
1729.7109375 2.006722 1.25982 -0.746902
1730.40234375 1.979513 1.384732 -0.594781
1731.07421875 1.984888 1.49 -0.494888
1731.72265625 1.942658 1.537658 -0.405
1732.39453125 1.959151 1.689151 -0.27
1733.05078125 2.033797 1.848811 -0.184986
1733.734375 2.006688 1.811856 -0.194832
1734.42578125 2.022122 1.787122 -0.235
1735.09765625 2.054254 1.819254 -0.235
1735.75 2.025 1.71 -0.315
1736.4375 1.9727599999999998 1.65 -0.32276
1737.140625 1.956916 1.657143 -0.299773
1737.828125 1.936705 1.647224 -0.289481
1738.49609375 1.938567 1.648567 -0.29
1739.1796875 1.943719 1.641883 -0.301836
1739.85546875 1.944419 1.629923 -0.314496
1740.55078125 1.8948710000000002 1.625941 -0.26893
1741.24609375 1.960499 1.655727 -0.304772
1741.92578125 1.8760789999999998 1.621079 -0.255
1742.59375 1.873121 1.633121 -0.24
1743.30078125 1.879235 1.607399 -0.271836
1743.9921875 1.915883 1.628829 -0.287054
1744.66796875 1.927679 1.644919 -0.28276
1745.33203125 1.9073559999999998 1.602356 -0.305
1746.00390625 1.901621 1.567363 -0.334258
1746.671875 1.985115 1.642693 -0.342422
1747.3515625 1.97321 1.64821 -0.325
1748.015625 1.993001 1.653001 -0.34
1748.671875 1.9883579999999998 1.63953 -0.348828
1749.328125 2.004879 1.64463 -0.360249
1750.01171875 2.038312 1.653312 -0.385
1750.671875 1.98113 1.58783 -0.3933
1751.33203125 2.038822 1.573879 -0.464943
1751.9765625 2.023104 1.473104 -0.55
1752.6328125 1.954565 1.399565 -0.555
1753.2734375 1.990867 1.168998 -0.821869
1753.93359375 2.058373 1.21979 -0.838583
1754.5859375 2.009289 1.364289 -0.645
1755.2421875 2.052737 1.392889 -0.659848
1755.875 1.9877799999999999 1.51 -0.47778
1756.53125 1.9351319999999999 1.862779 -0.072353
1757.19140625 2.099205 2.074784 -0.024421
1757.84375 2.038931 1.883931 -0.155
1758.4765625 2.00104 1.961208 -0.039832
1759.12109375 2.013318 2.088196 0.074878
1759.75390625 2.1493480000000003 2.068102 -0.081246
1760.41796875 2.052266 1.753189 -0.299077
1761.0859375 2.06147 1.873462 -0.188008
1761.734375 1.887168 1.897824 0.010656
1762.3671875 1.9302229999999998 1.835287 -0.094936
1763.0390625 2.007158 1.794432 -0.212726
1763.71875 2.002716 1.657467 -0.345249
1764.38671875 2.025544 1.485544 -0.54
1765.02734375 2.026521 1.458103 -0.568418
1765.6953125 1.985455 1.500455 -0.485
1766.359375 2.108513 1.59018 -0.518333
1767.046875 1.9365999999999999 1.456148 -0.480452
1767.734375 1.8987640000000001 1.433764 -0.465
1768.41015625 1.990948 1.572406 -0.418542
1769.0625 1.9865 1.5965 -0.39
1769.75390625 2.005919 1.581025 -0.424894
1770.4453125 1.9769940000000001 1.561994 -0.415
1771.12109375 1.974804 1.600683 -0.374121
1771.78125 2.036029 1.634974 -0.401055
1772.45703125 2.022765 1.588546 -0.434219
1773.125 1.966578 1.51 -0.456578
1773.81640625 1.969521 1.524521 -0.445
1774.49609375 2.06311 1.658234 -0.404876
1775.1796875 2.023011 1.632757 -0.390254
1775.84765625 1.9822419999999998 1.557589 -0.424653
1776.546875 1.949386 1.514405 -0.434981
1777.23046875 2.010978 1.619961 -0.391017
1777.921875 1.976147 1.571147 -0.405
1778.59375 1.878928 1.460856 -0.418072
1779.28125 1.85544 1.448173 -0.407267
1779.9609375 1.9697399999999998 1.569848 -0.399892
1780.65625 1.92275 1.507137 -0.415613
1781.33984375 1.809537 1.384865 -0.424672
1782.01171875 1.846308 1.451308 -0.395
1782.6875 1.975618 1.640937 -0.334681
1783.390625 2.00456 1.630876 -0.373684
1784.07421875 1.8885930000000002 1.507011 -0.381582
1784.74609375 1.922042 1.527042 -0.395
1785.40234375 1.930342 1.600566 -0.329776
1786.078125 2.038467 1.768467 -0.27
1786.7578125 2.0609770000000003 1.636956 -0.424021
1787.44921875 1.94498 1.492846 -0.452134
1788.109375 1.914574 1.449662 -0.464912
1788.76953125 1.898939 1.413939 -0.485
1789.4375 1.948704 1.398704 -0.55
1790.140625 1.95039 1.409271 -0.541119
1790.80859375 2.07181 1.663615 -0.408195
1791.46484375 2.100073 1.635073 -0.465
1792.1328125 1.989814 1.414814 -0.575
1792.8046875 1.91394 1.349259 -0.564681
1793.48046875 2.00464 1.514887 -0.489753
1794.16796875 2.062065 1.592065 -0.47
1794.83984375 2.0829020000000003 1.620246 -0.462656
1795.5 1.9843549999999999 1.525 -0.459355
1796.171875 1.9622410000000001 1.527031 -0.43521
1796.8671875 2.106334 1.676502 -0.429832
1797.53515625 2.052502 1.632502 -0.42
1798.1875 2.0594710000000003 1.6445 -0.414971
1798.8515625 2.0219489999999998 1.599449 -0.4225
1799.51953125 2.134851 1.774851 -0.36
1800.1953125 2.080665 1.640694 -0.439971
1800.87890625 2.0409200000000003 1.58092 -0.46
1801.546875 2.04982 1.614827 -0.434993
1802.21484375 2.087584 1.723053 -0.364531
1802.88671875 2.038598 1.635526 -0.403072
1803.58984375 1.963722 1.535038 -0.428684
1804.26953125 2.01978 1.66978 -0.35
