130 
325 
525 
721 
915 
1103 
1303 
1497 
1680 
1866 
2053 
2242 
2435 
2623 
2806 
2999 
3195 
3383 
3567 
3754 
3945 
4138 
4328 
4516 
4709 
4905 
5093 
5277 
5465 
5657 
5850 
6023 
6227 
6416 
6613 
6802 
6989 
7180 
7372 
7570 
7765 
7956 
8147 
8347 
8543 
8737 
8933 
9122 
9321 
9516 
9704 
9892 
10092 
10282 
10468 
10658 
10848 
11041 
11237 
11433 
11627 
11834 
12032 
12224 
12422 
12618 
12816 
13010 
13200 
13388 
13584 
13773 
13952 
14140 
14326 
14517 
14710 
14898 
15084 
15279 
15470 
15655 
15806 
16035 
16232 
16375 
16583 
16788 
16996 
17197 
17392 
17589 
17785 
17986 
18176 
18366 
18561 
18701 
18949 
19138 
19329 
19512 
19707 
19896 
20087 
20280 
20482 
20674 
20863 
21058 
21248 
21446 
21644 
21837 
22025 
22220 
22409 
22586 
22775 
22961 
23151 
23344 
23532 
23716 
23908 
24098 
24285 
24469 
24660 
24853 
25042 
25229 
25412 
25599 
25793 
25982 
26169 
26360 
26549 
26742 
26931 
27115 
27301 
27492 
27679 
27864 
28047 
28235 
28424 
28616 
28798 
28983 
29180 
29375 
29569 
29758 
29950 
30143 
30338 
30448 
30558 
30857 
31006 
31305 
31505 
31690 
31899 
32101 
32284 
32478 
32672 
32849 
33051 
33239 
33403 
33617 
33812 
33946 
34183 
34376 
34515 
34760 
34948 
35086 
35323 
35486 
35656 
35889 
36076 
36273 
36459 
36639 
36826 
37009 
37198 
37387 
37568 
37748 
37937 
38128 
38308 
38489 
38666 
38864 
39059 
39246 
39420 
39631 
39827 
40017 
40198 
40389 
40580 
40770 
40948 
41127 
41315 
41503 
41684 
41863 
41983 
42222 
42410 
42590 
42772 
42958 
43152 
43337 
43517 
43702 
43883 
44070 
44207 
44408 
44604 
44773 
44991 
45180 
45366 
45560 
45753 
45951 
46139 
46323 
46514 
46706 
46890 
47068 
47256 
47444 
47601 
47800 
47997 
48169 
48385 
48575 
48764 
48958 
49147 
49341 
49533 
49721 
49908 
50102 
50293 
50482 
50674 
50859 
51052 
51241 
51427 
51613 
51808 
51999 
52190 
52375 
52564 
52756 
52948 
53133 
53316 
53514 
53711 
53902 
54089 
54279 
54468 
54661 
54851 
55038 
55228 
55425 
55610 
55790 
55974 
56154 
56339 
56526 
56715 
56899 
57096 
57290 
57475 
57667 
57822 
58036 
58247 
58439 
58628 
58823 
59013 
59194 
59374 
59558 
59741 
59932 
60115 
60298 
60486 
60677 
60865 
61047 
61238 
61426 
61623 
61810 
61996 
62187 
62378 
62565 
62748 
62936 
63121 
63312 
63496 
63677 
63861 
64056 
64241 
64419 
64600 
64784 
64974 
65163 
65347 
65528 
65725 
65912 
66092 
66282 
66470 
66662 
66854 
67043 
67228 
67419 
67603 
67785 
67966 
68152 
68335 
68523 
68702 
68884 
69068 
69257 
69444 
69628 
69814 
70000 
70192 
70375 
70559 
70742 
70935 
71121 
71304 
71452 
71664 
71821 
72040 
72225 
72404 
72594 
72778 
72963 
73150 
73336 
73523 
73712 
73896 
74076 
74265 
74460 
74646 
74828 
75014 
75198 
75386 
75533 
75735 
75927 
76127 
76322 
76509 
76694 
76878 
77066 
77251 
77433 
77610 
77798 
77988 
78174 
78353 
78537 
78724 
78908 
79095 
79223 
79468 
79667 
79856 
80039 
80225 
80410 
80599 
80788 
80972 
81154 
81342 
81528 
81712 
81895 
82076 
82265 
82456 
82642 
82826 
83017 
83211 
83397 
83578 
83762 
83943 
84132 
84315 
84501 
84684 
84879 
85064 
85245 
85435 
85621 
85815 
86008 
86195 
86381 
86578 
86764 
86946 
87132 
87319 
87509 
87699 
87884 
88063 
88252 
88437 
88618 
88796 
88982 
89171 
89361 
89545 
89681 
89889 
90091 
90285 
90475 
90668 
90865 
91061 
91247 
91435 
91631 
91820 
92010 
92197 
92383 
92572 
92762 
92943 
93123 
93310 
93504 
93694 
93878 
94068 
94251 
94439 
94578 
94780 
94995 
95199 
95392 
95576 
95754 
95954 
96148 
96336 
96527 
96715 
96915 
97109 
97295 
97489 
97684 
97889 
98088 
98281 
98468 
98663 
98847 
99030 
99210 
99395 
99582 
99769 
99951 
100129 
100310 
100497 
100680 
100858 
101040 
101218 
101401 
101584 
101761 
101937 
102120 
102300 
102479 
102654 
102834 
103012 
103193 
103372 
103548 
103726 
103916 
104097 
104277 
104455 
104635 
104815 
104999 
105172 
105344 
105525 
105711 
105890 
106066 
106245 
106425 
106606 
106794 
106973 
107151 
107337 
107522 
107705 
107881 
108064 
108244 
108423 
108601 
108777 
108957 
109146 
109331 
109506 
109687 
109846 
110054 
110238 
110404 
110596 
110783 
110962 
111143 
111316 
111494 
111670 
111840 
112020 
112197 
112371 
112557 
112736 
112910 
113086 
113262 
113441 
113623 
113795 
113964 
114146 
114330 
114507 
114677 
114856 
115027 
115206 
115384 
115558 
115728 
115866 
116077 
116255 
116410 
116607 
116780 
116956 
117132 
117306 
117475 
117652 
117824 
117996 
118166 
118342 
118514 
118694 
118834 
119041 
119228 
119396 
119572 
119747 
119916 
120065 
120262 
120439 
120581 
120779 
120954 
121135 
121306 
121481 
121652 
121804 
121995 
122174 
122350 
122522 
122684 
122876 
123058 
123236 
123411 
123589 
123761 
123939 
124117 
124269 
124436 
124639 
124819 
124992 
125166 
125347 
125524 
125704 
125883 
126056 
126232 
126413 
126589 
126763 
126935 
127114 
127290 
127469 
127649 
127826 
128004 
128191 
128370 
128545 
128724 
128905 
129088 
129276 
129458 
129638 
129821 
130007 
130190 
130365 
130541 
130719 
130899 
131079 
131233 
131408 
131621 
131807 
131989 
132169 
132348 
132530 
132713 
132886 
133063 
133239 
133423 
133601 
133773 
133952 
134125 
134307 
134489 
134664 
134837 
135019 
135200 
135374 
135550 
135692 
135874 
136075 
136257 
136434 
136608 
136795 
136973 
137145 
137323 
137503 
137686 
137870 
138049 
138221 
138402 
138586 
138760 
138942 
139100 
139270 
139411 
139618 
139793 
139958 
140147 
140321 
140499 
140673 
140848 
141019 
141195 
141367 
141542 
141709 
141888 
142063 
142236 
142406 
142562 
142754 
142936 
143113 
143288 
143463 
143646 
143821 
143996 
144168 
144278 
144519 
144697 
144873 
145043 
145209 
145390 
145561 
145711 
145894 
146072 
146228 
146409 
146582 
146756 
146905 
147093 
147271 
147436 
147602 
147745 
147904 
148073 
148206 
148392 
148518 
148701 
148837 
149023 
149153 
149327 
149457 
149625 
149757 
149935 
150066 
150230 
150357 
150530 
150665 
150832 
150964 
151121 
151245 
151404 
151534 
151698 
151827 
151980 
152109 
152265 
152399 
152551 
152683 
152829 
152957 
153099 
153227 
153378 
153510 
153665 
153796 
153936 
154070 
154229 
154355 
154496 
154625 
154776 
154900 
155051 
155187 
155327 
155459 
155609 
155738 
155903 
156031 
156181 
156310 
156453 
156586 
156739 
156869 
157020 
157153 
157284 
157413 
157589 
157716 
157864 
157996 
158134 
158267 
158420 
158551 
158702 
158828 
158980 
159110 
159263 
159393 
159547 
159673 
159819 
159953 
160110 
160240 
160410 
160546 
160694 
160822 
160984 
161117 
161286 
161412 
161568 
161696 
161949 
162200 
162327 
162487 
162704 
162889 
163052 
163240 
163408 
163577 
163753 
163922 
164090 
164256 
164434 
164599 
164763 
164926 
165100 
165268 
165442 
165610 
165779 
165946 
166118 
166292 
166461 
166626 
166794 
166961 
167136 
167310 
167483 
167650 
167828 
168003 
168177 
168348 
168521 
168696 
168874 
169048 
169226 
169401 
169586 
169765 
169939 
170116 
170294 
170470 
170635 
170825 
171003 
171179 
171364 
171544 
171720 
171897 
172073 
172249 
172427 
172600 
172770 
172942 
173124 
173300 
173476 
173650 
173829 
174005 
174188 
174364 
174535 
174714 
174896 
175071 
175238 
175412 
175588 
175760 
175933 
176104 
176272 
176442 
176619 
176791 
176960 
177129 
177305 
177478 
177652 
177830 
178005 
178178 
178360 
178536 
178709 
178878 
179053 
179230 
179405 
179528 
179660 
179864 
180066 
180247 
180425 
180599 
180779 
180955 
181134 
181305 
181478 
181652 
181836 
182009 
182181 
182358 
182531 
182713 
182895 
183068 
183240 
183420 
183604 
183779 
183955 
184133 
184305 
184485 
184660 
184833 
185000 
185176 
185353 
185524 
185691 
185866 
186040 
186218 
186354 
186549 
186675 
186866 
187098 
187269 
187442 
187572 
187796 
187926 
188146 
188269 
188496 
188624 
188843 
188969 
189180 
189307 
189519 
189649 
189828 
189959 
190204 
190332 
190559 
190688 
190900 
191029 
191245 
191373 
191519 
191636 
191855 
191988 
192249 
192371 
192598 
192727 
192949 
193078 
193295 
193427 
193637 
193769 
193983 
194155 
194324 
194496 
194661 
194833 
195004 
195170 
195332 
195505 
195676 
195847 
196006 
196178 
196351 
196522 
196696 
196865 
197033 
197202 
197380 
197551 
197713 
197879 
198052 
198228 
198400 
198568 
198736 
198912 
199087 
199262 
199432 
199598 
199774 
199951 
200128 
200302 
200476 
200652 
200835 
201011 
201183 
201360 
201535 
201714 
201896 
202074 
202251 
202396 
202611 
202739 
202908 
203136 
203310 
203488 
203667 
203838 
204007 
204185 
204368 
204542 
204711 
204886 
205059 
205236 
205415 
205592 
205766 
205948 
206081 
206213 
206414 
206620 
206804 
206987 
207165 
207343 
207519 
207705 
207882 
208054 
208230 
208405 
208585 
208763 
208930 
209105 
209279 
209462 
209640 
209810 
209986 
210160 
210340 
210507 
210695 
210869 
211001 
211141 
211352 
211555 
211747 
211932 
212118 
212265 
212481 
212641 
212848 
213015 
213205 
213369 
213562 
213732 
213924 
214084 
214271 
214429 
214630 
214786 
214982 
215154 
215330 
215478 
215687 
215861 
216034 
216166 
216382 
216562 
216734 
216914 
217091 
217273 
217448 
217630 
217806 
217990 
218169 
218344 
218523 
218702 
218878 
219015 
219223 
219376 
219572 
219750 
219925 
220098 
220272 
220399 
220553 
220773 
220957 
221133 
221305 
221490 
221664 
221837 
222008 
222183 
222356 
222532 
222705 
222878 
223045 
223228 
223398 
223573 
223742 
223921 
224096 
224270 
224445 
224590 
224781 
224968 
225150 
225325 
225499 
225676 
225857 
226033 
226210 
226386 
226513 
226712 
226845 
227027 
227247 
227426 
227602 
227787 
227963 
228139 
228317 
228499 
228678 
228850 
229027 
229206 
229388 
229526 
229726 
229853 
230067 
230293 
230470 
230623 
230799 
231001 
231182 
231359 
231529 
231704 
231886 
232061 
232229 
232406 
232578 
232759 
232941 
233118 
233243 
233389 
233618 
233807 
233983 
234161 
234340 
234523 
234707 
234884 
235060 
235246 
235425 
235603 
235773 
235953 
236129 
236305 
236480 
236650 
236826 
237007 
237182 
237352 
237527 
237697 
237843 
238044 
238170 
238415 
238540 
238783 
238908 
239140 
239265 
239495 
239623 
239862 
239988 
240214 
240343 
240580 
240707 
240930 
241061 
241290 
241414 
241597 
241797 
241977 
242161 
242339 
242509 
242681 
242858 
243031 
243205 
243380 
243558 
243729 
243905 
244084 
244260 
244433 
244611 
244786 
244967 
245144 
245323 
245502 
245687 
245846 
246042 
246220 
246396 
246575 
246754 
246928 
247103 
247281 
247464 
247637 
247811 
247984 
248156 
248335 
248515 
248688 
248863 
249040 
249223 
249400 
249571 
249745 
249918 
250094 
250275 
250420 
250617 
250975 
251152 
251321 
251494 
251666 
251842 
252016 
252186 
252356 
252529 
252709 
252881 
253044 
253216 
253386 
253564 
253738 
253912 
254083 
254266 
254451 
254628 
254803 
254982 
255163 
255341 
255517 
255694 
255868 
256055 
256233 
256411 
256591 
256766 
256950 
257136 
257314 
257489 
257676 
257865 
258049 
258225 
258412 
258593 
258779 
258908 
259029 
259296 
259431 
259618 
259775 
260041 
260170 
260405 
260536 
260731 
260853 
261104 
261317 
261493 
261670 
261849 
262004 
262199 
262371 
262548 
262721 
262901 
263076 
263237 
263421 
263579 
263770 
263953 
264111 
264303 
264486 
264666 
264846 
265018 
265194 
265367 
265507 
265727 
265901 
266048 
266256 
266437 
266591 
266788 
266938 
267124 
267259 
267420 
267544 
267697 
267816 
267972 
268102 
268256 
268381 
268539 
268662 
268816 
268944 
269103 
269232 
269389 
269507 
269672 
269801 
269962 
270087 
270234 
270361 
270532 
270649 
270817 
270948 
271107 
271229 
271396 
271523 
271690 
271813 
271962 
272088 
272255 
272374 
272542 
272670 
272833 
272958 
273129 
273254 
273432 
273557 
273724 
273847 
274029 
274152 
274341 
274466 
274647 
274771 
274952 
275084 
275251 
275379 
275550 
275673 
275858 
275989 
276181 
276305 
276505 
276632 
276901 
277146 
277328 
277508 
277688 
277871 
278048 
278218 
278400 
278580 
278755 
278926 
279105 
279277 
279455 
279634 
279810 
279984 
280168 
280300 
280497 
280679 
280864 
281047 
281229 
281408 
281586 
281765 
281948 
282128 
282300 
282473 
282648 
282819 
283006 
283181 
283356 
283539 
283721 
283898 
284070 
284250 
284425 
284606 
284782 
284957 
285140 
285327 
285507 
285682 
285861 
286042 
286222 
286408 
286584 
286761 
286943 
287129 
287309 
287486 
287663 
287837 
287972 
288194 
288324 
288511 
288735 
288914 
289094 
289265 
289446 
289626 
289801 
289977 
290151 
290329 
290514 
290691 
290865 
291041 
291220 
291402 
291585 
291761 
291934 
292115 
292297 
292477 
292651 
292830 
293002 
293183 
293360 
293535 
293703 
293882 
294062 
294239 
294412 
294540 
294735 
294868 
295057 
295244 
295463 
295600 
295801 
295987 
296168 
296349 
296528 
296711 
296894 
297071 
297247 
297433 
297612 
297789 
297962 
298142 
298320 
298496 
298676 
298850 
299022 
299205 
299381 
299550 
299725 
299899 
300082 
300261 
300441 
300619 
300800 
300984 
301162 
301334 
301510 
301686 
301821 
302017 
302141 
302320 
302570 
302754 
302930 
303105 
303281 
303456 
303634 
303809 
303985 
304160 
304343 
304517 
304688 
304867 
305040 
305215 
305396 
305565 
305737 
305919 
306104 
306284 
306454 
306637 
306814 
306995 
307176 
307352 
307529 
307710 
307893 
308070 
308246 
308422 
308602 
308779 
308953 
309126 
309302 
309484 
309661 
309833 
310008 
310187 
310365 
310546 
310719 
310896 
311072 
311250 
311426 
311599 
311776 
311955 
312136 
312319 
312494 
312675 
312856 
313035 
313213 
313387 
313568 
313747 
313930 
314104 
314278 
314453 
314637 
314811 
314981 
315155 
315335 
315514 
315696 
315875 
316050 
316230 
316416 
316592 
316764 
316944 
317120 
317303 
317488 
317662 
317840 
318020 
318207 
318386 
318560 
318740 
318917 
319098 
319279 
319460 
319632 
319820 
320001 
320177 
320348 
320525 
320698 
320876 
321050 
321227 
321402 
321589 
321764 
321943 
322118 
322296 
322477 
322657 
322832 
323012 
323195 
323379 
323530 
323715 
323909 
324087 
324273 
324456 
324634 
324809 
324995 
325175 
325352 
325527 
325703 
325877 
326055 
326230 
326404 
326577 
326761 
326938 
327110 
327289 
327467 
327647 
327829 
328004 
328178 
328359 
328543 
328725 
328901 
329084 
329262 
329444 
329619 
329793 
329967 
330146 
330321 
330496 
330630 
330827 
330956 
331170 
331299 
331554 
331682 
331921 
332050 
332282 
332407 
332641 
332768 
333003 
333129 
333356 
333488 
333720 
333849 
334077 
334209 
334441 
334570 
334802 
334927 
335150 
335285 
335507 
335630 
335852 
335982 
336206 
336337 
336562 
336686 
336911 
337045 
337245 
337367 
337618 
337748 
337984 
338119 
338346 
338472 
338703 
338832 
339054 
339178 
339406 
339534 
339760 
339889 
340110 
340238 
340466 
340597 
340817 
340946 
341173 
341303 
341532 
341660 
341884 
342012 
342243 
342371 
342588 
342715 
342943 
343073 
343305 
343432 
343651 
343785 
344020 
344148 
344363 
344491 
344675 
344811 
345028 
345160 
345391 
345522 
345760 
345891 
346111 
346240 
346465 
346603 
346831 
346961 
347189 
347320 
347556 
347685 
347911 
348037 
348264 
348394 
348622 
348752 
348978 
349112 
349341 
349473 
349693 
349827 
350055 
350192 
350416 
350544 
350781 
350917 
351140 
351269 
351493 
351618 
351853 
351984 
352209 
352337 
352571 
352702 
352920 
353049 
353269 
353401 
353616 
353748 
353963 
354092 
354317 
354446 
354660 
354784 
355006 
355137 
355344 
355472 
355707 
355837 
356074 
356206 
356425 
356554 
356779 
356910 
357130 
357255 
357477 
357608 
357825 
357955 
358168 
358303 
358515 
358642 
358861 
358991 
359204 
359337 
359553 
359683 
359896 
360034 
360249 
360376 
360601 
360728 
360945 
361081 
361303 
361424 
361647 
361780 
362009 
362138 
362359 
362492 
362705 
362846 
363062 
363185 
363408 
363537 
363763 
363898 
364115 
364246 
364467 
364606 
364825 
364954 
365183 
365311 
365545 
365681 
365906 
366036 
366265 
366401 
366625 
366751 
366981 
367108 
367339 
367472 
367691 
367818 
368049 
368184 
368401 
368530 
368762 
368891 
369125 
369252 
369466 
369599 
369839 
369969 
370189 
370319 
370545 
370676 
370908 
371084 
371216 
371434 
371612 
371785 
371954 
372127 
372297 
372474 
372650 
372823 
372991 
373165 
373340 
373515 
373681 
373851 
374023 
374199 
374373 
374552 
374723 
374904 
375081 
375256 
375432 
375607 
375781 
375962 
376133 
376304 
376484 
376665 
376840 
377012 
377187 
377364 
377542 
377724 
377898 
378069 
378252 
378433 
378614 
378784 
378967 
379141 
379324 
379503 
379678 
379859 
380047 
380232 
380406 
380593 
380776 
380918 
381122 
381253 
381427 
381693 
381827 
382026 
382230 
382411 
382589 
382769 
382894 
383089 
383216 
383411 
383642 
383820 
383998 
384175 
384351 
384533 
384703 
384868 
385039 
385218 
385388 
385551 
385724 
385889 
386073 
386251 
386415 
386596 
386773 
386954 
387126 
387288 
387472 
387610 
387805 
387938 
388106 
388350 
388530 
388676 
388885 
389055 
389214 
389403 
389583 
389763 
389942 
390112 
390288 
390473 
390628 
390820 
390999 
391139 
391351 
391528 
391658 
391869 
392007 
392178 
392448 
392583 
393025 
393221 
393401 
393582 
393765 
393949 
394125 
394299 
394477 
394655 
394789 
395020 
395200 
395328 
395562 
395745 
395862 
396106 
396240 
396430 
396667 
396840 
396976 
397157 
397295 
397460 
397587 
397739 
398023 
398259 
398404 
398659 
398851 
398987 
399234 
399412 
399546 
399778 
399963 
400103 
400320 
400492 
400632 
400847 
401024 
401160 
401371 
401551 
401682 
401851 
402053 
402241 
402427 
402605 
402775 
402949 
403120 
403294 
403471 
403635 
403804 
403977 
404156 
404325 
404492 
404660 
404831 
405004 
405182 
405352 
405522 
405699 
405880 
406060 
406229 
406406 
406582 
406760 
406938 
407117 
407290 
407468 
407647 
407825 
407999 
408180 
408359 
408546 
408726 
408909 
409095 
409290 
409444 
409606 
409839 
410003 
410226 
410362 
410538 
410792 
410986 
411166 
411349 
411528 
411710 
411889 
412075 
412250 
412426 
412613 
412792 
412957 
413142 
413326 
413501 
413682 
413862 
414043 
414215 
414403 
414584 
414760 
414936 
415115 
415292 
415470 
415641 
415816 
415988 
416168 
416346 
416518 
416694 
416875 
417053 
417232 
417361 
417559 
417688 
417869 
418113 
418289 
418466 
418642 
418824 
419003 
419175 
419347 
419526 
419702 
419876 
420001 
420191 
420319 
420499 
420735 
420912 
421083 
421240 
421430 
421613 
421785 
421956 
422127 
422303 
422483 
422658 
422787 
422992 
423127 
423291 
423545 
423685 
423895 
424025 
424272 
424396 
424631 
424763 
424991 
425114 
425337 
425461 
425689 
425821 
426044 
426165 
426400 
426529 
426763 
426889 
427113 
427240 
427472 
427600 
427817 
427948 
428182 
428310 
428533 
428662 
428884 
429014 
429241 
429369 
429581 
429714 
429940 
430070 
430286 
430414 
430632 
430760 
430985 
431113 
431325 
431453 
431677 
431810 
432027 
432157 
432380 
432508 
432736 
432868 
433083 
433219 
433440 
433571 
433786 
433919 
434142 
434274 
434493 
434625 
434847 
434984 
435194 
435326 
435542 
435677 
435904 
436037 
436253 
436383 
436602 
436738 
436952 
437082 
437294 
437426 
437642 
437774 
437994 
438120 
438343 
438497 
438680 
438868 
439048 
439221 
439398 
439584 
439756 
439898 
440099 
440297 
440477 
440653 
440829 
440957 
441117 
441355 
441539 
441714 
441899 
442083 
442263 
442437 
442615 
442793 
442968 
443149 
443326 
443500 
443685 
443865 
444041 
444217 
444396 
444575 
444760 
444937 
445112 
445298 
445481 
445662 
445793 
445992 
446121 
446287 
446548 
446677 
446872 
447089 
447267 
447440 
447616 
447791 
447969 
448150 
448323 
448493 
448673 
448853 
449031 
449205 
449384 
449559 
449736 
449915 
450053 
450250 
450385 
450556 
450802 
450978 
451124 
451337 
451476 
451648 
451876 
452062 
452244 
452426 
452599 
452774 
452948 
453128 
453304 
453476 
453651 
453829 
454006 
454185 
454362 
454542 
454721 
454904 
455084 
455259 
455442 
455625 
455803 
455977 
456160 
456339 
456521 
456707 
456888 
457063 
457245 
457428 
457604 
457780 
457961 
458142 
458319 
458497 
458674 
458848 
459031 
459173 
459383 
459514 
459678 
459927 
460064 
460262 
460473 
460656 
460840 
461022 
461200 
461382 
461559 
461745 
461922 
462100 
