2 
213 
426 
630 
833 
1032 
1233 
1455 
1668 
1874 
2081 
2287 
2488 
2689 
2906 
3123 
3334 
3541 
3744 
3945 
4150 
4357 
4576 
4785 
4996 
5203 
5403 
5608 
5808 
6029 
6243 
6451 
6658 
6865 
7066 
7265 
7479 
7696 
7907 
8116 
8323 
8527 
8726 
8931 
9151 
9365 
9574 
9780 
9987 
10186 
10384 
10605 
10821 
11029 
11233 
11441 
11645 
11843 
12054 
12272 
12484 
12696 
12901 
13106 
13304 
13506 
13727 
13939 
14147 
14341 
14557 
14765 
14962 
15179 
15397 
15604 
15811 
15911 
15992 
16105 
16197 
16290 
16417 
16627 
16741 
16844 
17053 
17269 
17475 
17676 
17879 
18079 
18298 
18512 
18720 
18928 
19136 
19315 
19527 
19743 
19960 
20170 
20380 
20585 
20789 
20976 
21183 
21411 
21622 
21833 
22042 
22248 
22446 
22646 
22864 
23058 
23263 
23485 
23692 
23895 
24093 
24305 
24521 
24731 
24943 
25129 
25346 
25545 
25748 
25965 
26177 
26388 
26596 
26804 
26991 
27202 
27418 
27631 
27839 
28051 
28259 
28461 
28645 
28860 
29081 
29293 
29507 
29715 
29804 
29923 
30021 
30120 
30318 
30528 
30736 
30957 
31165 
31377 
31463 
31562 
31775 
31990 
32206 
32408 
32534 
32623 
32825 
33020 
33227 
33436 
33653 
33781 
33883 
33988 
34078 
34169 
34269 
34376 
34477 
34696 
34892 
35105 
35314 
35493 
35615 
35717 
35926 
36025 
36103 
36219 
36326 
36535 
36715 
36961 
37158 
37383 
37581 
37706 
37804 
37901 
37988 
38095 
38193 
38296 
38413 
38596 
38794 
38959 
39192 
39420 
39632 
39848 
40046 
40269 
40474 
40578 
40683 
40785 
40868 
41083 
41300 
41511 
41704 
41905 
42129 
42215 
42327 
42525 
42742 
42955 
43163 
43375 
43464 
43572 
43786 
43971 
44164 
44393 
44603 
44817 
45026 
45232 
45432 
45634 
45846 
46058 
46248 
46446 
46671 
46809 
46912 
47069 
47283 
47497 
47590 
47704 
47916 
48127 
48330 
48529 
48736 
48947 
49158 
49374 
49552 
49758 
49960 
50163 
50380 
50594 
50803 
51016 
51228 
51430 
51628 
51836 
52050 
52260 
52475 
52684 
52892 
53087 
53286 
53383 
53474 
53577 
53714 
53920 
54132 
54333 
54527 
54718 
54922 
55130 
55337 
55546 
55754 
55955 
56151 
56348 
56557 
56764 
56970 
57179 
57386 
57584 
57775 
57978 
58185 
58391 
58533 
58753 
58962 
59160 
59357 
59571 
59780 
59990 
60203 
60416 
60618 
60815 
61023 
61234 
61445 
61657 
61870 
62077 
62274 
62478 
62689 
62899 
63114 
63326 
63537 
63735 
63932 
64145 
64354 
64559 
64771 
64986 
65189 
65385 
65598 
65769 
66015 
66208 
66432 
66629 
66797 
67026 
67236 
67446 
67659 
67872 
68088 
68289 
68487 
68698 
68905 
69112 
69326 
69539 
69744 
69941 
70147 
70308 
70407 
70500 
70601 
70782 
70995 
71178 
71345 
71539 
71738 
71940 
72147 
72352 
72562 
72767 
72957 
73153 
73355 
73560 
73764 
73971 
74182 
74377 
74569 
74771 
74971 
75180 
75390 
75598 
75807 
76002 
76198 
76410 
76617 
76827 
77041 
77244 
77458 
77656 
77861 
78074 
78174 
78282 
78468 
78708 
78801 
78907 
79038 
79141 
79259 
79361 
79458 
79550 
79632 
79741 
79954 
80055 
80157 
80254 
80357 
80429 
80551 
80657 
80779 
80988 
81191 
81404 
81525 
81626 
81720 
81799 
81963 
82057 
82180 
82273 
82386 
82478 
82653 
82857 
83073 
83286 
83497 
83577 
83695 
83793 
83899 
84001 
84104 
84248 
84352 
84529 
84742 
84956 
85154 
85355 
85564 
85767 
85979 
86194 
86410 
86614 
86810 
87019 
87225 
87430 
87643 
87861 
88070 
88270 
88476 
88680 
88886 
89101 
89315 
89530 
89731 
89930 
90139 
90342 
90552 
90767 
90985 
91191 
91388 
91597 
91793 
91988 
92192 
92393 
92597 
92787 
92977 
93181 
93375 
93575 
93781 
93995 
94199 
94393 
94596 
94800 
95005 
95215 
95428 
95647 
95847 
96046 
96260 
96466 
96676 
96901 
97109 
97314 
97466 
97691 
97942 
98128 
98341 
98557 
98770 
98988 
99195 
99379 
99583 
99797 
100012 
100228 
100430 
100629 
100835 
101038 
101245 
101456 
101675 
101880 
102072 
102282 
102486 
102692 
102905 
103129 
103343 
103552 
103764 
103952 
104156 
104369 
104583 
104801 
105004 
105204 
105411 
105612 
105820 
106035 
106255 
106461 
106659 
106869 
107071 
107273 
107484 
107705 
107888 
108071 
108276 
108483 
108686 
108894 
109108 
109328 
109541 
109742 
109950 
110152 
110355 
110568 
110790 
111002 
111201 
111410 
111612 
111810 
112022 
112238 
112452 
112657 
112838 
113042 
113249 
113465 
113680 
113901 
114108 
114307 
114515 
114716 
114917 
115129 
115349 
115563 
115764 
115971 
116177 
116377 
116557 
116766 
116989 
117198 
117401 
117611 
117810 
118015 
118227 
118447 
118659 
118859 
119068 
119270 
119470 
119679 
119897 
120111 
120316 
120521 
120725 
120925 
121135 
121320 
121520 
121737 
121940 
122147 
122346 
122549 
122759 
122980 
123194 
123396 
123606 
123807 
124005 
124214 
124429 
124648 
124855 
125059 
125264 
125462 
125669 
125882 
126102 
126311 
126513 
126694 
126892 
127089 
127303 
127528 
127744 
127947 
128157 
128361 
128558 
128764 
128977 
129194 
129402 
129609 
129813 
130011 
130216 
130427 
130649 
130833 
131028 
131246 
131451 
131658 
131854 
132073 
132290 
132498 
132706 
132909 
133108 
133314 
133526 
133745 
133954 
134159 
134366 
134564 
134765 
134966 
135150 
135370 
135587 
135798 
136000 
136198 
136403 
136617 
136835 
137043 
137251 
137458 
137654 
137858 
138069 
138291 
138502 
138685 
138897 
139108 
139306 
139511 
139729 
139944 
140150 
140362 
140564 
140762 
140967 
141179 
141398 
141609 
141791 
142000 
142208 
142410 
142617 
142839 
143051 
143257 
143470 
143670 
143865 
144069 
144286 
144502 
144710 
144923 
145108 
145293 
145502 
145718 
145937 
146146 
146356 
146565 
146762 
146964 
147170 
147389 
147604 
147810 
148024 
148227 
148420 
148606 
148807 
149031 
149246 
149461 
149666 
149863 
150067 
150273 
150491 
150702 
150911 
151123 
151320 
151518 
151722 
151924 
152127 
152351 
152568 
152770 
152966 
153166 
153377 
153595 
153806 
154019 
154226 
154421 
154611 
154802 
155035 
155247 
155456 
155671 
155870 
156067 
156269 
156484 
156700 
156909 
157125 
157322 
157525 
157729 
157937 
158154 
158366 
158580 
158790 
158987 
159188 
159392 
159610 
159803 
160011 
160241 
160444 
160637 
160840 
161052 
161267 
161477 
161696 
161901 
162098 
162299 
162504 
162706 
162912 
163131 
163350 
163548 
163747 
163951 
164167 
164381 
164591 
164809 
165011 
165204 
165404 
165616 
165813 
166017 
166245 
166458 
166654 
166855 
167059 
167273 
167485 
167700 
167911 
168110 
168311 
168512 
168715 
168933 
169150 
169371 
169575 
169768 
169969 
170180 
170392 
170602 
170823 
171032 
171219 
171420 
171631 
171843 
172054 
172271 
172484 
172683 
172885 
173087 
173299 
173512 
173706 
173931 
174142 
174337 
174537 
174748 
174962 
175171 
175394 
175603 
175798 
175998 
176182 
176400 
176616 
176831 
177045 
177246 
177447 
177649 
177862 
178072 
178283 
178504 
178704 
178880 
179092 
179299 
179509 
179720 
179939 
180153 
180352 
180553 
180756 
180967 
181176 
181380 
181608 
181813 
182012 
182213 
182421 
182630 
182841 
183063 
183272 
183469 
183661 
183873 
184084 
184295 
184516 
184728 
184929 
185129 
185328 
185539 
185745 
185929 
186163 
186368 
186566 
186768 
186976 
187183 
187393 
187610 
187815 
188023 
188221 
188427 
188636 
188844 
189065 
189281 
189484 
189684 
189886 
190083 
190291 
190515 
190734 
190938 
191141 
191341 
191550 
191755 
191964 
192190 
192400 
192598 
192772 
192983 
193194 
193402 
193624 
193838 
194042 
194243 
194443 
194650 
194858 
195073 
195293 
195500 
195682 
195888 
196104 
196308 
196517 
196740 
196950 
197150 
197351 
197555 
197760 
197961 
198181 
198406 
198609 
198811 
199013 
199217 
199421 
199637 
199856 
200060 
200265 
200472 
200680 
200883 
201090 
201315 
201529 
201728 
201929 
202131 
202336 
202543 
202767 
202983 
203189 
203392 
203592 
203797 
204000 
204208 
204435 
204642 
204848 
205049 
205254 
205457 
205664 
205889 
206101 
206292 
206496 
206712 
206915 
207117 
207340 
207558 
207761 
207963 
208165 
208368 
208548 
208773 
208993 
209202 
209411 
209613 
209818 
210017 
210224 
210446 
210657 
210844 
211059 
211266 
211468 
211670 
211891 
212109 
212315 
212518 
212722 
212914 
213125 
213340 
213560 
213769 
213978 
214180 
214384 
214584 
214788 
215011 
215222 
215432 
215634 
215841 
216042 
216243 
216465 
216678 
216886 
217092 
217298 
217501 
217701 
217916 
218134 
218341 
218552 
218755 
218960 
219158 
219364 
219584 
219794 
220007 
220201 
220418 
220620 
220820 
221040 
221255 
221463 
221668 
221876 
222064 
222267 
222489 
222708 
222917 
223129 
223333 
223537 
223735 
223942 
224150 
224372 
224582 
224789 
224996 
225194 
225393 
225614 
225828 
226026 
226237 
226452 
226654 
226852 
227065 
227281 
227492 
227702 
227907 
228112 
228310 
228517 
228734 
228944 
229158 
229366 
229572 
229769 
229970 
230185 
230397 
230607 
230817 
231028 
231227 
231424 
231640 
231854 
232063 
232273 
232483 
232687 
232883 
233089 
233305 
233516 
233729 
233938 
234146 
234342 
234545 
234759 
234970 
235182 
235393 
235602 
235801 
235998 
236212 
236418 
236630 
236843 
237038 
237254 
237452 
237661 
237872 
238072 
238288 
238507 
238715 
238912 
239113 
239326 
239535 
239748 
239949 
240167 
240373 
240569 
240781 
240990 
241201 
241413 
241627 
241829 
242021 
242236 
242447 
242658 
242872 
243085 
243292 
243489 
243693 
243896 
244112 
244328 
244539 
244753 
244952 
245148 
245362 
245569 
245778 
245994 
246208 
246410 
246606 
246817 
247025 
247234 
247447 
247660 
247869 
248067 
248270 
248479 
248688 
248898 
249113 
249331 
249529 
249728 
249937 
250143 
250353 
250561 
250775 
250986 
251181 
251392 
251599 
251804 
252018 
252236 
252424 
252632 
252840 
253045 
253253 
253469 
253681 
253896 
254096 
254290 
254492 
254707 
254921 
255136 
255353 
255554 
255751 
255961 
256165 
256371 
256561 
256790 
257000 
257196 
257405 
257611 
257814 
258027 
258242 
258445 
258654 
258860 
259065 
259268 
259482 
259697 
259917 
260122 
260316 
260523 
260730 
260933 
261149 
261367 
261576 
261775 
261984 
262186 
262389 
262602 
262820 
263034 
263236 
263440 
263644 
263845 
264059 
264274 
264491 
264696 
264896 
265104 
265307 
265510 
265726 
265947 
266156 
266354 
266565 
266768 
266968 
267167 
267394 
267609 
267812 
268019 
268222 
268424 
268636 
268850 
269054 
269263 
269473 
269680 
269878 
270084 
270298 
270519 
270730 
270930 
271122 
271336 
271534 
271744 
271964 
272177 
272379 
272588 
272791 
272974 
273189 
273411 
273628 
273836 
274041 
274245 
274445 
274653 
274862 
275086 
275294 
275496 
275705 
275905 
276103 
276315 
276536 
276749 
276953 
277165 
277367 
277563 
277768 
277985 
278200 
278407 
278617 
278820 
279018 
279225 
279437 
279656 
279867 
280075 
280280 
280479 
280681 
280890 
281113 
281325 
281521 
281742 
281941 
282136 
282344 
282561 
282776 
282985 
283197 
283398 
283596 
283799 
284012 
284230 
284439 
284651 
284857 
285055 
285246 
285467 
285688 
285901 
286107 
286319 
286519 
286714 
286919 
287139 
287338 
287556 
287775 
287978 
288173 
288377 
288588 
288804 
289014 
289227 
289429 
289630 
289832 
290040 
290260 
290471 
290682 
290894 
291086 
291282 
291494 
291713 
291927 
292136 
292352 
292554 
292747 
292948 
293163 
293379 
293587 
293806 
294011 
294207 
294408 
294615 
294830 
295042 
295256 
295466 
295664 
295866 
296070 
296283 
296500 
296710 
296927 
297128 
297323 
297526 
297731 
297943 
298161 
298383 
298589 
298783 
298982 
299192 
299405 
299600 
299830 
300042 
300239 
300441 
300642 
300856 
301070 
301282 
301498 
301683 
301892 
302095 
302309 
302521 
302731 
302953 
303156 
303350 
303538 
303756 
303970 
304181 
304402 
304612 
304810 
305011 
305215 
305423 
305635 
305854 
306070 
306269 
306471 
306672 
306883 
307095 
307305 
307527 
307734 
307929 
308129 
308339 
308548 
308758 
308984 
309193 
309390 
309589 
309792 
310002 
310212 
310432 
310647 
310850 
311051 
311252 
311461 
311670 
311884 
312103 
312307 
312507 
312707 
312917 
313125 
313335 
313554 
313766 
313965 
314164 
314372 
314577 
314785 
315009 
315222 
315407 
315621 
315821 
316029 
316237 
316454 
316672 
316878 
317081 
317268 
317486 
317690 
317902 
318125 
318334 
318535 
318735 
318942 
319147 
319347 
319580 
319793 
319993 
320192 
320397 
320600 
320804 
321027 
321230 
321449 
321653 
321853 
322059 
322264 
322477 
322697 
322906 
323109 
323313 
323520 
323721 
323930 
324154 
324365 
324568 
324767 
324975 
325179 
325381 
325604 
325819 
326024 
326227 
326430 
326633 
326836 
327054 
327272 
327482 
327692 
327893 
328098 
328299 
328506 
328730 
328942 
329147 
329350 
329557 
329756 
329960 
330186 
330401 
330606 
330810 
331013 
331215 
331399 
331630 
331847 
332057 
332264 
332467 
332671 
332871 
333081 
333281 
333502 
333714 
333917 
334124 
334324 
334525 
334748 
334960 
335165 
335351 
335572 
335772 
335971 
336190 
336405 
336613 
336821 
337026 
337217 
337417 
337637 
337854 
338065 
338278 
338484 
338689 
338887 
339085 
339309 
339520 
339732 
339939 
340147 
340346 
340543 
340760 
340971 
341184 
341395 
341604 
341803 
342001 
342216 
342429 
342638 
342849 
343057 
343261 
343460 
343665 
343881 
344093 
344307 
344517 
344725 
344923 
345123 
345337 
345547 
345758 
345970 
346180 
346381 
346576 
346791 
347003 
347212 
347413 
347637 
347839 
348037 
348246 
348458 
348669 
348883 
349072 
349292 
349490 
349691 
349905 
350114 
350327 
350541 
350753 
350951 
351130 
351355 
351566 
351775 
351987 
352201 
352404 
352600 
352811 
353022 
353211 
353439 
353651 
353858 
354057 
354259 
354467 
354676 
354892 
355094 
355313 
355518 
355716 
355927 
356133 
356342 
356558 
356774 
356975 
357171 
357382 
357586 
357793 
358007 
358226 
358433 
358630 
358836 
359045 
359251 
359465 
359680 
359891 
360090 
360293 
360495 
360701 
360920 
361133 
361351 
361551 
361749 
361959 
362161 
362366 
362585 
362803 
363008 
363205 
363415 
363618 
363822 
364029 
364249 
364466 
364665 
364871 
365077 
365279 
365491 
365707 
365904 
366119 
366321 
366526 
366726 
366938 
367153 
367372 
367578 
367770 
367965 
368177 
368379 
368592 
368814 
369025 
369225 
369434 
369637 
369828 
370041 
370268 
370483 
370687 
370891 
371097 
371296 
371506 
371722 
371939 
372146 
372349 
372557 
372757 
372962 
373174 
373395 
373599 
373806 
374016 
374216 
374414 
374625 
374844 
375059 
375262 
375462 
375675 
375875 
376082 
376296 
376516 
376723 
376927 
377128 
377330 
377536 
377750 
377968 
378177 
378385 
378590 
378781 
378985 
379200 
379422 
379633 
379837 
380048 
380249 
380445 
380634 
380868 
381082 
381290 
381502 
381705 
381902 
382105 
382317 
382510 
382729 
382938 
383147 
383344 
383546 
383756 
383975 
384186 
384379 
384591 
384800 
384997 
385200 
385418 
385635 
385842 
386059 
386261 
386445 
386658 
386871 
387089 
387299 
387514 
387719 
387915 
388118 
388320 
388541 
388753 
388965 
389175 
389373 
389574 
389780 
389999 
390211 
390420 
390636 
390837 
391033 
391234 
391449 
391665 
391874 
392093 
392300 
392494 
392695 
392904 
393118 
393329 
393547 
393757 
393954 
394156 
394359 
394575 
394782 
394998 
395215 
395414 
395612 
395815 
396029 
396241 
396438 
396671 
396875 
397070 
397269 
397479 
397695 
397905 
398125 
398315 
398526 
398724 
398928 
399138 
399350 
399567 
399779 
399979 
400182 
400361 
400584 
400794 
401006 
401226 
401431 
401629 
401830 
402039 
402248 
402438 
402675 
402886 
403081 
403280 
403487 
403696 
403904 
404126 
404337 
404541 
404741 
404942 
405149 
405356 
405574 
405790 
405995 
406190 
406398 
406607 
406816 
407026 
407249 
407457 
407656 
407856 
408059 
408272 
408481 
408705 
408916 
409115 
409316 
409519 
409721 
409932 
410153 
410370 
410574 
410776 
410978 
411183 
411377 
411593 
411824 
412033 
412239 
412440 
412648 
412851 
413058 
413269 
413489 
413695 
413896 
414104 
414306 
414511 
414737 
414952 
415156 
415337 
415545 
415753 
415955 
416172 
416391 
416599 
416806 
417008 
417212 
417397 
417609 
417842 
418051 
418258 
418460 
418668 
418870 
419072 
419296 
419495 
419696 
419912 
420118 
420319 
420519 
420741 
420956 
421163 
421369 
421566 
421776 
421975 
422187 
422407 
422618 
422829 
423031 
423237 
423434 
423642 
423862 
424073 
424284 
424489 
424695 
424894 
425087 
425315 
425530 
425736 
425944 
426153 
426352 
426551 
426769 
426979 
427191 
427400 
427607 
427810 
428008 
428219 
428436 
428639 
428852 
429068 
429274 
429471 
429675 
429890 
430100 
430314 
430523 
430715 
430925 
431124 
431339 
431552 
431762 
431974 
432186 
432386 
432583 
432788 
433006 
433220 
433430 
433641 
433846 
434043 
434249 
434464 
434675 
434890 
435091 
435306 
435504 
435707 
435920 
436128 
436342 
436555 
436767 
436966 
437152 
437370 
437586 
437795 
438008 
438223 
438425 
438622 
438833 
439041 
439248 
439463 
439677 
439885 
440082 
440288 
440497 
440705 
440915 
441120 
441343 
441541 
441742 
441949 
442153 
442371 
442586 
442793 
442992 
443199 
443408 
443614 
443823 
444037 
444257 
444461 
444645 
444855 
445073 
445276 
445490 
445709 
445918 
446115 
446323 
446529 
446723 
446942 
447160 
447374 
447572 
447776 
447981 
448183 
448398 
448612 
448818 
449022 
449233 
449440 
449641 
449847 
450061 
450283 
450492 
450690 
450900 
451090 
451290 
451516 
451734 
451947 
452149 
452355 
452558 
452758 
452969 
453177 
453398 
453606 
453812 
454016 
454216 
454427 
454642 
454862 
455069 
455269 
455478 
455679 
455880 
456093 
456315 
456526 
456728 
456935 
457134 
457339 
457548 
457767 
457982 
458186 
458395 
458598 
458792 
459002 
459217 
459435 
459645 
459852 
460056 
460253 
460461 
460668 
460894 
461104 
461308 
461516 
461713 
461912 
462123 
