4.30859375 2.414662 1.602103 -0.812559
4.671875 0.23210200000000003 -0.58 -0.812102
5.0546875 0.03101900000000002 -0.54884 -0.579859
5.5234375 2.122214 1.282727 -0.839487
5.875 0.289416 -0.66 -0.949416
6.78515625 2.485484 1.436418 -1.049066
7.1328125 0.25911000000000006 -0.83089 -1.09
8.01171875 2.1195779999999997 1.014719 -1.104859
9.18359375 2.505775 1.251625 -1.25415
10.3984375 2.173578 0.983908 -1.18967
11.54296875 2.5384659999999997 1.383444 -1.155022
12.7578125 2.1770329999999998 1.14735 -1.029683
13.93359375 2.509361 1.419266 -1.090095
15.16015625 2.21469 1.177515 -1.037175
16.328125 2.509051 1.394051 -1.115
17.5703125 2.379011 1.274234 -1.104777
18.765625 2.388344 1.246548 -1.141796
19.99609375 2.509439 1.372303 -1.137136
21.203125 2.358284 1.218284 -1.14
22.421875 2.529065 1.354914 -1.174151
23.609375 2.388745 1.184199 -1.204546
24.8203125 2.5687550000000003 1.437211 -1.131544
25.984375 2.331915 1.218491 -1.113424
27.203125 2.637269 1.507269 -1.13
28.38671875 2.257857 1.191846 -1.066011
29.61328125 2.6388049999999996 1.475094 -1.163711
30.79296875 2.237529 1.152529 -1.085
31.9921875 2.636737 1.471737 -1.165
33.19921875 2.262584 1.14449 -1.118094
34.40234375 2.659049 1.432161 -1.226888
35.5859375 2.291995 1.119952 -1.172043
36.765625 2.4328209999999997 1.217949 -1.214872
37.97265625 2.529338 1.384338 -1.145
39.16796875 2.120223 1.283801 -0.836422
40.3515625 2.3835290000000002 1.370265 -1.013264
41.61328125 2.4987120000000003 1.325712 -1.173
42.828125 2.17246 1.042131 -1.130329
44.0703125 2.317 1.153143 -1.163857
45.3203125 2.490714 1.34207 -1.148644
46.57421875 2.3473759999999997 1.212376 -1.135
47.77734375 2.3688890000000002 1.226361 -1.142528
49.02734375 2.4869329999999996 1.315 -1.171933
50.24609375 2.163942 1.109093 -1.054849
51.4921875 2.456428 1.504567 -0.951861
52.73046875 2.271276 1.514994 -0.756282
53.93359375 2.267182 1.354225 -0.912957
55.1875 2.386821 1.303667 -1.083154
56.4375 2.15207 1.062083 -1.089987
57.69921875 2.495025 1.302404 -1.192621
58.9453125 2.148192 1.044234 -1.103958
60.140625 2.385506 1.250506 -1.135
61.3671875 2.324185 1.234479 -1.089706
62.58984375 2.47326 1.400569 -1.072691
63.85546875 1.89822 0.92 -0.97822
65.05859375 2.474903 1.339948 -1.134955
66.3828125 2.493707 1.359401 -1.134306
67.671875 2.3695370000000002 1.304908 -1.064629
68.9296875 2.205139 1.095 -1.110139
70.14453125 2.503536 1.359942 -1.143594
71.35546875 2.142111 1.134972 -1.007139
72.51953125 2.545797 1.585797 -0.96
73.71875 2.197935 1.334073 -0.863862
74.8671875 2.379553 1.524553 -0.855
76.09765625 2.44926 1.539306 -0.909954
77.3671875 2.181165 1.232992 -0.948173
78.546875 2.14718 1.324447 -0.822733
79.79296875 2.282712 1.55279 -0.729922
80.94140625 2.2099789999999997 1.200829 -1.00915
82.15234375 2.351942 1.06949 -1.282452
83.390625 2.3532840000000004 1.013284 -1.34
84.58203125 2.1855219999999997 0.957444 -1.228078
85.796875 2.521229 1.218998 -1.302231
86.99609375 2.18872 1.06872 -1.12
88.203125 2.402977 1.292977 -1.11
89.43359375 2.45728 1.339103 -1.118177
90.66796875 2.2825290000000003 1.227529 -1.055
91.90234375 2.4655370000000003 1.348411 -1.117126
93.1015625 2.428928 1.288945 -1.139983
94.3203125 2.2183469999999996 1.109303 -1.109044
95.546875 2.437025 1.312025 -1.125
96.78125 2.311172 1.152344 -1.158828
97.9609375 2.470198 1.162003 -1.308195
99.13671875 2.488537 1.221956 -1.266581
100.3515625 2.401589 1.275483 -1.126106
101.625 2.480739 1.36 -1.120739
102.8671875 2.24111 1.135 -1.10611
104.109375 2.473871 1.320954 -1.152917
105.37109375 2.268875 1.197006 -1.071869
106.58203125 2.385663 1.310896 -1.074767
107.84765625 2.404046 1.269859 -1.134187
109.09765625 2.386234 1.243553 -1.142681
110.3203125 2.157563 1.328605 -0.828958
111.58984375 2.1933800000000003 1.54858 -0.6448
112.87890625 2.207524 1.432993 -0.774531
114.1328125 2.064804 0.974804 -1.09
115.32421875 2.335165 1.161317 -1.173848
116.5546875 2.236581 1.236581 -1.0
117.72265625 1.9668900000000002 1.123687 -0.843203
118.94921875 2.279604 1.239084 -1.04052
120.1328125 2.167263 0.879302 -1.287961
121.33203125 2.193707 0.758707 -1.435
122.52734375 2.502106 1.011366 -1.49074
123.765625 2.14894 0.779275 -1.369665
124.9296875 2.500637 1.231455 -1.269182
126.171875 2.4481450000000002 1.323145 -1.125
127.39453125 2.224817 1.224958 -0.999859
128.60546875 2.283748 1.849974 -0.433774
129.84765625 2.102602 1.33451 -0.768092
131.0234375 2.3417120000000002 1.111895 -1.229817
132.24609375 2.5000549999999997 1.112504 -1.387551
133.4921875 2.1352830000000003 0.798456 -1.336827
134.69921875 2.474068 1.221117 -1.252951
135.91015625 2.464553 1.275 -1.189553
137.07421875 2.384224 1.224471 -1.159753
138.296875 2.4526 1.365 -1.0876
139.47265625 2.222455 1.104132 -1.118323
140.6796875 2.656859 1.451859 -1.205
141.87109375 2.205719 1.000719 -1.205
143.07421875 2.624565 1.460488 -1.164077
144.30859375 2.3595360000000003 1.389536 -0.97
145.50390625 2.353167 1.363369 -0.989798
146.73828125 2.492118 1.562261 -0.929857
147.90234375 2.242143 1.307636 -0.934507
149.07421875 2.511802 1.618561 -0.893241
150.2890625 2.204977 1.419977 -0.785
151.48046875 2.494472 1.744947 -0.749525
152.71875 2.066787 1.933309 -0.133478
153.87109375 2.017927 1.845902 -0.172025
155.0859375 2.236187 1.536404 -0.699783
156.3203125 2.081951 0.978945 -1.103006
157.52734375 2.4389469999999998 1.099531 -1.339416
158.73046875 2.186346 0.684971 -1.501375
159.91796875 2.40884 0.85884 -1.55
161.15625 2.475616 1.175 -1.300616
162.3203125 2.1716680000000004 1.066961 -1.104707
163.53515625 2.505446 1.477046 -1.0284
164.7109375 2.130566 1.140566 -0.99
165.890625 2.521203 1.504406 -1.016797
167.11328125 2.12674 1.208303 -0.918437
168.296875 2.465713 1.462142 -1.003571
169.49609375 2.2895849999999998 1.242034 -1.047551
170.640625 2.307674 1.22255 -1.085124
171.859375 2.4525379999999997 1.358307 -1.094231
173.0546875 2.0666539999999998 1.071802 -0.994852
174.25390625 2.407401 1.199319 -1.208082
175.421875 2.189318 0.969689 -1.219629
176.59375 2.014335 1.655 -0.359335
177.796875 1.8642079999999999 1.479566 -0.384642
178.94921875 1.8541880000000002 0.944188 -0.91
180.18359375 2.269476 0.899476 -1.37
181.34765625 2.05756 0.514318 -1.543242
182.53125 2.446113 0.806814 -1.639299
183.73828125 2.073893 0.456758 -1.617135
184.9453125 2.463591 0.943591 -1.52
186.1484375 2.200399 0.915454 -1.284945
187.34375 2.4779590000000002 1.299051 -1.178908
188.5859375 2.444919 1.559919 -0.885
189.78125 1.9125880000000002 1.803214 -0.109374
191.0078125 2.1976080000000002 1.668724 -0.528884
192.21875 2.190996 1.157321 -1.033675
193.39453125 2.3949800000000003 1.03498 -1.36
194.63671875 2.481217 1.063728 -1.417489
195.8671875 2.2264090000000003 0.866562 -1.359847
197.0703125 2.4662110000000004 1.221211 -1.245
198.28515625 2.5788219999999997 1.249364 -1.329458
199.52734375 2.2877799999999997 0.94 -1.34778
200.734375 2.665772 1.306071 -1.359701
201.98828125 2.503478 1.229736 -1.273742
203.171875 2.416481 1.159051 -1.25743
204.375 2.3110660000000003 2.095 -0.216066
205.5703125 1.781423 1.735798 -0.045625
206.7578125 2.1675050000000002 1.22778 -0.939725
207.99609375 2.21548 0.595656 -1.619824
209.1796875 2.342286 0.498104 -1.844182
210.4140625 2.508833 0.889123 -1.61971
211.66796875 2.27427 0.849438 -1.424832
212.953125 2.674195 1.409195 -1.265
214.171875 2.449771 1.349914 -1.099857
215.40234375 2.413147 1.358611 -1.054536
216.63671875 2.69135 1.646874 -1.044476
217.83984375 2.5377650000000003 1.530357 -1.007408
219.08984375 2.533724 1.46 -1.073724
220.30078125 2.430001 1.30749 -1.122511
221.57421875 2.616808 1.441808 -1.175
222.85546875 2.2234990000000003 1.144994 -1.078505
224.10546875 2.614423 1.635553 -0.97887
225.3359375 2.6 1.715 -0.885
226.5546875 2.220374 1.368874 -0.8515
227.796875 2.5179839999999998 1.66373 -0.854254
229.0078125 2.1746600000000003 1.317863 -0.856797
230.22265625 2.546978 1.674156 -0.872822
231.43359375 2.275903 1.455 -0.820903
232.6328125 2.295797 1.418456 -0.877341
233.87890625 2.493965 1.458965 -1.035
235.1015625 2.0859870000000003 0.796028 -1.289959
236.34375 2.494427 1.099635 -1.394792
237.5390625 2.333953 1.129894 -1.204059
238.7421875 2.229152 1.159798 -1.069354
239.95703125 2.5 1.52 -0.98
241.171875 2.188431 1.36 -0.828431
242.3671875 2.299937 1.5 -0.799937
243.57421875 2.3783000000000003 1.7433 -0.635
244.81640625 2.39757 1.539894 -0.857676
246.04296875 2.142932 1.113479 -1.029453
247.28125 2.552143 1.3625 -1.189643
248.4921875 2.3050610000000002 1.133045 -1.172016
249.67578125 2.206847 1.072256 -1.134591
250.890625 2.570302 1.300506 -1.269796
252.109375 2.34497 1.107363 -1.237607
253.26953125 2.1867840000000003 1.034987 -1.151797
254.46484375 2.4890730000000003 1.33003 -1.159043
255.6953125 2.263519 1.1738 -1.089719
256.8671875 2.2663140000000004 1.144106 -1.122208
258.12109375 2.434065 1.441846 -0.992219
259.3203125 2.1101840000000003 1.106063 -1.004121
260.48828125 2.445093 1.24086 -1.204233
261.69140625 2.2365519999999997 0.974826 -1.261726
262.8828125 2.497731 1.154043 -1.343688
264.06640625 2.272866 1.039663 -1.233203
265.1875 2.519062 1.289062 -1.23
266.359375 2.420195 1.305625 -1.11457
267.49609375 2.397206 1.237232 -1.159974
268.70703125 2.538393 1.393393 -1.145
269.83984375 2.2527559999999998 1.097756 -1.155
271.04296875 2.444745 1.379823 -1.064922
272.22265625 2.14982 1.254837 -0.894983
273.37109375 2.4931140000000003 1.598143 -0.894971
274.52734375 2.1442319999999997 1.15 -0.994232
275.65234375 2.449579 1.424491 -1.025088
276.765625 2.037838 1.087838 -0.95
277.8984375 2.403703 1.681559 -0.722144
278.984375 2.096846 1.57002 -0.526826
280.078125 2.359783 1.359783 -1.0
281.125 2.214905 1.11 -1.104905
282.18359375 2.300906 1.344577 -0.956329
283.19921875 2.371365 1.133494 -1.237871
284.23046875 2.4199590000000004 1.309959 -1.11
285.26171875 2.271181 1.452089 -0.819092
286.265625 2.0734079999999997 1.053408 -1.02
287.2578125 2.344512 1.064572 -1.27994
288.23828125 2.378708 0.918411 -1.460297
289.23828125 2.242089 0.457089 -1.785
290.20703125 2.589914 0.940271 -1.649643
291.1875 2.238745 1.297222 -0.941523
292.125 2.202734 1.62 -0.582734
293.0625 2.139284 1.58725 -0.552034
293.9921875 2.242723 1.367723 -0.875
294.9296875 1.937516 0.913832 -1.023684
295.8515625 2.377727 0.917727 -1.46
296.80859375 2.6394520000000004 0.904452 -1.735
297.734375 2.159672 0.869672 -1.29
298.6875 2.32658 1.2905 -1.03608
299.6484375 2.496467 1.211467 -1.285
300.609375 2.2835650000000003 -0.765668 -3.049233
301.58984375 2.247729 1.417073 -0.830656
302.58984375 2.24553 1.07681 -1.16872
303.5546875 2.246919 0.724157 -1.522762
0.0 2.604141 -1.0 -3.604141
305.234375 2.4223500000000002 0.667366 -1.754984
306.23828125 2.4870419999999998 0.817979 -1.669063
307.203125 2.686728 1.007651 -1.679077
308.2109375 2.45 0.87 -1.58
309.203125 2.675 1.14 -1.535
310.2265625 2.584289 1.149296 -1.434993
311.30859375 2.100193 0.569951 -1.530242
312.4375 1.8980890000000001 -0.7725 -2.670589
0.0 1.9386320000000001 -1.0 -2.938632
314.47265625 2.0763570000000002 -0.811114 -2.887471
0.0 1.907089 -1.0 -2.907089
0.0 2.0415 -1.0 -3.0415
0.0 1.9796809999999998 -1.0 -2.979681
0.0 1.9 -1.0 -2.9
0.0 1.8396629999999998 -1.0 -2.839663
0.0 1.7948439999999999 -1.0 -2.794844
0.0 1.8528600000000002 -1.0 -2.85286
0.0 1.9649999999999999 -1.0 -2.965
0.0 2.059072 -1.0 -3.059072
0.0 2.049504 -1.0 -3.049504
0.0 2.03 -1.0 -3.03
327.0390625 1.795236 -0.928871 -2.724107
328.15234375 1.765749 -0.71772 -2.483469
329.234375 1.8572449999999998 -0.649505 -2.50675
330.40234375 2.1914119999999997 -0.227383 -2.418795
331.5234375 0.992407 -0.5 -1.492407
332.51171875 2.692176 1.7836 -0.908576
333.5859375 2.646058 1.799978 -0.84608
334.62109375 2.709495 2.184495 -0.525
335.70703125 2.5913690000000003 2.173321 -0.418048
336.75390625 2.662277 2.213393 -0.448884
337.82421875 2.618586 1.991022 -0.627564
338.91015625 2.649215 1.91 -0.739215
339.984375 2.559922 1.962451 -0.597471
341.046875 2.607399 1.878961 -0.728438
342.0859375 2.56 1.665 -0.895
343.13671875 2.658479 1.423563 -1.234916
344.22265625 2.673696 1.293725 -1.379971
345.32421875 2.697503 1.334723 -1.36278
346.40625 2.6217680000000003 1.216768 -1.405
347.5078125 2.657605 1.273022 -1.384583
348.5390625 2.514532 1.479627 -1.034905
349.609375 2.406827 1.542425 -0.864402
350.66015625 2.581584 1.46593 -1.115654
351.73828125 2.434021 1.36 -1.074021
352.8125 2.625533 1.510547 -1.114986
353.84765625 2.492058 1.438696 -1.053362
354.93359375 2.488849 1.788849 -0.7
355.9921875 2.306213 1.984344 -0.321869
357.046875 1.7260710000000001 2.049007 0.322936
358.12890625 1.804573 1.580274 -0.224299
359.19140625 2.019877 0.899877 -1.12
360.23828125 2.283868 0.819415 -1.464453
361.29296875 2.367671 0.679628 -1.688043
362.34375 2.5388279999999996 0.888828 -1.65
363.40625 2.4456480000000003 0.7861 -1.659548
364.4609375 2.63458 0.989894 -1.644686
365.5234375 2.564353 0.824521 -1.739832
366.640625 2.732965 0.987965 -1.745
367.703125 2.622161 0.952161 -1.67
368.83203125 2.613473 1.253473 -1.36
369.87890625 2.6559530000000002 1.315953 -1.34
370.98828125 2.691629 1.284723 -1.406906
372.0625 2.639148 1.299148 -1.34
373.19921875 2.73932 1.402515 -1.336805
374.29296875 2.603479 1.244845 -1.358634
375.44921875 2.719062 1.429577 -1.289485
376.5625 2.5971960000000003 1.437206 -1.15999
377.66796875 2.1649249999999998 2.59014 0.425215
378.8046875 1.536382 2.317341 0.780959
379.91796875 1.7447750000000002 1.465 -0.279775
381.0390625 2.169877 0.839877 -1.33
382.109375 2.452865 0.673374 -1.779491
383.20703125 2.501369 0.686369 -1.815
384.3125 2.653654 0.902333 -1.751321
385.4140625 2.59456 0.859615 -1.734945
386.51171875 2.776019 0.901076 -1.874943
387.57421875 2.728257 0.733257 -1.995
388.609375 2.769299 0.814299 -1.955
389.71875 2.6538009999999996 1.16702 -1.486781
390.83203125 2.755249 1.545249 -1.21
391.953125 2.65899 1.489913 -1.169077
393.0625 2.683225 1.532773 -1.150452
394.15625 2.643593 1.609023 -1.03457
395.2734375 2.8255090000000003 1.830897 -0.994612
396.34765625 2.663346 1.863396 -0.79995
397.48828125 2.789559 2.135227 -0.654332
398.5859375 2.719844 1.939844 -0.78
399.74609375 2.7735440000000002 1.884932 -0.888612
400.87109375 2.6701550000000003 1.745155 -0.925
402.0625 2.627503 1.828646 -0.798857
403.1953125 2.49451 2.081707 -0.412803
404.34375 1.607503 2.445189 0.837686
405.453125 1.472929 1.654081 0.181152
406.63671875 1.7796859999999999 0.809686 -0.97
407.76171875 1.982174 0.367174 -1.615
408.9375 2.254038 -0.015962 -2.27
410.0390625 2.380604 -0.01505 -2.395654
411.1796875 2.2326230000000002 0.780152 -1.452471
412.26171875 2.3377030000000003 1.113336 -1.224367
413.390625 2.4314679999999997 1.108398 -1.32307
414.46875 2.58271 1.268375 -1.314335
415.58984375 2.4858919999999998 1.266109 -1.219783
416.69140625 2.687162 1.483014 -1.204148
417.81640625 2.5048719999999998 1.349872 -1.155
419.0078125 2.7345889999999997 1.511237 -1.223352
420.12890625 2.652839 1.518132 -1.134707
421.24609375 2.732508 1.553153 -1.179355
422.34375 2.52161 1.524051 -0.997559
423.453125 2.373977 2.428977 0.055
424.5078125 2.307716 1.91821 -0.389506
425.57421875 2.371466 1.534852 -0.836614
426.65234375 2.5004090000000003 1.237619 -1.26279
427.74609375 2.4823060000000003 0.876187 -1.606119
428.80859375 2.6271389999999997 0.855 -1.772139
429.9140625 2.644685 0.954797 -1.689888
430.98828125 2.671887 0.956982 -1.714905
432.1171875 2.6878960000000003 1.057984 -1.629912
433.21484375 2.633624 0.838624 -1.795
434.359375 2.712873 0.700134 -2.012739
435.4921875 2.6399369999999998 0.615 -2.024937
436.59765625 2.268725 1.848725 -0.42
437.69140625 1.7843630000000001 1.85 0.065637
438.83203125 2.126956 1.236495 -0.890461
439.96484375 2.426881 0.893206 -1.533675
441.1015625 2.591573 1.001587 -1.589986
442.203125 2.559909 1.084909 -1.475
443.3125 2.6299669999999997 1.31 -1.319967
444.4453125 2.5881819999999998 1.439456 -1.148726
445.40625 2.6362300000000003 1.547109 -1.089121
446.70703125 2.657172 1.547172 -1.11
447.875 2.714612 1.63 -1.084612
449.03515625 2.633655 1.798655 -0.835
450.19140625 2.66278 1.798872 -0.863908
451.3359375 2.6116599999999996 1.644556 -0.967104
452.47265625 2.664865 1.559865 -1.105
453.6015625 2.6881180000000002 1.28075 -1.407368
454.7109375 2.584702 1.041064 -1.543638
455.859375 2.6203849999999997 1.091515 -1.52887
456.953125 2.597031 1.234073 -1.362958
458.12109375 2.6527469999999997 1.446994 -1.205753
459.23828125 2.6484579999999998 1.543458 -1.105
460.4140625 2.6848099999999997 1.614924 -1.069886
461.609375 2.641444 1.502484 -1.13896
462.79296875 2.636271 1.577486 -1.058785
463.96484375 2.588683 1.768683 -0.82
465.15625 2.558176 1.868281 -0.689895
466.2734375 2.591201 1.636644 -0.954557
467.45703125 2.665522 1.210522 -1.455
468.58984375 2.432335 1.298365 -1.13397
469.80859375 1.8052080000000001 2.034463 0.229255
470.92578125 1.9900000000000002 1.62 -0.37
472.11328125 2.436512 1.141859 -1.294653
473.2421875 2.529327 0.969356 -1.559971
474.41015625 2.574855 1.050323 -1.524532
475.52734375 2.626824 1.119557 -1.507267
476.70703125 2.526737 1.516737 -1.01
477.828125 2.527228 1.449707 -1.077521
478.97265625 2.569515 1.274525 -1.29499
480.0859375 2.654614 1.176581 -1.478033
481.22265625 2.597157 1.1469 -1.450257
482.31640625 2.749327 1.238652 -1.510675
483.41796875 2.463886 1.206204 -1.257682
484.515625 2.7434149999999997 1.477617 -1.265798
485.609375 2.391166 1.526309 -0.864857
486.71875 2.29755 2.014339 -0.283211
487.78125 2.249663 1.534663 -0.715
488.87890625 2.5341579999999997 1.159433 -1.374725
489.93359375 2.435 0.885 -1.55
491.015625 2.633425 0.932425 -1.701
492.08984375 2.4063600000000003 1.360458 -1.045902
493.203125 1.819907 1.794907 -0.025
494.32421875 2.006423 1.191423 -0.815
495.484375 2.445524 0.605903 -1.839621
496.65625 2.4956669999999996 0.49096 -2.004707
497.79296875 2.60716 0.688031 -1.919129
498.94921875 2.572475 0.629561 -1.942914
500.1015625 2.6250210000000003 0.520402 -2.104619
501.28515625 2.601996 0.771996 -1.83
502.48828125 2.627723 1.156859 -1.470864
503.6640625 2.617704 1.431101 -1.186603
504.81640625 2.607301 1.667379 -0.939922
506.02734375 2.665501 1.776519 -0.888982
507.1875 2.611672 1.622187 -0.989485
508.4140625 2.63539 1.594894 -1.040496
509.60546875 2.676173 1.434891 -1.241282
510.8203125 2.627762 1.536707 -1.091055
512.0078125 2.6292470000000003 1.649809 -0.979438
513.234375 2.695569 1.645569 -1.05
514.43359375 2.650487 1.451659 -1.198828
515.66015625 2.719876 1.35 -1.369876
516.8515625 2.6273470000000003 1.074661 -1.552686
518.04296875 2.744045 1.268501 -1.475544
519.1953125 2.656805 1.44 -1.216805
520.3515625 2.618395 1.593431 -1.024964
521.5078125 2.703005 1.870796 -0.832209
522.7265625 2.546669 1.803326 -0.743343
523.88671875 2.485222 1.738152 -0.74707
525.13671875 2.510376 1.644739 -0.865637
526.328125 2.549909 1.749909 -0.8
527.46875 2.539521 1.826962 -0.712559
528.65625 2.628879 1.873879 -0.755
529.7734375 2.585099 1.886523 -0.698576
530.89453125 2.379806 1.97 -0.409806
531.9375 2.585681 1.990687 -0.594994
533.01953125 2.286987 1.629987 -0.657
534.203125 2.282798 1.842798 -0.44
535.296875 2.347957 1.34 -1.007957
536.4375 2.474345 1.161923 -1.312422
537.5390625 2.635614 1.159832 -1.475782
538.64453125 2.43987 1.104994 -1.334876
539.72265625 2.502043 1.602902 -0.899141
540.70703125 2.191613 1.891884 -0.299729
541.79296875 1.7565730000000002 1.662422 -0.094151
542.82421875 2.135536 1.135536 -1.0
543.84375 2.047532 0.710589 -1.336943
544.90234375 2.151479 0.952229 -1.19925
545.91796875 2.221498 1.001498 -1.22
546.96484375 1.709341 1.282699 -0.426642
547.9921875 1.416562 1.096562 -0.32
548.99609375 1.8245959999999999 0.425986 -1.39861
550.0625 1.616199 0.767 -0.849199
551.1171875 1.134753 0.809753 -0.325
552.125 1.6782409999999999 0.255 -1.423241
553.1953125 1.877343 -0.080474 -1.957817
554.25390625 1.943089 0.213089 -1.73
555.22265625 2.379251 0.202767 -2.176484
556.23046875 2.210287 0.385287 -1.825
557.20703125 2.193324 0.513324 -1.68
558.23046875 2.746242 0.399994 -2.346248
559.30859375 2.595688 0.149406 -2.446282
560.41015625 2.911781 0.577551 -2.33423
561.5 2.581035 0.44 -2.141035
562.62890625 2.778955 0.926994 -1.851961
563.734375 2.854855 1.200768 -1.654087
564.84765625 2.442641 1.247955 -1.194686
565.97265625 2.718828 1.893886 -0.824942
567.09375 2.699649 1.745673 -0.953976
568.234375 2.617868 1.678337 -0.939531
569.3671875 2.7701409999999997 1.88235 -0.887791
570.50390625 2.4772030000000003 1.189093 -1.28811
571.65234375 2.7373209999999997 1.159649 -1.577672
572.78125 2.717163 1.224661 -1.492502
573.92578125 2.6231739999999997 1.552296 -1.070878
575.0390625 2.802385 1.749894 -1.052491
576.1484375 2.432774 1.312885 -1.119889
577.2578125 2.814584 1.460697 -1.353887
578.3828125 2.485718 1.171544 -1.314174
579.5078125 2.7107840000000003 1.763303 -0.947481
580.6171875 2.4790330000000003 1.439545 -1.039488
581.734375 2.70684 1.42077 -1.28607
582.82421875 2.6127279999999997 1.349796 -1.262932
583.9765625 2.67033 1.665352 -1.004978
585.0859375 2.7164029999999997 1.689951 -1.026452
586.23046875 2.602872 1.629608 -0.973264
587.31640625 2.79402 1.834899 -0.959121
588.42578125 2.540263 1.856774 -0.683489
589.53515625 2.757317 2.222551 -0.534766
590.6328125 2.452689 2.057992 -0.394697
591.72265625 2.7838230000000004 2.359707 -0.424116
592.78125 2.442223 2.138711 -0.303512
593.88671875 2.592864 2.455559 -0.137305
595.01953125 2.3148280000000003 1.749961 -0.564867
596.12109375 2.6692460000000002 1.383954 -1.285292
597.23828125 2.414343 0.864343 -1.55
598.34375 2.740808 1.2265 -1.514308
599.39453125 2.549728 1.07492 -1.474808
600.5234375 2.725835 1.26396 -1.461875
601.5859375 2.7338430000000002 1.384832 -1.349011
602.734375 2.5865910000000003 1.53 -1.056591
603.80078125 2.639213 1.764387 -0.874826
604.89453125 2.485623 1.580498 -0.905125
606.0 2.7168 1.445 -1.2718
607.0859375 2.494977 1.199977 -1.295
608.18359375 2.689831 1.614837 -1.074994
609.26171875 2.38258 1.368499 -1.014081
610.33203125 2.6961199999999996 1.43112 -1.265
612.44921875 2.716742 1.417336 -1.299406
613.53515625 2.39366 1.214658 -1.179002
614.6171875 2.7388250000000003 1.519802 -1.219023
615.46875 2.050538 -0.778661 -2.829199
616.68359375 2.018633 0.805851 -1.212782
617.7890625 2.4390029999999996 1.309003 -1.13
618.921875 2.694808 1.334707 -1.360101
619.9921875 2.583653 1.289321 -1.294332
621.06640625 2.6472309999999997 1.548914 -1.098317
622.125 2.48 1.415 -1.065
623.2265625 2.725488 1.404436 -1.321052
624.3046875 2.522901 1.055317 -1.467584
625.4296875 2.6516089999999997 1.099422 -1.552187
626.5 2.537378 1.14 -1.397378
627.59765625 2.375694 1.119132 -1.256562
628.69140625 2.445546 1.221669 -1.223877
629.8046875 1.626013 0.338134 -1.287879
630.91015625 1.513163 -0.390945 -1.904108
632.125 2.252235 -0.4 -2.652235
633.22265625 2.342499 -0.547356 -2.889855
634.1875 2.2784370000000003 -0.736563 -3.015
635.46484375 2.487961 -0.705 -3.192961
636.6171875 2.3727400000000003 -0.687473 -3.060213
637.64453125 2.0318449999999997 0.529974 -1.501871
638.76171875 2.506325 1.267493 -1.238832
639.890625 2.757896 1.523365 -1.234531
640.96875 2.619973 1.44425 -1.175723
642.0859375 2.7645869999999997 1.669587 -1.095
643.140625 2.749429 1.578567 -1.170862
644.2421875 2.545455 1.673645 -0.87181
645.33203125 2.80558 1.74058 -1.065
646.44140625 2.4631499999999997 1.48495 -0.9782
647.546875 2.579208 1.68991 -0.889298
648.609375 2.3393040000000003 1.432965 -0.906339
649.6953125 2.651419 1.386961 -1.264458
650.765625 2.579641 1.152474 -1.427167
651.8828125 2.665 1.28 -1.385
652.9765625 2.767895 1.356619 -1.411276
654.0859375 2.6898359999999997 1.439836 -1.25
655.140625 2.77994 1.575 -1.20494
656.26953125 2.623581 1.529945 -1.093636
657.33984375 2.845466 1.646742 -1.198724
658.484375 2.564768 1.475809 -1.088959
659.5703125 2.825511 1.711389 -1.114122
660.68359375 2.549251 1.514324 -1.034927
661.796875 2.724459 1.678991 -1.045468
662.91796875 2.433954 1.429169 -1.004785
664.0390625 2.741409 1.649893 -1.091516
665.15234375 2.4325650000000003 1.363877 -1.068688
666.26953125 2.6298529999999998 1.564853 -1.065
667.421875 2.4116660000000003 1.37707 -1.034596
668.55859375 2.629439 1.619445 -1.009994
669.703125 2.425355 1.382152 -1.043203
670.828125 2.609543 1.563887 -1.045656
671.984375 2.442463 1.208359 -1.234104
673.1484375 2.710215 1.330215 -1.38
674.3125 2.4921879999999996 1.20725 -1.284938
675.46875 2.67568 1.387116 -1.288564
676.61328125 2.613054 1.27335 -1.339704
677.8125 2.62179 1.278636 -1.343154
679.0078125 2.5822969999999996 1.288163 -1.294134
680.19921875 2.341508 1.233672 -1.107836
681.33203125 2.644858 1.604858 -1.04
682.48046875 2.253902 1.529994 -0.723908
683.64453125 2.417351 1.77996 -0.637391
684.73828125 2.253219 1.269422 -0.983797
685.85546875 2.5496030000000003 1.289906 -1.259697
686.89453125 2.419927 1.119927 -1.3
687.9921875 2.4892890000000003 1.439289 -1.05
689.0703125 2.5541869999999998 1.310211 -1.243976
690.140625 2.334743 1.067884 -1.266859
691.2890625 2.523717 1.34488 -1.178837
692.33984375 2.636947 1.15224 -1.484707
693.4609375 2.466507 0.831507 -1.635
694.5703125 2.707995 1.07446 -1.633535
695.67578125 2.4318850000000003 0.972256 -1.459629
696.80859375 2.680003 1.275797 -1.404206
697.85546875 2.5902849999999997 1.165285 -1.425
698.9609375 2.5949999999999998 1.255 -1.34
700.0234375 2.752281 1.382643 -1.369638
701.109375 2.397607 1.065 -1.332607
702.2109375 2.712673 1.429977 -1.282696
703.265625 2.510121 1.392586 -1.117535
704.359375 2.608313 1.642031 -0.966282
705.47265625 2.5667359999999997 1.358914 -1.207822
706.6171875 2.5566459999999998 1.399011 -1.157635
707.703125 2.589909 1.444909 -1.145
708.8125 2.614877 1.365739 -1.249138
709.87109375 2.51082 1.265874 -1.244946
710.97265625 2.6958390000000003 1.518396 -1.177443
712.046875 2.5272040000000002 1.288668 -1.238536
713.1640625 2.6997660000000003 1.374883 -1.324883
714.2734375 2.546389 1.271503 -1.274886
715.40625 2.684174 1.504531 -1.179643
716.51953125 2.5736 1.524954 -1.048646
717.6953125 2.622663 1.55446 -1.068203
718.8515625 2.53151 1.45651 -1.075
720.00390625 2.6910350000000003 1.585 -1.106035
721.125 2.637136 1.51 -1.127136
722.3046875 2.343179 1.51745 -0.825729
723.40625 2.664987 1.704987 -0.96
724.5546875 2.323862 1.43946 -0.884402
725.640625 2.7171950000000002 1.607323 -1.109872
726.765625 2.4025990000000004 1.378343 -1.024256
727.8984375 2.720062 1.600706 -1.119356
729.015625 2.4128999999999996 1.3779 -1.035
730.15234375 2.728865 1.584212 -1.144653
731.234375 2.437606 1.43077 -1.006836
732.34375 2.677616 1.63867 -1.038946
733.453125 2.452247 1.374802 -1.077445
734.57421875 2.6653130000000003 1.434564 -1.230749
735.6953125 2.5168369999999998 1.277415 -1.239422
736.8203125 2.727965 1.463851 -1.264114
737.93359375 2.496773 1.318586 -1.178187
739.09765625 2.6916789999999997 1.438234 -1.253445
740.17578125 2.557856 1.384057 -1.173799
741.33203125 2.394768 1.571649 -0.823119
742.40625 2.538715 1.384733 -1.153982
743.5234375 2.576247 1.230423 -1.345824
744.6328125 2.759577 1.299577 -1.46
745.73828125 2.4645659999999996 1.092979 -1.371587
746.875 2.7745420000000003 1.5 -1.274542
748.00390625 2.493035 1.346117 -1.146918
749.12890625 2.75291 1.508954 -1.243956
750.2578125 2.674585 1.551237 -1.123348
751.39453125 2.719547 1.499962 -1.219585
752.52734375 2.71183 1.454704 -1.257126
753.67578125 2.7002639999999998 1.582812 -1.117452
754.765625 2.746117 1.506328 -1.239789
755.9375 2.793654 1.577187 -1.216467
757.0546875 2.776215 1.673143 -1.103072
758.23046875 2.622298 1.609973 -1.012325
759.33984375 2.824313 1.69159 -1.132723
760.4609375 2.4823589999999998 1.679579 -0.80278
761.6015625 2.686449 1.711449 -0.975
762.76171875 2.508821 1.214072 -1.294749
763.94140625 2.807964 1.26483 -1.543134
765.06640625 2.647822 1.225 -1.422822
766.203125 2.725874 1.545 -1.180874
767.34765625 2.513687 1.423687 -1.09
768.484375 2.7471550000000002 1.464343 -1.282812
769.6171875 2.607144 1.322832 -1.284312
770.7421875 2.801336 1.446336 -1.355
771.8671875 2.502967 1.193526 -1.309441
773.0078125 2.7328770000000002 1.459114 -1.273763
774.12890625 2.481743 1.391743 -1.09
775.27734375 2.7265420000000002 1.64939 -1.077152
776.375 2.5632710000000003 1.51 -1.053271
777.5 2.662219 1.625 -1.037219
778.6015625 2.564367 1.471599 -1.092768
779.73046875 2.544953 1.574953 -0.97
780.8203125 2.659261 1.492535 -1.166726
781.9140625 2.403684 1.394288 -1.009396
782.99609375 2.551349 1.585822 -0.965527
784.16015625 2.4036239999999998 1.263624 -1.14
785.296875 2.5544219999999997 1.464578 -1.089844
786.44140625 2.5015169999999998 1.179345 -1.322172
787.5625 2.768646 1.248646 -1.52
788.6875 2.653675 1.238687 -1.414988
789.85546875 2.864944 1.424973 -1.439971
790.9921875 2.7047619999999997 1.366336 -1.338426
792.14453125 2.774558 1.549931 -1.224627
793.25390625 2.7131540000000003 1.558154 -1.155
794.41796875 2.654654 1.510385 -1.144269
795.546875 2.683746 1.808882 -0.874864
796.7109375 2.4749179999999997 1.649918 -0.825
797.8203125 2.7740419999999997 1.515 -1.259042
799.046875 2.596032 1.246108 -1.349924
800.24609375 2.807646 1.47 -1.337646
801.390625 2.5077819999999997 1.295639 -1.212143
802.53125 2.762049 1.662928 -1.099121
803.66796875 2.521511 1.35279 -1.168721
804.7734375 2.829659 1.549659 -1.28
805.9140625 2.598794 1.33976 -1.259034
807.02734375 2.832493 1.603821 -1.228672
808.203125 2.637803 1.468887 -1.168916
809.33984375 2.85843 1.605476 -1.252954
810.4453125 2.6462950000000003 1.467211 -1.179084
811.640625 2.845971 1.671534 -1.174437
812.78125 2.575809 1.475921 -1.099888
813.9765625 2.8865689999999997 1.706644 -1.179925
815.1015625 2.640635 1.507881 -1.132754
816.21484375 2.850459 1.702589 -1.14787
817.328125 2.668748 1.659214 -1.009534
818.49609375 2.856156 1.866156 -0.99
819.62890625 2.663389 1.769932 -0.893457
820.80078125 2.866118 1.944106 -0.922012
821.94140625 2.5436300000000003 1.734145 -0.809485
822.65625 1.5889130000000002 -0.537308 -2.126221
824.22265625 2.716703 1.624866 -1.091837
825.375 2.650569 1.54 -1.110569
826.52734375 2.69576 1.486758 -1.209002
827.71875 2.646962 1.417625 -1.229337
828.8125 2.723842 1.528894 -1.194948
829.97265625 2.582141 1.589338 -0.992803
831.06640625 2.713865 1.749479 -0.964386
832.203125 2.524064 1.539297 -0.984767
833.34765625 2.743727 1.688765 -1.054962
834.4765625 2.603471 1.548514 -1.054957
835.68359375 2.705604 1.59946 -1.106144
836.87109375 2.605994 1.496156 -1.109838
838.0546875 2.708633 1.626211 -1.082422
839.21875 2.580088 1.602727 -0.977361
840.38671875 2.461408 1.817817 -0.643591
841.51953125 2.515278 1.710278 -0.805
842.66015625 2.424569 1.227729 -1.19684
843.73828125 2.669436 1.346725 -1.322711
844.8515625 2.415166 1.159883 -1.255283
845.94140625 2.637011 1.369558 -1.267453
847.04296875 2.526331 1.206506 -1.319825
848.1484375 2.4576000000000002 1.676835 -0.780765
849.23828125 2.356846 1.581846 -0.775
850.40234375 2.5671359999999996 1.172256 -1.39488
851.50390625 2.650556 1.063502 -1.587054
852.69140625 2.75219 1.184241 -1.567949
853.80078125 2.702204 1.277985 -1.424219
854.9375 2.7322930000000003 1.524048 -1.208245
856.08984375 2.689241 1.60472 -1.084521
857.234375 2.675917 1.593491 -1.082426
858.3984375 2.517373 1.593719 -0.923654
859.5078125 2.481439 2.049996 -0.431443
860.63671875 2.386482 1.521865 -0.864617
861.796875 2.841494 1.409317 -1.432177
862.97265625 2.581297 1.111355 -1.469942
864.14453125 2.919981 1.549981 -1.37
865.2734375 2.5717790000000003 1.537104 -1.034675
866.4140625 2.569679 1.999742 -0.569937
867.5390625 2.62915 1.719754 -0.909396
868.71484375 2.778142 1.383597 -1.394545
869.8359375 2.852556 1.524605 -1.327951
871.00390625 2.782063 1.519927 -1.262136
872.1484375 2.735382 1.560789 -1.174593
873.3203125 2.7469799999999998 1.679451 -1.067529
874.4921875 2.686926 1.693186 -0.99374
875.6640625 2.771497 1.779579 -0.991918
876.7890625 2.598509 1.659754 -0.938755
877.9609375 2.813488 1.706111 -1.107377
879.12890625 2.51504 1.394649 -1.120391
880.30859375 2.786578 1.631625 -1.154953
881.484375 2.578729 1.58636 -0.992369
882.60546875 2.7810699999999997 1.83991 -0.94116
883.8203125 2.3344280000000004 2.119502 -0.214926
884.97265625 2.4534260000000003 1.853474 -0.599952
886.16796875 2.47438 1.28779 -1.18659
887.29296875 2.651657 1.355 -1.296657
888.48828125 2.436853 1.206853 -1.23
889.61328125 2.640156 1.326401 -1.313755
890.80859375 2.442933 1.074063 -1.36887
891.94140625 2.7199799999999996 1.4 -1.31998
893.10546875 2.30498 1.60998 -0.695
894.25390625 2.50555 1.778949 -0.726601
895.41015625 2.341944 1.329598 -1.012346
896.62109375 2.464292 1.465 -0.999292
897.74609375 2.379866 1.214117 -1.165749
898.88671875 2.4983500000000003 1.26335 -1.235
900.09375 2.6178030000000003 1.223491 -1.394312
901.2578125 2.6765730000000003 1.202717 -1.473856
902.43359375 2.682019 1.263774 -1.418245
903.578125 2.6993169999999997 1.219317 -1.48
904.72265625 2.797446 1.387389 -1.410057
905.9296875 2.627345 1.378199 -1.249146
907.09765625 2.767071 1.577826 -1.189245
908.265625 2.692452 1.495593 -1.196859
909.43359375 2.8029729999999997 1.619562 -1.183411
910.62109375 2.517431 1.443107 -1.074324
911.7578125 2.7830250000000003 1.676444 -1.106581
912.9453125 2.45361 1.393104 -1.060506
914.0546875 2.7573030000000003 1.477313 -1.27999
915.18359375 2.448003 1.194739 -1.253264
916.33203125 2.626529 1.569887 -1.056642
917.44140625 2.434444 1.329836 -1.104608
918.58984375 2.7615619999999996 1.525 -1.236562
919.6875 2.422045 1.292045 -1.13
920.7890625 2.698147 1.624789 -1.073358
921.859375 2.530413 1.506309 -1.024104
922.9921875 2.712755 1.577917 -1.134838
924.109375 2.572401 1.280934 -1.291467
925.21484375 2.703199 1.484339 -1.21886
926.27734375 2.548222 1.313785 -1.234437
927.3515625 2.729012 1.411644 -1.317368
928.46875 2.728583 1.482079 -1.246504
929.66015625 2.68887 1.56216 -1.12671
930.7890625 2.7040430000000004 1.66484 -1.039203
931.9609375 2.700885 1.72982 -0.971065
933.09375 2.645362 1.78041 -0.864952
934.25 2.684977 1.77 -0.914977
935.3984375 2.5673250000000003 1.576688 -0.990637
936.546875 2.745807 1.643901 -1.101906
937.6796875 2.586564 1.471913 -1.114651
938.6953125 2.640764 1.48676 -1.154004
939.9453125 2.669466 1.604481 -1.064985
941.16796875 2.677435 1.616884 -1.060551
942.33984375 2.682653 1.548597 -1.134056
943.57421875 2.477786 1.284557 -1.193229
944.76953125 2.675278 1.445278 -1.23
945.94921875 2.3883039999999998 1.439211 -0.949093
947.1171875 2.617372 1.504581 -1.112791
948.2734375 2.393585 1.238585 -1.155
949.41796875 2.647374 1.442961 -1.204413
950.5703125 2.4291650000000002 1.324926 -1.104239
951.74609375 2.6490220000000004 1.549114 -1.099908
952.859375 2.5813 1.503284 -1.078016
954.01953125 2.6983800000000002 1.61988 -1.0785
955.171875 2.627286 1.579693 -1.047593
956.3359375 2.672867 1.604953 -1.067914
957.4921875 2.673057 1.668231 -1.004826
958.66015625 2.7586690000000003 1.711238 -1.047431
959.8359375 2.740563 1.635563 -1.105
961.0234375 2.55111 1.539598 -1.011512
962.1328125 2.752685 1.634805 -1.11788
963.33203125 2.495123 1.380123 -1.115
964.4609375 2.783467 1.654619 -1.128848
965.59375 2.462212 1.349271 -1.112941
966.75 2.75353 1.59 -1.16353
967.9453125 2.346075 1.253158 -1.092917
969.078125 2.8011939999999997 1.543062 -1.258132
970.2421875 2.517745 1.371026 -1.146719
971.375 2.824794 1.6 -1.224794
972.54296875 2.5994580000000003 1.429507 -1.169951
973.7109375 2.727399 1.719406 -1.007993
974.8828125 2.5773840000000003 1.407672 -1.169712
976.0234375 2.6852460000000002 1.640352 -1.044894
977.2265625 2.5845019999999996 1.576282 -1.00822
978.375 2.745514 1.535 -1.210514
979.6015625 2.767755 1.502369 -1.265386
980.8125 2.8167150000000003 1.506667 -1.310048
982.0078125 2.57174 1.352647 -1.219093
983.1953125 2.853217 1.543217 -1.31
984.359375 2.324619 1.5879 -0.736719
985.5390625 2.573242 1.779746 -0.793496
986.68359375 2.420051 1.315845 -1.104206
987.8125 2.772881 1.335781 -1.4371
988.97265625 2.5529409999999997 1.128234 -1.424707
990.12890625 2.820111 1.410785 -1.409326
991.30078125 2.570325 1.201071 -1.369254
992.48046875 2.88048 1.539966 -1.340514
993.640625 2.4920660000000003 1.242183 -1.249883
994.8046875 2.7724349999999998 1.463514 -1.308921
995.984375 2.549245 1.369245 -1.18
997.1015625 2.813792 1.569092 -1.2447
999.3125 2.75795 1.549231 -1.208719
1000.44921875 2.455088 1.303544 -1.151544
1001.67578125 2.7370400000000004 1.54184 -1.1952
1002.81640625 2.453168 1.389326 -1.063842
1003.98828125 2.711297 1.572338 -1.138959
1005.15625 2.4913030000000003 1.216814 -1.274489
1006.30078125 2.750511 1.438558 -1.311953
1007.45703125 2.520267 1.240267 -1.28
1008.62109375 2.781907 1.511936 -1.269971
1009.765625 2.499343 1.363434 -1.135909
1010.9140625 2.807605 1.713402 -1.094203
1012.0078125 2.383114 1.438764 -0.94435
1013.15234375 2.776979 1.654199 -1.12278
1014.2578125 2.592963 1.333534 -1.259429
1015.39453125 2.819921 1.479981 -1.33994
1016.55859375 2.559118 1.324445 -1.234673
1017.7265625 2.70029 1.487564 -1.212726
1018.8828125 2.595702 1.439121 -1.156581
1020.0703125 2.813272 1.648272 -1.165
1021.234375 2.7117839999999998 1.464343 -1.247441
1022.42578125 2.721037 1.579084 -1.141953
1023.58203125 2.703818 1.562176 -1.141642
1024.75 2.737422 1.5 -1.237422
1025.90234375 2.627741 1.413584 -1.214157
1027.10546875 2.7569350000000004 1.475537 -1.281398
1028.2734375 2.759367 1.391587 -1.36778
1029.48828125 2.691112 1.386112 -1.305
1030.63671875 2.586079 1.371382 -1.214697
1031.81640625 2.84955 1.56963 -1.27992
1033.0 2.551035 1.37 -1.181035
1034.1171875 2.842491 1.508123 -1.334368
1035.31640625 2.441943 1.758863 -0.68308
1036.4765625 2.687393 1.797441 -0.889952
1037.59375 2.484384 1.324654 -1.15973
1038.796875 2.7912939999999997 1.448582 -1.342712
1040.00390625 2.618715 1.358135 -1.26058
1041.171875 2.8305550000000004 1.58 -1.250555
1042.30078125 2.463063 1.332336 -1.130727
1043.484375 2.8050509999999997 1.677051 -1.128
1045.7734375 2.790845 1.676559 -1.114286
1046.8828125 2.5302480000000003 1.464594 -1.065654
1047.671875 1.68959 -0.52041 -2.21
1049.1953125 2.552366 1.482951 -1.069415
1050.30078125 2.7979190000000003 1.589067 -1.208852
0.0 1.1816140000000002 -1.0 -2.181614
1052.65625 2.7390939999999997 1.719094 -1.02
1053.80859375 2.37249 1.424951 -0.947539
1056.06640625 2.542542 1.464415 -1.078127
1057.2578125 2.769632 1.550869 -1.218763
1058.38671875 2.414419 1.545044 -0.869375
1059.515625 2.5968850000000003 2.009463 -0.587422
1060.55859375 2.108303 0.544558 -1.563745
1061.53515625 2.129645 0.32675 -1.802895
1062.54296875 2.080462 0.062004 -2.018458
1063.5 2.000363 0.095 -1.905363
1064.50390625 2.037689 0.263033 -1.774656
1065.4921875 1.944315 0.131493 -1.812822
1067.0390625 2.743945 1.360577 -1.383368
1067.984375 1.8930820000000002 -0.281726 -2.174808
1069.359375 2.687131 1.488012 -1.199119
1070.453125 2.4291 1.264566 -1.164534
1071.609375 2.774099 1.584238 -1.189861
1072.72265625 2.5033830000000004 1.359166 -1.144217
1073.96875 2.832751 1.60007 -1.232681
1075.13671875 2.541342 1.304714 -1.236628
1076.29296875 2.747822 1.692971 -1.054851
1077.4375 2.560669 1.560688 -0.999981
1078.61328125 2.776233 1.493682 -1.282551
1079.77734375 2.749722 1.479722 -1.27
1080.9375 2.6204490000000003 1.760455 -0.859994
1082.05078125 2.656775 1.637634 -1.019141
1083.24609375 2.734173 1.414197 -1.319976
1084.3984375 2.7930989999999998 1.443945 -1.349154
1085.609375 2.8003989999999996 1.465768 -1.334631
1086.765625 2.87103 1.625222 -1.245808
1088.07421875 2.624047 1.479047 -1.145
1089.3046875 2.852024 1.577024 -1.275
1090.53125 2.564204 1.3876 -1.176604
1091.6796875 2.8861410000000003 1.671141 -1.215
1092.84765625 2.539914 1.614914 -0.925
1093.984375 2.7848249999999997 1.871638 -0.913187
1095.14453125 2.479883 1.539994 -0.939889
1096.328125 2.8521609999999997 1.722161 -1.13
1097.51171875 2.4309130000000003 1.5136 -0.917313
1098.6640625 2.7399 1.719978 -1.019922
1099.859375 2.423555 1.251183 -1.172372
1101.01171875 2.73814 1.48586 -1.25228
1102.171875 2.485728 1.301066 -1.184662
1103.2890625 2.830527 1.52 -1.310527
1104.4375 2.4935859999999996 1.308598 -1.184988
1105.5703125 2.78651 1.747167 -1.039343
1106.74609375 2.438351 1.413445 -1.024906
1107.8828125 2.740105 1.625 -1.115105
1109.01171875 2.38818 1.48 -0.90818
1110.19140625 2.683011 1.574757 -1.108254
1111.3046875 2.58833 1.233865 -1.354465
1112.4921875 2.716525 1.508796 -1.207729
1113.59765625 2.553323 1.4 -1.153323
1114.80078125 2.773824 1.56957 -1.204254
1116.0 2.5398 1.405 -1.1348
1117.1484375 2.750229 1.647727 -1.102502
1118.3515625 2.494473 1.439473 -1.055
1119.52734375 2.7678570000000002 1.664132 -1.103725
1120.71484375 2.556412 1.387016 -1.169396
1121.91796875 2.789322 1.563321 -1.226001
1123.1328125 2.506104 1.446104 -1.06
1124.3359375 2.69091 1.701101 -0.989809
1125.51953125 2.4507909999999997 1.349994 -1.100797
1126.69921875 2.695742 1.481379 -1.214363
1127.87109375 2.5376070000000004 1.342675 -1.194932
1129.10546875 2.739071 1.470768 -1.268303
1130.25390625 2.542197 1.417646 -1.124551
1131.41796875 2.6439209999999997 1.713509 -0.930412
1132.59375 2.513946 1.423424 -1.090522
1133.76953125 2.734815 1.489875 -1.24494
1134.96875 2.574793 1.30207 -1.272723
1136.15234375 2.7966680000000004 1.607223 -1.189445
1137.36328125 2.596439 1.333728 -1.262711
1138.58203125 2.824108 1.505022 -1.319086
1139.796875 2.588238 1.30394 -1.284298
1140.98046875 2.825289 1.590289 -1.235
1142.22265625 2.5718870000000003 1.419704 -1.152183
1143.46484375 2.8334270000000004 1.650292 -1.183135
1144.640625 2.545888 1.431016 -1.114872
1145.87109375 2.8025 1.631846 -1.170654
1147.05859375 2.752643 1.559826 -1.192817
1148.19921875 2.782525 1.576869 -1.205656
1149.390625 2.8038819999999998 1.685 -1.118882
1150.52734375 2.708309 1.674156 -1.034153
1151.75 2.7699160000000003 1.71 -1.059916
1152.89453125 2.686492 1.595791 -1.090701
1154.07421875 2.753945 1.59 -1.163945
1155.2265625 2.772679 1.585311 -1.187368
1156.421875 2.713587 1.588516 -1.125071
1157.56640625 2.7685820000000003 1.653631 -1.114951
1158.75 2.6090489999999997 1.53 -1.079049
1159.89453125 2.799319 1.659963 -1.139356
1161.046875 2.583466 1.583466 -1.0
1162.17578125 2.625133 1.642228 -0.982905
1163.31640625 2.484863 1.334949 -1.149914
1164.41796875 2.783215 1.398215 -1.385
1165.56640625 2.403595 1.249593 -1.154002
1166.67578125 2.7182120000000003 1.569571 -1.148641
1167.82421875 2.4847650000000003 1.235699 -1.249066
1168.94921875 2.810295 1.398699 -1.411596
1170.0546875 2.5520329999999998 1.353158 -1.198875
1171.1875 2.78571 1.538929 -1.246781
1172.3203125 2.6049990000000003 1.333199 -1.2718
1173.51953125 2.814896 1.504896 -1.31
1174.69140625 2.592965 1.315 -1.277965
1175.8671875 2.792887 1.603151 -1.189736
1177.04296875 2.528091 1.818117 -0.709974
1178.23046875 2.641029 1.709654 -0.931375
1179.421875 2.6238159999999997 1.411104 -1.212712
1180.625 2.7668 1.46 -1.3068
1181.78515625 2.7230030000000003 1.223435 -1.499568
1182.9765625 2.6768530000000004 1.461467 -1.215386
1184.1796875 2.661861 1.507433 -1.154428
1185.3671875 2.7206580000000002 1.435 -1.285658
1186.51953125 2.610646 1.374988 -1.235658
1187.7265625 2.7846539999999997 1.474661 -1.309993
1188.86328125 2.741319 1.450273 -1.291046
1190.09375 2.689457 1.522625 -1.166832
1191.234375 2.678302 1.429023 -1.249279
1192.390625 2.564872 1.565 -0.999872
1193.53125 2.601605 1.4421 -1.159505
1194.69140625 2.597883 1.414949 -1.182934
1195.8203125 2.6640800000000002 1.339303 -1.324777
1196.98046875 2.68324 1.519948 -1.163292
1198.07421875 2.6780239999999997 1.489905 -1.188119
1199.23046875 2.599133 1.439658 -1.159475
1200.359375 2.716406 1.526406 -1.19
1201.51953125 2.6907550000000002 1.479921 -1.210834
1202.58984375 2.746968 1.607879 -1.139089
1203.6953125 2.732058 1.642331 -1.089727
1204.828125 2.7440990000000003 1.669099 -1.075
1206.00390625 2.754646 1.607361 -1.147285
1207.140625 2.8086640000000003 1.576328 -1.232336
1208.3046875 2.75892 1.454926 -1.303994
1209.4453125 2.749303 1.569303 -1.18
1210.625 2.7260739999999997 1.575 -1.151074
1211.796875 2.788125 1.638817 -1.149308
1212.96484375 2.677209 1.607874 -1.069335
1214.109375 2.719245 1.554564 -1.164681
1215.3125 2.668613 1.513654 -1.154959
1216.42578125 2.701549 1.567228 -1.134321
1217.6171875 2.6051840000000004 1.508374 -1.09681
1218.74609375 2.672213 1.562276 -1.109937
1219.453125 2.290295 1.284802 -1.005493
1220.76953125 2.819214 1.530542 -1.288672
1221.9765625 2.532921 1.277921 -1.255
1223.19921875 2.745664 1.539905 -1.205759
1224.36328125 2.453167 1.298359 -1.154808
1225.53125 2.723852 1.514641 -1.209211
1226.6953125 2.5036690000000004 1.33 -1.173669
1227.875 2.754368 1.545 -1.209368
1229.03125 2.565442 1.385878 -1.179564
1230.17578125 2.5577170000000002 1.803512 -0.754205
1231.30078125 2.388472 1.628472 -0.76
1232.484375 2.588945 1.48 -1.108945
1233.640625 2.536547 1.183365 -1.353182
1234.8515625 2.736705 1.393431 -1.343274
1235.98046875 2.619933 1.324988 -1.294945
1237.15625 2.5799339999999997 1.659241 -0.920693
1238.3046875 2.510723 1.449441 -1.061282
1239.5 2.713735 1.43 -1.283735
1240.60546875 2.697343 1.329872 -1.367471
1241.78125 2.710441 1.400537 -1.309904
1242.9453125 2.718245 1.469456 -1.248789
1244.12109375 2.485119 1.25604 -1.229079
1245.30078125 2.829588 1.585488 -1.2441
1246.45703125 2.4724019999999998 1.369622 -1.10278
1247.57421875 2.688158 1.838444 -0.849714
1248.765625 2.478308 1.582474 -0.895834
1249.87890625 2.7444319999999998 1.475548 -1.268884
1251.0625 2.534736 1.225 -1.309736
1252.1796875 2.856772 1.646772 -1.21
1253.3046875 2.569158 1.451337 -1.117821
1254.44140625 2.896694 1.663741 -1.232953
1255.56640625 2.5284440000000004 1.359828 -1.168616
1256.71875 2.9827459999999997 1.738438 -1.244308
1257.82421875 2.635224 1.521921 -1.113303
1258.97265625 2.929458 1.834536 -1.094922
1260.12109375 2.66829 1.55706 -1.11123
1261.28515625 2.924508 1.662656 -1.261852
1262.4296875 2.728198 1.435211 -1.292987
1263.5703125 2.805733 1.866019 -0.939714
1264.69921875 2.631392 1.668544 -0.962848
1265.87109375 2.916888 1.774559 -1.142329
1267.02734375 2.762696 1.58471 -1.177986
1268.19140625 2.8728860000000003 1.673863 -1.199023
1269.34765625 2.752879 1.534718 -1.218161
1270.546875 2.839869 1.838059 -1.00181
1271.69140625 2.72886 1.704108 -1.024752
1272.8984375 2.78583 1.691007 -1.094823
1274.03515625 2.714261 1.639598 -1.074663
1275.1953125 2.861434 1.77843 -1.083004
1276.3359375 2.6558580000000003 1.624861 -1.030997
1277.515625 2.7206390000000003 1.710723 -1.009916
1278.71484375 2.5755999999999997 1.469507 -1.106093
1279.91796875 2.7555889999999996 1.481804 -1.273785
1281.08984375 2.637377 1.412691 -1.224686
1282.2890625 2.7553 1.569893 -1.185407
1283.46875 2.744046 1.58966 -1.154386
1284.65625 2.7368319999999997 1.602079 -1.134753
1285.8125 2.72673 1.669167 -1.057563
1287.0 2.5621359999999997 1.47 -1.092136
1288.109375 2.811222 1.576518 -1.234704
1289.3046875 2.457672 1.276528 -1.181144
1290.46484375 2.79157 1.501109 -1.290461
1291.640625 2.5138059999999998 1.260264 -1.253542
1292.828125 2.8057290000000004 1.56394 -1.241789
1294.03125 2.39044 1.471172 -0.919268
1295.21875 2.6709259999999997 1.666618 -1.004308
1296.38671875 2.509002 1.225 -1.284002
1297.5234375 2.79603 1.461523 -1.334507
1298.70703125 2.536107 1.336107 -1.2
1299.90625 2.819067 1.605 -1.214067
1301.04296875 2.5918900000000002 1.436913 -1.154977
1302.203125 2.799429 1.669429 -1.13
1303.37109375 2.542573 1.50279 -1.039783
1304.5234375 2.8274369999999998 1.648895 -1.178542
1305.65625 2.5958699999999997 1.382358 -1.213512
1306.80859375 2.7946999999999997 1.573787 -1.220913
1307.94140625 2.5554439999999996 1.364769 -1.190675
1309.09375 2.852347 1.644666 -1.207681
1310.23046875 2.540465 1.544919 -0.995546
1311.38671875 2.740069 1.842694 -0.897375
1312.51171875 2.368361 1.564023 -0.804338
1313.6328125 2.6781449999999998 1.446564 -1.231581
1314.75 2.6 1.245 -1.355
1315.84765625 2.701375 1.466375 -1.235
1316.94140625 2.539015 1.409084 -1.129931
1317.95703125 2.495942 1.565942 -0.93
1318.9609375 2.564325 1.699866 -0.864459
1319.9296875 2.376282 1.38 -0.996282
1320.9375 2.50303 1.363036 -1.139994
1321.97265625 2.5785780000000003 1.423614 -1.154964
1322.9765625 2.612144 1.297369 -1.314775
1323.98828125 2.3974469999999997 1.168728 -1.228719
1325.01953125 2.674956 1.214956 -1.46
1326.0546875 2.592918 1.048143 -1.544775
1327.1171875 2.529171 1.137184 -1.391987
1328.1796875 2.653543 1.301175 -1.352368
1329.2265625 2.493331 1.293331 -1.2
1330.3359375 2.704898 1.484898 -1.22
1331.41015625 2.6778000000000004 1.3278 -1.35
1332.4765625 2.5732730000000004 1.30828 -1.264993
1333.5546875 2.694851 1.344851 -1.35
1334.640625 2.506101 1.332768 -1.173333
1335.72265625 2.666371 1.566371 -1.1
1336.83984375 2.564357 1.484357 -1.08
1337.9453125 2.6870589999999996 1.607378 -1.079681
1339.10546875 2.544908 1.514965 -1.029943
1340.2734375 2.6278829999999997 1.565648 -1.062235
1341.3984375 2.570643 1.361467 -1.209176
1342.6015625 2.631823 1.39848 -1.233343
1343.72265625 2.738887 1.418914 -1.319973
1344.87890625 2.74632 1.606858 -1.139462
1345.95703125 2.7098370000000003 1.630771 -1.079066
1347.0546875 2.6381430000000003 1.618143 -1.02
1348.12890625 2.607722 1.528023 -1.079699
1349.21484375 2.631817 1.458206 -1.173611
1350.296875 2.64928 1.357049 -1.292231
1351.390625 2.551375 1.281375 -1.27
1352.44921875 2.754532 1.312011 -1.442521
1353.5546875 2.609645 1.45 -1.159645
1354.61328125 2.733789 1.718821 -1.014968
1355.703125 2.644689 1.654689 -0.99
1356.81640625 2.743399 1.764542 -0.978857
1357.87109375 2.65006 1.673638 -0.976422
1359.01171875 2.7323250000000003 1.729734 -1.002591
1360.078125 2.683305 1.588305 -1.095
1361.23046875 2.738231 1.619951 -1.11828
1362.296875 2.750717 1.598582 -1.152135
1363.4140625 2.5585500000000003 1.554778 -1.003772
1364.52734375 2.704354 1.603845 -1.100509
1365.6015625 2.58863 1.507885 -1.080745
1366.70703125 2.6931700000000003 1.560171 -1.132999
1367.796875 2.626779 1.402142 -1.224637
1368.87109375 2.7538270000000002 1.46589 -1.287937
1369.94921875 2.6393459999999997 1.310506 -1.32884
1371.015625 2.741109 1.377925 -1.363184
1372.11328125 2.681346 1.471837 -1.209509
1373.2265625 2.605438 1.515 -1.090438
1374.31640625 2.682085 1.614171 -1.067914
1375.45703125 2.548117 1.443117 -1.105
1376.55078125 2.71272 1.474282 -1.238438
1377.65625 2.666962 1.367879 -1.299083
1378.80078125 2.71774 1.434553 -1.283187
1379.90234375 2.673982 1.423982 -1.25
1381.05859375 2.663758 1.499813 -1.163945
1382.12109375 2.630649 1.476046 -1.154603
1383.2421875 2.7019 1.552306 -1.149594
1384.30078125 2.644211 1.444211 -1.2
1385.390625 2.5579 1.3279 -1.23
1386.484375 2.690016 1.416445 -1.273571
1387.56640625 2.5497389999999998 1.234895 -1.314844
1388.6640625 2.697008 1.384742 -1.312266
1389.734375 2.571242 1.286398 -1.284844
1390.81640625 2.707141 1.42396 -1.283181
1391.88671875 2.5584990000000003 1.373563 -1.184936
1392.953125 2.702177 1.409317 -1.29286
1394.01953125 2.519359 1.284359 -1.235
1395.078125 2.633214 1.373447 -1.259767
1396.11328125 2.468643 1.219643 -1.249
1397.15234375 2.667149 1.307658 -1.359491
1398.1953125 2.5028610000000002 1.238134 -1.264727
1399.23828125 2.626731 1.431837 -1.194894
1400.3046875 2.5021750000000003 1.297514 -1.204661
1401.359375 2.668422 1.423422 -1.245
1402.4140625 2.539918 1.24995 -1.289968
1403.51953125 2.715076 1.355287 -1.359789
1404.3046875 1.819105 -0.723989 -2.543094
1405.68359375 2.663467 1.338467 -1.325
1406.71875 2.5369729999999997 1.267969 -1.269004
1407.359375 1.848523 -0.607178 -2.455701
1408.796875 2.674128 1.436085 -1.238043
1409.83984375 2.761238 1.441238 -1.32
1410.58203125 1.803864 -0.82977 -2.633634
1412.02734375 2.737584 1.457584 -1.28
1413.05078125 2.546671 1.342346 -1.204325
1414.01171875 1.6338160000000002 -0.571086 -2.204902
1415.1875 2.618983 1.448672 -1.170311
1416.27734375 2.689177 1.544704 -1.144473
1417.3046875 2.625464 1.497277 -1.128187
1418.36328125 2.721157 1.556536 -1.164621
1419.40625 2.733319 1.393796 -1.339523
1420.4765625 2.774117 1.51918 -1.254937
1421.53515625 2.664149 1.544364 -1.119785
1422.6015625 2.734433 1.557065 -1.177368
1423.6640625 2.6634320000000002 1.491054 -1.172378
1424.7578125 2.6727369999999997 1.537737 -1.135
1425.82421875 2.621271 1.431271 -1.19
1426.9296875 2.647079 1.432079 -1.215
1427.984375 2.642786 1.437949 -1.204837
1429.03125 2.710499 1.556429 -1.15407
1430.05078125 2.645644 1.471628 -1.174016
1431.125 2.7199999999999998 1.465 -1.255
1432.17578125 2.7409429999999997 1.451271 -1.289672
1433.265625 2.64816 1.566016 -1.082144
1434.2890625 2.647378 1.605 -1.042378
1435.34765625 2.6717370000000003 1.553765 -1.117972
1436.4140625 2.604832 1.539883 -1.064949
1437.48046875 2.683284 1.659973 -1.023311
1438.54296875 2.5962389999999997 1.561407 -1.034832
1439.59765625 2.653824 1.558707 -1.095117
1440.61328125 2.599292 1.466508 -1.132784
1441.6796875 2.640885 1.500885 -1.14
1442.6796875 2.598021 1.40488 -1.193141
1443.75390625 2.665286 1.48089 -1.184396
1444.765625 2.608513 1.353513 -1.255
1445.828125 2.684472 1.394689 -1.289783
1446.890625 2.655122 1.391122 -1.264
1447.9609375 2.604591 1.404591 -1.2
1449.05078125 2.693611 1.448611 -1.245
1450.109375 2.5753769999999996 1.379217 -1.19616
1451.171875 2.7235579999999997 1.443558 -1.28
1452.21484375 2.548325 1.359281 -1.189044
1453.2734375 2.704324 1.449661 -1.254663
1454.34375 2.548297 1.308333 -1.239964
1455.41015625 2.761071 1.382769 -1.378302
1456.4609375 2.634714 1.429757 -1.204957
1457.51953125 2.691123 1.519963 -1.17116
1458.6015625 2.623341 1.478341 -1.145
1459.69140625 2.745921 1.479841 -1.26608
1460.7734375 2.656412 1.39396 -1.262452
1461.8359375 2.7996299999999996 1.52463 -1.275
1462.87890625 2.631347 1.419066 -1.212281
1463.953125 2.774592 1.584592 -1.19
1464.97265625 2.607116 1.569362 -1.037754
1466.03125 2.7479250000000004 1.591992 -1.155933
1467.046875 2.564132 1.464132 -1.1
1468.09765625 2.691627 1.487853 -1.203774
1469.1796875 2.6003499999999997 1.422879 -1.177471
1470.24609375 2.767697 1.487803 -1.279894
1471.33203125 2.655191 1.445191 -1.21
1472.390625 2.7655640000000004 1.480768 -1.284796
1473.453125 2.585 1.45 -1.135
1474.53515625 2.808581 1.603619 -1.204962
1475.6015625 2.66015 1.550167 -1.109983
1476.6796875 2.754708 1.624708 -1.13
1477.72265625 2.627176 1.505993 -1.121183
1478.7578125 2.775545 1.568138 -1.207407
1479.796875 2.667873 1.54991 -1.117963
1480.87890625 2.7857279999999998 1.561284 -1.224444
1481.94921875 2.6672089999999997 1.477209 -1.19
1483.046875 2.804131 1.6146 -1.189531
1484.10546875 2.694863 1.479885 -1.214978
1485.14453125 2.803281 1.529929 -1.273352
1486.21484375 2.630292 1.580292 -1.05
1487.27734375 2.753872 1.687282 -1.06659
1488.359375 2.6432399999999996 1.439153 -1.204087
1489.41796875 2.6692910000000003 1.386852 -1.282439
1490.4140625 2.651426 1.401095 -1.250331
1491.47265625 2.8087530000000003 1.469536 -1.339217
1492.46875 2.6867400000000004 1.538019 -1.148721
1493.54296875 2.746734 1.609628 -1.137106
1494.5546875 2.698875 1.458889 -1.239986
1495.6015625 2.7746560000000002 1.464714 -1.309942
1496.6171875 2.702167 1.463089 -1.239078
1497.65234375 2.80734 1.574867 -1.232473
1498.703125 2.688654 1.483654 -1.205
1499.73046875 2.85741 1.664959 -1.192451
1500.703125 2.793062 1.673062 -1.12
1501.68359375 2.704484 1.674484 -1.03
1502.72265625 2.495889 1.618665 -0.877224
1503.75390625 2.221363 1.491894 -0.729469
1504.765625 2.336363 1.481447 -0.854916
1505.74609375 2.494168 1.539197 -0.954971
1506.734375 2.359224 1.339224 -1.02
1507.765625 2.489884 1.221447 -1.268437
1508.7421875 1.8850090000000002 0.985697 -0.899312
1509.609375 2.001798 0.582495 -1.419303
1510.625 2.192635 1.105 -1.087635
1511.59375 2.2316599999999998 1.17541 -1.05625
1512.58203125 2.201516 1.188098 -1.013418
1513.62109375 2.176072 1.116072 -1.06
1514.625 2.1494 1.24 -0.9094
1515.625 2.185 1.11 -1.075
1516.57421875 2.205488 1.025488 -1.18
1517.55078125 2.112329 1.073472 -1.038857
1518.55078125 2.1399999999999997 1.17 -0.97
1519.54296875 2.303135 1.238526 -1.064609
1520.5546875 2.202038 1.147024 -1.055014
1521.609375 2.304173 1.349564 -0.954609
1522.6640625 2.259825 1.184825 -1.075
1523.73046875 2.277517 1.179861 -1.097656
1524.85546875 2.3344899999999997 1.214972 -1.119518
1525.97265625 2.29399 1.244541 -1.049449
1527.0859375 2.347018 1.205566 -1.141452
1528.1640625 2.2596420000000004 1.144694 -1.114948
1529.26953125 2.344754 1.249988 -1.094766
1530.390625 2.3212599999999997 1.251447 -1.069813
1531.55859375 2.328135 1.249694 -1.078441
1532.6875 2.354952 1.155909 -1.199043
1533.81640625 2.404201 1.179838 -1.224363
1534.9296875 2.319978 1.094978 -1.225
1536.07421875 2.3623260000000004 1.252326 -1.11
1537.1953125 2.315723 1.211455 -1.104268
1538.296875 2.388849 1.378849 -1.01
1539.3671875 2.341163 1.278517 -1.062646
1540.46484375 2.346659 1.454345 -0.892314
1541.5546875 2.376174 1.281207 -1.094967
1542.66796875 2.303342 1.29133 -1.012012
1543.79296875 2.4022699999999997 1.283833 -1.118437
1544.85546875 2.353462 1.164988 -1.188474
1545.94921875 2.3744189999999996 1.319419 -1.055
1547.01953125 2.314264 1.274397 -1.039867
1548.12109375 2.355235 1.311723 -1.043512
1549.20703125 2.37384 1.28884 -1.085
1550.25390625 2.288791 1.264471 -1.02432
1551.33203125 2.424714 1.321291 -1.103423
1552.3671875 2.378831 1.244068 -1.134763
1553.421875 2.3839509999999997 1.383951 -1.0
1554.4921875 2.3442109999999996 1.314312 -1.029899
1555.55859375 2.314708 1.344708 -0.97
1556.609375 2.3300020000000004 1.207451 -1.122551
1557.69140625 2.295454 1.247958 -1.047496
1558.71484375 2.369631 1.320373 -1.049258
1559.7890625 2.2465330000000003 1.234658 -1.011875
1560.875 2.32932 1.185 -1.14432
1561.9453125 2.267372 1.149472 -1.1179
1563.04296875 2.335817 1.205248 -1.130569
1564.0859375 2.2849760000000003 1.129976 -1.155
1565.18359375 2.334456 1.134466 -1.19999
1566.2421875 2.300757 1.195757 -1.105
1567.3125 2.367264 1.140682 -1.226582
1568.40625 2.375734 1.119682 -1.256052
1569.46875 2.309271 1.134271 -1.175
1570.1484375 1.700847 -0.814134 -2.514981
1571.640625 2.438797 1.209238 -1.229559
1572.7421875 2.367867 1.282867 -1.085
1573.87109375 2.357182 1.247182 -1.11
1574.9296875 2.3398440000000003 1.325 -1.014844
1576.03125 2.3533749999999998 1.333375 -1.02
1577.0703125 2.372521 1.26 -1.112521
1578.1484375 2.433252 1.276414 -1.156838
1579.21484375 2.42593 1.266907 -1.159023
1580.28515625 2.460098 1.40272 -1.057378
1581.3671875 2.387472 1.372528 -1.014944
1582.43359375 2.474809 1.319838 -1.154971
1583.4921875 2.384246 1.421611 -0.962635
1584.515625 2.566523 1.326578 -1.239945
1585.53125 2.428887 1.323887 -1.105
1586.51171875 2.4859970000000002 1.465997 -1.02
1587.5234375 2.503631 1.551103 -0.952528
1588.50390625 2.495081 1.366953 -1.128128
1589.515625 2.545 1.24 -1.305
1590.62109375 2.5981620000000003 1.268162 -1.33
1591.72265625 2.5281209999999996 1.304347 -1.223774
1592.86328125 2.585661 1.325955 -1.259706
1593.9375 2.5898969999999997 1.315893 -1.274004
1594.98828125 2.6678360000000003 1.282979 -1.384857
1596.08984375 2.5898440000000003 1.41031 -1.179534
1597.12109375 2.586122 1.416178 -1.169944
1598.20703125 2.593125 1.511735 -1.08139
1599.20703125 2.548988 1.48014 -1.068848
1600.24609375 2.341158 1.371187 -0.969971
1601.2890625 2.6343430000000003 1.389397 -1.244946
1602.27734375 2.454778 1.288345 -1.166433
1603.3046875 2.507548 1.513851 -0.993697
1604.2890625 2.566083 1.515569 -1.050514
1605.3046875 2.449591 1.168252 -1.281339
1606.37109375 2.502006 1.206803 -1.295203
1607.43359375 2.589553 1.274553 -1.315
1608.50390625 2.299433 1.179433 -1.12
1609.52734375 2.519773 1.409773 -1.11
1610.51953125 2.437423 1.229923 -1.2075
1611.5703125 2.40054 1.302649 -1.097891
1612.60546875 2.568085 1.414898 -1.153187
1613.62109375 2.338691 1.308853 -1.029838
1614.703125 2.5187299999999997 1.42373 -1.095
1615.7265625 2.391211 1.298245 -1.092966
1616.80078125 2.578499 1.394905 -1.183594
1617.84375 2.498606 1.212949 -1.285657
1618.921875 2.5420480000000003 1.35707 -1.184978
1620.00390625 2.511011 1.416236 -1.094775
1621.0625 2.5140000000000002 1.534 -0.98
1622.08203125 2.571621 1.391621 -1.18
1623.11328125 2.564257 1.441669 -1.122588
1624.109375 2.578651 1.364564 -1.214087
1625.125 2.474415 1.415 -1.059415
1626.15625 2.475829 1.339725 -1.136104
1627.1484375 2.5273640000000004 1.312364 -1.215
1628.12890625 2.40408 1.26408 -1.14
1629.1796875 2.443365 1.313693 -1.129672
1630.18359375 2.241567 1.331567 -0.91
1631.234375 2.3709749999999996 1.301035 -1.06994
1632.23828125 2.374142 1.239198 -1.134944
1633.23046875 2.435058 1.045808 -1.38925
1634.23046875 2.409863 1.069863 -1.34
1635.2265625 2.402042 1.112921 -1.289121
1636.26171875 2.4551600000000002 1.251827 -1.203333
1637.28125 2.383543 1.216894 -1.166649
1638.34765625 2.478535 1.288535 -1.19
1639.39453125 2.620212 1.1849 -1.435312
1640.4765625 2.350389 1.050389 -1.3
1641.53125 2.501494 1.212281 -1.289213
1642.58984375 2.3775269999999997 1.060411 -1.317116
1643.6953125 2.4735389999999997 1.218539 -1.255
1644.74609375 2.472104 1.267104 -1.205
1645.84765625 2.491771 1.386925 -1.104846
1646.87890625 2.4130510000000003 1.333121 -1.07993
1647.984375 2.498422 1.513422 -0.985
1649.015625 2.476105 1.421168 -1.054937
1650.04296875 2.445226 1.472543 -0.972683
1651.0859375 2.45632 1.31493 -1.14139
1652.1015625 2.306688 1.361688 -0.945
1653.1328125 2.4991060000000003 1.429106 -1.07
1654.1015625 2.432833 1.327833 -1.105
1655.13671875 2.330514 1.296903 -1.033611
1656.140625 2.450024 1.30808 -1.141944
1657.12890625 2.353162 1.293162 -1.06
1658.12109375 2.415947 1.355947 -1.06
1659.0703125 2.360441 1.290441 -1.07
1660.04296875 2.375905 1.440954 -0.934951
1660.95703125 2.298635 1.293635 -1.005
1661.94921875 2.259807 1.191808 -1.067999
1662.91015625 2.425 1.195 -1.23
1663.90234375 2.323009 1.229144 -1.093865
1664.5078125 1.4249999999999998 -0.245 -1.67
1665.6875 2.34253 1.322593 -1.019937
1666.72265625 2.16 1.255 -0.905
1667.7578125 2.3574900000000003 1.34317 -1.01432
1668.71484375 2.292912 1.327912 -0.965
1669.6953125 2.308217 1.423217 -0.885
1670.578125 2.3049999999999997 1.29 -1.015
1671.53125 2.268208 1.298922 -0.969286
1672.49609375 2.32952 1.36452 -0.965
1673.41796875 2.3167679999999997 1.306792 -1.009976
1674.3984375 2.3219950000000003 1.252707 -1.069288
1675.3359375 2.344683 1.204683 -1.14
1676.29296875 2.264265 1.174265 -1.09
1677.26953125 2.339804 1.199874 -1.13993
1678.2734375 2.3372900000000003 1.157564 -1.179726
1679.24609375 2.359499 1.124559 -1.23494
1680.21875 2.320504 1.056383 -1.264121
1681.203125 2.363915 1.223915 -1.14
1682.18359375 2.304714 1.204333 -1.100381
1683.1796875 2.3670080000000002 1.167458 -1.19955
1684.1796875 2.388132 1.163396 -1.224736
1685.16015625 2.335906 1.185492 -1.150414
1686.1875 2.370261 1.251523 -1.118738
1687.1875 2.3717610000000002 1.295 -1.076761
1688.15625 2.3651090000000003 1.303813 -1.061296
1689.16796875 2.3018359999999998 1.24 -1.061836
1690.140625 2.393111 1.252474 -1.140637
1691.12109375 2.359712 1.228779 -1.130933
1692.11328125 2.4088779999999996 1.240244 -1.168634
1693.03125 2.35494 1.175496 -1.179444
1693.984375 2.388357 1.239138 -1.149219
1694.9921875 2.460652 1.225715 -1.234937
1695.953125 2.363096 1.258096 -1.105
1696.92578125 2.468416 1.284014 -1.184402
1697.875 2.384971 1.165 -1.219971
1698.8515625 2.5069369999999997 1.208971 -1.297966
1699.78515625 2.385525 1.050525 -1.335
1700.7578125 2.490883 1.172243 -1.31864
1701.6875 2.370625 1.205625 -1.165
1702.640625 2.439388 1.147721 -1.291667
1703.5859375 2.309324 0.849785 -1.459539
1704.57421875 2.295662 0.980662 -1.315
1705.51953125 2.3449999999999998 1.255 -1.09
1706.49609375 2.231719 1.231908 -0.999811
1707.44921875 2.353932 1.279569 -1.074363
1708.421875 2.363772 1.184447 -1.179325
1709.390625 2.325685 1.480809 -0.844876
1710.3359375 2.19487 1.41987 -0.775
1711.3203125 2.171612 1.454451 -0.717161
1712.2578125 2.165817 1.369567 -0.79625
1712.83984375 1.468198 -0.076802 -1.545
1714.1015625 2.210018 1.3138 -0.896218
1715.10546875 2.159796 1.139939 -1.019857
1716.0859375 2.3399900000000002 1.04 -1.29999
1717.0390625 2.263346 0.889611 -1.373735
1717.99609375 2.292325 0.983285 -1.30904
1718.984375 2.3880689999999998 1.005569 -1.3825
1719.94140625 2.358807 1.21995 -1.138857
1720.87109375 2.326482 1.163158 -1.163324
1721.79296875 2.4230169999999998 1.134716 -1.288301
1722.765625 2.119924 1.009275 -1.110649
1723.71875 2.063537 1.258537 -0.805
1724.71484375 2.172971 1.203636 -0.969335
1725.7421875 2.3132140000000003 1.043517 -1.269697
1726.73828125 2.289952 1.035044 -1.254908
1727.7578125 2.219084 0.939401 -1.279683
1728.7890625 2.316447 1.214422 -1.102025
1729.79296875 2.22395 1.2302 -0.99375
1730.82421875 2.346541 1.401774 -0.944767
1731.81640625 2.216003 1.219389 -0.996614
1732.84765625 2.170801 1.024773 -1.146028
1733.8359375 2.199286 1.209978 -0.989308
1734.8125 2.238661 1.238661 -1.0
1735.8984375 2.2523020000000002 1.196609 -1.055693
1736.91015625 2.277938 1.082938 -1.195
1737.88671875 2.30369 1.073744 -1.229946
1738.94140625 2.403678 1.214634 -1.189044
1739.94921875 2.334308 1.054034 -1.280274
1740.9765625 2.319908 0.96027 -1.359638
1741.95703125 2.301869 0.987411 -1.314458
1742.9765625 2.308834 0.996609 -1.312225
1744.04296875 2.383474 1.069568 -1.313906
1745.09765625 2.38264 1.072647 -1.309993
1746.21484375 2.33973 1.225458 -1.114272
1747.359375 2.453646 1.357474 -1.096172
1748.51171875 2.3519 1.2619 -1.09
1749.70703125 2.394684 1.389684 -1.005
1750.80859375 2.349826 1.299826 -1.05
1751.97265625 2.2986060000000004 1.373606 -0.925
1753.07421875 2.30853 1.27116 -1.03737
1754.1796875 2.271705 1.046719 -1.224986
1755.28515625 2.379327 1.059354 -1.319973
1756.36328125 2.3041460000000002 1.124615 -1.179531
1757.50390625 2.262868 1.244114 -1.018754
1758.55078125 2.319471 1.149852 -1.169619
1759.62890625 2.291565 1.077006 -1.214559
1760.75390625 2.3109149999999996 1.160915 -1.15
1761.78125 2.325208 1.035313 -1.289895
1762.8671875 2.293198 1.058258 -1.23494
1763.953125 2.358712 1.183712 -1.175
1765.0078125 2.263616 1.052106 -1.21151
1766.0859375 2.307746 1.218598 -1.089148
1767.09765625 2.442798 1.157812 -1.284986
1768.13671875 2.3267249999999997 1.126725 -1.2
1769.16015625 2.40394 1.322888 -1.081052
1770.17578125 2.360493 1.183657 -1.176836
1771.203125 2.230502 1.213958 -1.016544
1772.23828125 2.298959 1.356853 -0.942106
1773.2265625 2.287833 1.317833 -0.97
1774.32421875 2.107849 1.277849 -0.83
1775.34375 2.2262500000000003 1.18625 -1.04
1776.3359375 2.283235 1.160575 -1.12266
1777.34765625 2.204829 1.097634 -1.107195
1778.3984375 2.1847440000000002 1.10144 -1.083304
1779.4453125 2.2547309999999996 1.234978 -1.019753
1780.4375 2.302891 1.185 -1.117891
1781.44921875 2.1362319999999997 1.043472 -1.09276
1782.45703125 2.208822 1.116107 -1.092715
1783.46484375 2.289399 1.102817 -1.186582
1784.53515625 2.145292 1.145292 -1.0
1785.5546875 2.179971 1.405 -0.774971
1786.54296875 2.162724 1.328818 -0.833906
1787.578125 2.231926 1.323078 -0.908848
1788.6328125 2.1859729999999997 1.267799 -0.918174
1789.63671875 2.255165 1.346369 -0.908796
1790.68359375 2.2798439999999998 1.255 -1.024844
1791.74609375 2.1715210000000003 1.23807 -0.933451
1792.76953125 2.212475 1.240542 -0.971933
1793.796875 2.2874 1.298037 -0.989363
1794.83984375 2.242515 1.097515 -1.145
1795.9453125 2.285684 1.245364 -1.04032
1796.9765625 2.333198 1.313243 -1.019955
1798.03515625 2.249734 1.315 -0.934734
1799.1015625 2.203145 1.322576 -0.880569
1800.12109375 2.305231 1.391973 -0.913258
1801.15234375 2.349863 1.404863 -0.945
1802.18359375 2.300806 1.234558 -1.066248
1803.18359375 2.239465 1.079473 -1.159992
1804.19140625 2.30334 1.12834 -1.175
