176 
397 
611 
827 
1042 
1263 
1501 
1726 
1939 
2152 
2368 
2581 
2799 
3033 
3266 
3500 
3725 
3956 
4178 
4409 
4647 
4875 
5092 
5308 
5521 
5746 
5974 
6202 
6431 
6645 
6859 
7073 
7297 
7524 
7746 
7968 
8180 
8382 
8590 
8802 
9018 
9233 
9445 
9658 
9862 
10064 
10271 
10490 
10713 
10927 
11140 
11350 
11557 
11774 
11995 
12232 
12458 
12672 
12891 
13105 
13314 
13533 
13759 
13988 
14203 
14414 
14632 
14846 
15063 
15289 
15516 
15729 
15933 
16150 
16362 
16576 
16798 
17022 
17245 
17453 
17666 
17883 
18096 
18315 
18535 
18753 
18963 
19169 
19381 
19596 
19809 
20031 
20248 
20457 
20656 
20855 
21072 
21289 
21505 
21729 
21947 
22162 
22373 
22595 
22826 
23054 
23282 
23501 
23720 
23937 
24151 
24385 
24613 
24833 
25046 
25261 
25479 
25698 
25926 
26159 
26381 
26596 
26810 
27029 
27246 
27470 
27703 
27923 
28132 
28342 
28559 
28774 
28993 
29218 
29437 
29646 
29852 
30057 
30275 
30495 
30710 
30936 
31154 
31358 
31564 
31778 
31998 
32218 
32435 
32649 
32853 
33053 
33257 
33474 
33688 
33896 
34106 
34308 
34506 
34708 
34913 
35132 
35350 
35561 
35774 
35983 
36188 
36403 
36624 
36852 
37071 
37284 
37499 
37709 
37916 
38132 
38354 
38570 
38780 
38985 
39189 
39391 
39601 
39813 
40026 
40230 
40425 
40626 
40834 
41045 
41270 
41499 
41731 
41961 
42187 
42413 
42639 
42864 
43097 
43324 
43540 
43748 
43968 
44190 
44413 
44640 
44863 
45082 
45293 
45516 
45752 
45985 
46219 
46443 
46664 
46878 
47091 
47328 
47558 
47782 
48005 
48223 
48440 
48657 
48892 
49128 
49359 
49581 
49802 
50024 
50248 
50483 
50722 
50953 
51174 
51392 
51613 
51832 
52061 
52296 
52516 
52728 
52937 
53155 
53372 
53590 
53820 
54040 
54245 
54455 
54666 
54881 
55100 
55321 
55544 
55750 
55951 
56155 
56371 
56588 
56803 
57023 
57236 
57441 
57649 
57854 
58076 
58295 
58506 
58729 
58941 
59144 
59355 
59570 
59794 
60009 
60218 
60427 
60627 
60822 
61027 
61241 
61456 
61666 
61871 
62076 
62275 
62475 
62683 
62899 
63113 
63317 
63518 
63724 
63922 
64126 
64340 
64557 
64772 
64975 
65178 
65386 
65590 
65801 
66015 
66230 
66434 
66633 
66835 
67037 
67242 
67454 
67660 
67867 
68057 
68239 
68423 
68617 
68816 
69021 
69233 
69444 
69656 
69859 
70072 
70304 
70522 
70739 
70960 
71176 
71384 
71589 
71811 
72042 
72267 
72493 
72715 
72934 
73150 
73375 
73607 
73834 
74061 
74281 
74505 
74723 
74949 
75193 
75424 
75649 
75867 
76090 
76315 
76541 
76783 
77015 
77228 
77444 
77662 
77881 
78102 
78332 
78558 
78773 
78985 
79198 
79423 
79647 
79873 
80101 
80316 
80527 
80740 
80967 
81199 
81428 
81665 
81890 
82105 
82322 
82544 
82773 
82999 
83224 
83443 
83655 
83871 
84092 
84323 
84550 
84773 
84995 
85206 
85417 
85633 
85860 
86087 
86302 
86515 
86723 
86929 
87144 
87364 
87588 
87804 
88007 
88218 
88423 
88625 
88840 
89059 
89276 
89484 
89689 
89905 
90122 
90343 
90571 
90805 
91031 
91243 
91463 
91685 
91911 
92138 
92362 
92582 
92788 
92996 
93217 
93435 
93651 
93874 
94095 
94303 
94508 
94720 
94933 
95140 
95341 
95538 
95739 
95939 
96150 
96383 
96626 
96863 
97100 
97335 
97568 
97796 
98045 
98287 
98518 
98743 
98968 
99192 
99415 
99653 
99891 
100117 
100337 
100557 
100779 
101000 
101233 
101464 
101684 
101899 
102114 
102331 
102544 
102763 
102993 
103211 
103420 
103627 
103843 
104066 
104288 
104516 
104747 
104961 
105178 
105397 
105628 
105857 
106083 
106317 
106535 
106747 
106966 
107197 
107426 
107649 
107875 
108088 
108295 
108504 
108726 
108961 
109188 
109414 
109634 
109849 
110071 
110298 
110535 
110763 
110977 
111200 
111413 
111624 
111849 
112082 
112306 
112522 
112737 
112947 
113157 
113380 
113611 
113846 
114066 
114287 
114513 
114737 
114969 
115204 
115444 
115669 
115884 
116107 
116324 
116543 
116769 
116990 
117199 
117405 
117617 
117833 
118052 
118277 
118502 
118718 
118924 
119132 
119356 
119578 
119798 
120018 
120241 
120457 
120668 
120892 
121125 
121350 
121577 
121795 
122009 
122219 
122433 
122668 
122894 
123112 
123334 
123553 
123769 
123984 
124216 
124442 
124660 
124874 
125082 
125294 
125505 
125725 
125951 
126170 
126380 
126585 
126791 
126998 
127208 
127428 
127650 
127860 
128074 
128290 
128513 
128740 
128968 
129206 
129430 
129641 
129860 
130084 
130308 
130533 
130766 
130982 
131191 
131405 
131622 
131852 
132077 
132299 
132520 
132730 
132946 
133165 
133396 
133625 
133845 
134069 
134282 
134489 
134707 
134936 
135163 
135386 
135610 
135828 
136048 
136272 
136503 
136746 
136972 
137191 
137415 
137636 
137865 
138100 
138342 
138572 
138790 
139021 
139245 
139473 
139709 
139945 
140172 
140387 
140609 
140831 
141052 
141282 
141510 
141728 
141939 
142155 
142374 
142600 
142829 
143053 
143278 
143490 
143703 
143932 
144158 
144386 
144611 
144833 
145047 
145252 
145469 
145697 
145919 
146141 
146361 
146580 
146798 
147020 
147252 
147477 
147699 
147915 
148131 
148339 
148552 
148782 
149004 
149218 
149429 
149634 
149844 
150053 
150263 
150484 
150695 
150895 
151094 
151295 
151500 
151709 
151925 
152146 
152359 
152565 
152771 
152985 
153201 
153421 
153653 
153876 
154088 
154299 
154513 
154738 
154963 
155191 
155422 
155633 
155843 
156056 
156278 
156503 
156721 
156950 
157166 
157370 
157582 
157803 
158029 
158253 
158479 
158697 
158907 
159120 
159338 
159570 
159795 
160013 
160235 
160445 
160651 
160866 
161089 
161310 
161523 
161731 
161943 
162146 
162349 
162569 
162797 
163021 
163231 
163446 
163659 
163869 
164084 
164304 
164525 
164734 
164939 
165154 
165366 
165587 
165820 
166050 
166285 
166497 
166721 
166945 
167170 
167399 
167622 
167845 
168056 
168267 
168489 
168711 
168934 
169157 
169376 
169583 
169790 
170012 
170236 
170457 
170679 
170899 
171113 
171322 
171541 
171771 
171998 
172226 
172443 
172659 
172866 
173074 
173302 
173527 
173743 
173961 
174177 
174392 
174608 
174836 
175068 
175291 
175507 
175719 
175933 
176144 
176364 
176599 
176823 
177040 
177255 
177478 
177705 
177933 
178173 
178407 
178624 
178839 
179054 
179279 
179507 
179740 
179970 
180186 
180400 
180616 
180840 
181063 
181286 
181516 
181728 
181937 
182148 
182372 
182599 
182826 
183056 
183276 
183488 
183710 
183931 
184163 
184388 
184608 
184829 
185040 
185250 
185470 
185701 
185926 
186146 
186366 
186575 
186783 
187000 
187225 
187454 
187670 
187885 
188103 
188317 
188537 
188767 
189004 
189228 
189441 
189665 
189879 
190093 
190317 
190543 
190766 
190976 
191186 
191399 
191609 
191830 
192054 
192280 
192489 
192693 
192910 
193129 
193348 
193571 
193794 
194011 
194219 
194435 
194659 
194882 
195114 
195342 
195566 
195779 
195992 
196227 
196462 
196680 
196897 
197112 
197314 
197515 
197732 
197958 
198186 
198411 
198632 
198856 
199076 
199310 
199552 
199785 
200018 
200242 
200468 
200693 
200925 
201168 
201397 
201623 
201846 
202072 
202296 
202529 
202770 
203001 
203218 
203438 
203665 
203891 
204122 
204363 
204589 
204807 
205024 
205251 
205483 
205715 
205956 
206183 
206397 
206616 
206834 
207062 
207291 
207521 
207748 
207960 
208175 
208398 
208633 
208863 
209090 
209317 
209529 
209736 
209952 
210184 
210411 
210630 
210855 
211071 
211282 
211501 
211727 
211961 
212189 
212408 
212629 
212842 
213067 
213300 
213535 
213760 
213978 
214200 
214415 
214631 
214860 
215097 
215322 
215537 
215763 
215981 
216202 
216431 
216666 
216895 
217111 
217334 
217562 
217791 
218030 
218266 
218499 
218711 
218926 
219150 
219373 
219601 
219828 
220055 
220268 
220486 
220716 
220948 
221180 
221413 
221643 
221869 
222087 
222324 
222556 
222790 
223036 
223271 
223501 
223724 
223966 
224205 
224436 
224667 
224892 
225109 
225335 
225578 
225818 
226052 
226279 
226511 
226739 
226964 
227207 
227439 
227666 
227886 
228109 
228336 
228565 
228809 
229044 
229264 
229485 
229705 
229928 
230161 
230402 
230637 
230855 
231069 
231285 
231501 
231711 
231923 
232141 
232349 
232552 
232761 
232983 
233216 
233444 
233683 
233913 
234134 
234357 
234585 
234826 
235056 
235282 
235502 
235705 
235914 
236131 
236359 
236586 
236811 
237039 
237256 
237471 
237697 
237933 
238161 
238375 
238596 
238809 
239024 
239251 
239481 
239717 
239941 
240161 
240384 
240604 
240841 
241077 
241316 
241551 
241778 
242013 
242247 
242486 
242726 
242967 
243190 
243417 
243647 
243879 
244117 
244353 
244587 
244807 
245028 
245252 
245476 
245709 
245936 
246161 
246375 
246585 
246810 
247040 
247270 
247508 
247747 
247975 
248202 
248443 
248682 
248918 
249148 
249373 
249590 
249805 
250041 
250270 
250493 
250714 
250932 
251147 
251361 
251588 
251822 
252051 
252274 
252490 
252707 
252923 
253147 
253382 
253612 
253832 
254046 
254269 
254487 
254711 
254953 
255180 
255401 
255616 
255835 
256058 
256283 
256522 
256755 
256979 
257201 
257421 
257655 
257888 
258122 
258358 
258582 
258802 
259030 
259265 
259498 
259737 
259970 
260187 
260408 
260635 
260867 
261093 
261319 
261543 
261748 
261957 
262174 
262403 
262627 
262848 
263074 
263289 
263495 
263712 
263946 
264179 
264410 
264638 
264858 
265072 
265292 
265520 
265752 
265971 
266189 
266408 
266618 
266834 
267064 
267295 
267519 
267735 
267960 
268177 
268394 
268625 
268862 
269088 
269306 
269529 
269753 
269977 
270210 
270444 
270674 
270888 
271106 
271324 
271541 
271770 
271996 
272222 
272435 
272643 
272869 
273096 
273325 
273557 
273789 
274011 
274226 
274453 
274683 
274909 
275132 
275353 
275569 
275779 
276000 
276232 
276458 
276689 
276913 
277135 
277347 
277564 
277802 
278028 
278247 
278461 
278671 
278881 
279083 
279289 
279494 
279686 
279869 
280047 
280224 
280569 
280742 
280925 
281104 
281280 
281449 
281615 
281782 
281956 
282129 
282309 
282502 
282704 
282901 
283090 
283285 
283488 
283699 
283916 
284140 
284369 
284588 
284803 
285022 
285255 
285490 
285732 
285972 
286197 
286426 
286660 
286904 
287141 
287383 
287620 
287841 
288059 
288276 
288503 
288730 
288953 
289187 
289406 
289626 
289856 
290088 
290324 
290558 
290787 
290996 
291202 
291423 
291666 
291897 
292124 
292354 
292577 
292792 
293015 
293252 
293486 
293693 
293891 
294086 
294271 
294453 
294644 
294836 
295030 
295217 
295398 
295587 
295775 
295963 
296165 
296371 
296586 
296800 
297011 
297230 
297428 
297686 
297926 
298160 
298389 
298606 
298831 
299062 
299290 
299532 
299766 
299993 
300214 
300441 
300676 
300909 
301153 
301387 
301613 
301831 
302053 
302282 
302508 
302736 
302959 
303182 
303403 
303630 
303877 
304114 
304357 
304588 
304817 
305042 
305279 
305531 
305766 
306003 
306230 
306458 
306680 
306915 
307158 
307389 
307604 
307804 
307997 
308187 
308376 
308579 
308784 
308986 
309185 
309378 
309576 
309773 
309970 
310172 
310377 
310567 
310746 
310926 
311108 
311295 
311482 
311671 
311873 
312071 
312261 
312453 
312651 
312860 
313070 
313283 
313512 
313732 
313948 
314165 
314395 
314639 
314876 
315118 
315350 
315570 
315792 
316028 
316271 
316507 
316751 
316985 
317204 
317432 
317672 
317909 
318143 
318378 
318599 
318818 
319043 
319281 
319515 
319740 
319966 
320185 
320398 
320624 
320850 
321080 
321301 
321512 
321731 
321941 
322147 
322368 
322599 
322821 
323030 
323247 
323465 
323684 
323911 
324143 
324378 
324597 
324822 
325048 
325281 
325525 
325761 
325998 
326224 
326452 
326685 
326924 
327168 
327410 
327642 
327866 
328096 
328335 
328566 
328797 
329028 
329255 
329475 
329707 
329946 
330185 
330421 
330646 
330866 
331078 
331304 
331533 
331759 
331987 
332205 
332418 
332623 
332829 
333055 
333282 
333497 
333711 
333931 
334147 
334367 
334609 
334850 
335079 
335302 
335521 
335742 
335961 
336195 
336423 
336637 
336852 
337065 
337280 
337492 
337709 
337942 
338164 
338374 
338591 
338823 
339037 
339244 
339456 
339659 
339851 
340036 
340219 
340409 
340602 
340794 
340992 
341197 
341391 
341582 
341785 
341996 
342217 
342443 
342678 
342911 
343130 
343357 
343587 
343822 
344058 
344296 
344528 
344749 
344968 
345190 
345427 
345656 
345888 
346120 
346340 
346570 
346811 
347060 
347300 
347537 
347769 
347990 
348176 
348462 
348713 
348950 
349181 
349410 
349638 
349868 
350099 
350337 
350555 
350769 
350987 
351202 
351431 
351662 
351899 
352127 
352346 
352569 
352790 
353023 
353262 
353497 
353719 
353937 
354159 
354378 
354601 
354833 
355072 
355292 
355508 
355739 
355966 
356194 
356423 
356658 
356881 
357098 
357336 
357580 
357813 
358049 
358286 
358512 
358735 
358971 
359211 
359446 
359679 
359909 
360130 
360354 
360591 
360826 
361055 
361281 
361502 
361716 
361925 
362151 
362380 
362605 
362834 
363056 
363279 
363504 
363742 
363985 
364212 
364436 
364651 
364868 
365074 
365282 
365501 
365718 
365931 
366145 
366376 
366610 
366847 
367107 
367357 
367585 
367812 
368049 
368287 
368522 
368767 
368996 
369214 
369434 
369664 
369896 
370128 
370370 
370595 
370811 
371028 
371258 
371488 
371706 
371931 
372142 
372346 
372555 
372767 
372999 
373231 
373462 
373685 
373895 
374114 
374343 
374579 
374814 
375048 
375277 
375485 
375699 
375922 
376161 
376392 
376624 
376861 
377086 
377308 
377543 
377791 
378029 
378256 
378492 
378718 
378946 
379189 
379437 
379676 
379901 
380133 
380356 
380585 
380821 
381052 
381269 
381486 
381714 
381940 
382177 
382408 
382637 
382850 
383049 
383259 
383464 
383673 
383897 
384127 
384355 
384576 
384801 
385035 
385270 
385513 
385752 
385982 
386203 
386430 
386659 
386890 
387126 
387357 
387579 
387797 
388020 
388256 
388490 
388730 
388958 
389186 
389408 
389631 
389868 
390100 
390329 
390555 
390781 
390998 
391221 
391459 
391694 
391924 
392144 
392364 
392581 
392801 
393040 
393266 
393488 
393703 
393919 
394134 
394353 
394593 
394824 
395042 
395259 
395480 
395705 
395932 
396176 
396419 
396655 
396882 
397115 
397350 
397581 
397829 
398066 
398286 
398498 
398716 
398945 
399174 
399406 
399637 
399855 
400074 
400292 
400514 
400741 
400970 
401198 
401416 
401636 
401855 
402089 
402320 
402558 
402794 
403011 
403233 
403462 
403702 
403936 
404169 
404402 
404616 
404828 
405052 
405286 
405515 
405739 
405966 
406185 
406397 
406612 
406840 
407069 
407284 
407500 
407709 
407919 
408140 
408369 
408602 
408826 
409039 
409258 
409471 
409695 
409924 
410156 
410380 
410598 
410823 
411048 
411273 
411514 
411760 
411988 
412206 
412438 
412661 
412880 
413103 
413331 
413553 
413761 
413982 
414207 
414433 
414666 
414895 
415120 
415334 
415554 
415778 
416009 
416247 
416484 
416715 
416937 
417165 
417399 
417633 
417869 
418096 
418321 
418537 
418759 
418994 
419222 
419454 
419683 
419904 
420119 
420339 
420578 
420814 
421047 
421278 
421508 
421729 
421958 
422200 
422437 
422672 
422898 
423120 
423336 
423557 
423794 
424023 
424245 
424463 
424680 
424898 
425123 
425363 
425594 
425815 
426036 
426260 
426483 
426711 
426957 
427191 
427424 
427645 
427876 
428114 
428353 
428603 
428839 
429061 
429285 
429515 
429744 
429972 
430211 
430439 
430651 
430869 
431097 
431329 
431567 
431806 
432031 
432249 
432469 
432700 
432935 
433162 
433397 
433615 
433825 
434037 
434249 
434476 
434698 
434921 
435155 
435374 
435593 
435824 
436067 
436300 
436529 
436758 
436980 
437205 
437438 
437682 
437912 
438135 
438360 
438577 
438802 
439039 
439285 
439526 
439754 
439986 
440209 
440439 
440679 
440924 
441154 
441379 
441608 
441833 
442069 
442309 
442551 
442774 
442993 
443214 
443428 
443647 
443861 
444077 
444288 
444492 
444707 
444925 
445152 
445390 
445628 
445852 
446070 
446297 
446532 
446769 
447008 
447249 
447477 
447693 
447922 
448153 
448385 
448616 
448843 
449065 
449278 
449500 
449728 
449953 
450181 
450399 
450610 
450817 
451030 
451260 
451495 
451732 
451966 
452198 
452424 
452660 
452911 
453153 
453395 
453628 
453863 
454093 
454333 
454578 
454812 
455045 
455268 
455494 
455717 
455951 
456188 
456415 
456634 
456851 
457074 
457295 
457526 
457762 
457986 
458203 
458419 
458641 
458858 
459083 
459328 
459557 
459775 
459999 
460230 
460465 
460702 
460950 
461184 
461408 
461637 
461879 
462121 
