3.8046875 4.262627 2.176984 -2.085643
4.5546875 4.168482 2.301108 -1.867374
5.3046875 4.17146 2.122926 -2.048534
6.05859375 3.981312 2.092509 -1.888803
6.80078125 4.1910050000000005 2.377803 -1.813202
7.5546875 3.7092780000000003 1.843958 -1.86532
8.30078125 3.937514 2.422447 -1.515067
9.046875 4.209929 2.415238 -1.794691
9.8046875 4.229246 2.507139 -1.722107
10.546875 3.944483 2.314635 -1.629848
11.296875 4.086577999999999 2.472387 -1.614191
12.0703125 3.992553 2.403297 -1.589256
12.8203125 3.949594 2.314459 -1.635135
13.57421875 4.080211 2.220211 -1.86
14.34765625 4.1411370000000005 2.420246 -1.720891
15.09765625 4.156659 2.377018 -1.779641
15.8515625 3.809221 2.134221 -1.675
16.60546875 4.047765 2.494989 -1.552776
17.375 3.982391 2.435 -1.547391
18.1484375 4.082559 2.360852 -1.721707
18.8984375 4.037455 2.128014 -1.909441
19.68359375 4.276457 2.382768 -1.893689
20.4453125 4.239334 2.336005 -1.903329
21.20703125 4.0114540000000005 2.303026 -1.708428
21.97265625 3.922742 2.190654 -1.732088
22.734375 4.1490849999999995 2.365986 -1.783099
23.49609375 4.27665 2.326905 -1.949745
24.2734375 4.254549 2.377579 -1.87697
25.03125 4.045387 2.320547 -1.72484
25.7890625 4.119755 2.224531 -1.895224
26.55859375 3.959826 2.419954 -1.539872
27.30859375 3.956259 2.589788 -1.366471
28.0625 3.8508000000000004 2.287192 -1.563608
28.8125 4.05604 2.589439 -1.466601
29.56640625 3.8607059999999995 2.30413 -1.556576
30.328125 3.9560589999999998 2.47614 -1.479919
31.08203125 4.081088 2.491695 -1.589393
31.8359375 4.00778 2.259909 -1.747871
32.59765625 3.9441260000000002 2.34276 -1.601366
33.3671875 3.9621079999999997 2.426652 -1.535456
34.12109375 4.164606 2.279823 -1.884783
34.8671875 3.571894 1.392551 -2.179343
35.62890625 2.648825 0.872773 -1.776052
36.42578125 3.513289 2.042328 -1.470961
37.1875 3.601832 2.229413 -1.372419
37.96484375 3.876125 2.391615 -1.48451
38.75 3.964809 2.28 -1.684809
39.50390625 4.201358000000001 2.10286 -2.098498
40.2734375 3.865249 2.25007 -1.615179
41.03515625 4.119543 2.409981 -1.709562
41.79296875 4.022208 2.312705 -1.709503
42.5546875 4.089822 2.10456 -1.985262
43.30859375 3.959211 2.418042 -1.541169
44.06640625 3.978842 2.429234 -1.549608
44.828125 4.089855 2.313781 -1.776074
45.59765625 3.944192 2.469448 -1.474744
46.3515625 3.782373 2.334852 -1.447521
47.09375 3.9910769999999998 2.317852 -1.673225
47.859375 4.046968 2.437284 -1.609684
48.6484375 3.928313 2.474903 -1.45341
49.41796875 3.991923 2.465313 -1.52661
50.1953125 4.042726 2.552079 -1.490647
50.9765625 4.074869 2.539467 -1.535402
51.7578125 4.19212 2.508972 -1.683148
52.5390625 4.021914 2.434333 -1.587581
53.30078125 4.163017 2.39203 -1.770987
54.08203125 4.046884 2.442052 -1.604832
54.87109375 4.17203 2.482035 -1.689995
55.62890625 4.131847 2.357951 -1.773896
56.40625 4.082825 2.599523 -1.483302
57.19140625 4.167888 2.561681 -1.606207
57.9609375 3.9255430000000002 2.479957 -1.445586
58.73828125 4.107744 2.526902 -1.580842
59.50390625 4.187404 2.408196 -1.779208
60.27734375 4.061563 2.367356 -1.694207
61.0703125 4.047919 2.517719 -1.5302
61.84375 4.326942 2.574327 -1.752615
62.63671875 4.156758 2.473674 -1.683084
63.40234375 4.211492 2.500041 -1.711451
64.16015625 4.253991 2.395503 -1.858488
64.9453125 4.029953 2.609428 -1.420525
65.70703125 4.015166000000001 2.630469 -1.384697
66.4765625 4.006457 2.379509 -1.626948
67.24609375 3.9830370000000004 2.369794 -1.613243
68.0078125 4.039114 2.380681 -1.658433
68.78515625 4.136319 2.325562 -1.810757
69.56640625 4.022019 2.559184 -1.462835
70.3125 4.099761 2.319983 -1.779778
71.08984375 3.89688 2.481886 -1.414994
71.85546875 3.943766 2.594905 -1.348861
72.640625 4.006468 2.462608 -1.54386
73.40234375 4.051279 2.255029 -1.79625
74.16015625 4.075284 2.44326 -1.632024
74.94921875 4.07212 2.413423 -1.658697
75.70703125 4.023574 2.222701 -1.800873
76.46875 3.958328 2.422879 -1.535449
77.23046875 4.170469 2.326113 -1.844356
77.98828125 3.946916 2.472914 -1.474002
78.765625 4.215652 2.296312 -1.91934
79.515625 3.8673279999999997 2.013934 -1.853394
80.265625 4.145453 2.191909 -1.953544
81.0390625 4.122719 2.191153 -1.931566
81.796875 3.626642 1.609486 -2.017156
82.54296875 3.735435 2.290483 -1.444952
83.30078125 3.873949 2.570501 -1.303448
84.0546875 3.9625440000000003 2.24236 -1.720184
84.83203125 3.89217 2.427331 -1.464839
85.59375 3.985074 2.523284 -1.46179
86.34765625 4.029216 2.398159 -1.631057
87.12890625 4.089989 2.416011 -1.673978
87.8984375 3.9611289999999997 2.358745 -1.602384
88.6484375 4.114358 2.299334 -1.815024
89.41015625 3.9056179999999996 2.28 -1.625618
90.1640625 4.119547 2.429682 -1.689865
90.94140625 3.938225 2.263105 -1.67512
91.69140625 4.183512 2.260515 -1.922997
92.44921875 4.083279 2.399619 -1.68366
93.2421875 4.003305 2.410475 -1.59283
94.01171875 4.037276 2.317474 -1.719802
94.77734375 3.950176 2.395509 -1.554667
95.55078125 3.998157 2.409583 -1.588574
96.32421875 4.164598 2.396706 -1.767892
97.109375 3.896542 2.234674 -1.661868
97.58984375 4.383046 2.605906 -1.77714
98.65625 3.965653 2.547949 -1.417704
99.42578125 4.093457 2.409673 -1.683784
99.91015625 4.319378 2.526682 -1.792696
100.953125 3.9493539999999996 2.485 -1.464354
101.71484375 4.245312 2.4286 -1.816712
102.47265625 3.9772980000000002 2.183037 -1.794261
103.24609375 4.169626 2.395087 -1.774539
104.00390625 3.972998 2.390317 -1.582681
104.77734375 4.163777 2.426275 -1.737502
105.54296875 4.0533529999999995 2.234657 -1.818696
106.29296875 4.240737 2.498822 -1.741915
107.05859375 4.169941 2.417298 -1.752643
107.8125 4.182354 2.499667 -1.682687
108.58203125 4.196849 2.452764 -1.744085
109.359375 3.818552 2.144139 -1.674413
110.125 4.072996 2.52 -1.552996
110.90625 4.119284 2.5535 -1.565784
111.67578125 4.1947030000000005 2.571987 -1.622716
112.44921875 4.115442 2.524058 -1.591384
113.21875 4.206785 2.260681 -1.946104
113.98046875 4.164004 2.500302 -1.663702
114.7578125 4.052499 2.401643 -1.650856
115.5390625 4.12279 2.473425 -1.649365
116.30078125 4.0434 2.481276 -1.562124
117.0703125 4.2337869999999995 2.352115 -1.881672
117.83984375 4.093079 2.342055 -1.751024
118.59375 4.100248 2.555617 -1.544631
119.35546875 4.131482 2.524882 -1.6066
120.1171875 4.088204 2.503551 -1.584653
120.88671875 4.053812 2.566168 -1.487644
121.67578125 4.1819999999999995 2.594511 -1.587489
122.44140625 4.113961 2.420876 -1.693085
123.22265625 4.034059 2.504637 -1.529422
123.9921875 4.3025389999999994 2.503113 -1.799426
124.75390625 4.406024 2.559667 -1.846357
125.5234375 4.082344 2.260065 -1.822279
126.28125 4.1912139999999996 2.633542 -1.557672
127.0546875 4.289771 2.485199 -1.804572
127.83203125 4.012149 2.187408 -1.824741
128.59375 4.061095 2.5 -1.561095
129.38671875 4.160928 2.549204 -1.611724
130.1640625 4.1181920000000005 2.514723 -1.603469
130.9296875 4.329349 2.651007 -1.678342
131.703125 4.213158 2.569139 -1.644019
132.47265625 4.0205 2.544104 -1.476396
133.25 4.252433 2.53 -1.722433
134.03125 4.198675 2.557634 -1.641041
134.796875 4.121691 2.637779 -1.483912
135.5625 4.138837 2.405068 -1.733769
136.3359375 4.259381 2.578183 -1.681198
137.08984375 4.115439 2.622393 -1.493046
137.84765625 4.059482 2.503613 -1.555869
138.609375 4.137288 2.632348 -1.50494
139.3671875 4.147703 2.614136 -1.533567
140.125 4.23452 2.44 -1.79452
140.875 4.156692 2.29 -1.866692
141.66015625 4.140395 2.45544 -1.684955
142.4140625 3.8950839999999998 2.404821 -1.490263
143.15625 3.982202 2.210926 -1.771276
143.9375 3.6931130000000003 2.305577 -1.387536
144.6796875 3.888141 2.230552 -1.657589
145.45703125 3.961225 2.287408 -1.673817
146.234375 3.982918 2.32053 -1.662388
146.984375 3.80812 2.230954 -1.577166
147.76953125 3.8347740000000003 2.354995 -1.479779
148.5390625 3.857571 2.242191 -1.61538
149.01171875 4.249404999999999 2.409042 -1.840363
150.0390625 3.924132 2.415587 -1.508545
150.8046875 4.089906 2.207065 -1.882841
151.5546875 3.975376 2.165094 -1.810282
152.30859375 4.032492 2.364901 -1.667591
153.0625 3.9757860000000003 2.228688 -1.747098
153.828125 3.9220360000000003 2.2219 -1.700136
154.58203125 4.081867 2.431976 -1.649891
155.32421875 4.0439490000000005 2.48009 -1.563859
156.06640625 4.243326 2.565824 -1.677502
156.84375 4.157818 2.405 -1.752818
157.61328125 3.953154 2.453544 -1.49961
158.13671875 4.36832 2.572219 -1.796101
159.1171875 3.8807020000000003 2.419407 -1.461295
159.890625 4.111026 2.327244 -1.783782
160.64453125 4.072974 2.414762 -1.658212
161.375 4.030151 2.26 -1.770151
162.11328125 3.9847970000000004 2.140044 -1.844753
162.859375 3.899836 2.266846 -1.63299
163.60546875 4.066422 2.219933 -1.846489
164.33984375 4.1826419999999995 2.209485 -1.973157
165.09375 3.792027 2.250955 -1.541072
165.85546875 3.801813 2.369945 -1.431868
166.59375 4.008847 2.088398 -1.920449
167.33203125 3.8899779999999997 2.225087 -1.664891
168.09375 3.9905670000000004 2.424844 -1.565723
168.8359375 3.871474 2.154817 -1.716657
169.60546875 3.88186 2.32186 -1.56
170.3671875 3.981205 2.321636 -1.659569
171.10546875 4.100513 2.284949 -1.815564
171.87890625 3.9222080000000004 2.317813 -1.604395
172.62109375 3.976208 2.307815 -1.668393
173.35546875 3.932674 2.269777 -1.662897
174.109375 4.023068 2.396817 -1.626251
174.85546875 3.9568080000000005 2.384374 -1.572434
175.59765625 3.841057 2.097038 -1.744019
176.3515625 3.8788289999999996 2.363829 -1.515
177.1015625 4.115 2.415 -1.7
177.8671875 3.9297380000000004 2.199193 -1.730545
178.6171875 3.8848279999999997 2.479183 -1.405645
179.35546875 4.138151000000001 2.429803 -1.708348
180.12109375 3.854833 2.2 -1.654833
180.8671875 3.9123069999999998 2.468682 -1.443625
181.6328125 4.167623000000001 2.487347 -1.680276
182.39453125 4.117436 2.288655 -1.828781
183.140625 4.315907 2.487354 -1.828553
183.91796875 4.196064 2.536787 -1.659277
184.66796875 4.256816 2.505 -1.751816
185.41015625 4.052923 2.520912 -1.532011
186.1640625 4.2649 2.574294 -1.690606
186.9140625 4.268611 2.608813 -1.659798
187.671875 4.033163999999999 2.609285 -1.423879
188.42578125 4.2351399999999995 2.645263 -1.589877
189.17578125 4.2131359999999995 2.644652 -1.568484
189.94921875 4.118677 2.62322 -1.495457
190.69921875 4.134676 2.718774 -1.415902
191.43359375 4.279203 2.628974 -1.650229
192.203125 4.041982 2.6283 -1.413682
192.94921875 4.151823 2.675519 -1.476304
193.71484375 4.265595 2.684507 -1.581088
194.47265625 4.304050999999999 2.529051 -1.775
195.22265625 3.803787 2.075398 -1.728389
195.99609375 4.1420650000000006 2.552331 -1.589734
196.75 4.018665 2.525 -1.493665
197.49609375 4.044833 2.624288 -1.420545
198.25 4.084654 2.695 -1.389654
198.9921875 4.07454 2.448401 -1.626139
199.74609375 4.126385 2.566905 -1.55948
200.50390625 4.254721 2.692286 -1.562435
201.25 4.063486 2.435 -1.628486
202.0 4.042472999999999 2.445 -1.597473
202.75 4.143959000000001 2.455 -1.688959
203.49609375 4.208928 2.329408 -1.87952
204.24609375 4.1232880000000005 2.473453 -1.649835
204.9765625 4.283001 2.438001 -1.845
205.73828125 4.041834 2.467615 -1.574219
206.5 4.035022 2.51 -1.525022
207.23046875 3.994441 2.378882 -1.615559
207.70703125 4.58634 2.802641 -1.783699
208.73828125 4.107691 2.599344 -1.508347
209.49609375 3.862213 2.140267 -1.721946
210.23046875 4.153183 2.679956 -1.473227
210.9765625 4.207173 2.457173 -1.75
211.70703125 4.046607 2.477837 -1.56877
212.46875 4.013905 2.565068 -1.448837
213.20703125 4.103184000000001 2.323812 -1.779372
213.9375 4.173036 2.580938 -1.592098
214.703125 4.130027 2.481145 -1.648882
215.4453125 4.150878 2.327304 -1.823574
216.1796875 4.090533 2.564483 -1.52605
216.91796875 4.170459 2.405416 -1.765043
217.66796875 4.140712 2.493013 -1.647699
218.41796875 4.087194 2.584331 -1.502863
219.16015625 4.1792180000000005 2.418749 -1.760469
219.8984375 4.214911 2.409108 -1.805803
220.6640625 4.082562 2.434151 -1.648411
221.40234375 4.337925 2.379732 -1.958193
222.12890625 4.338481 2.304986 -2.033495
222.88671875 4.2424420000000005 2.586163 -1.656279
223.62109375 4.405215999999999 2.670317 -1.734899
224.359375 4.027265 2.227304 -1.799961
225.109375 4.25555 2.789394 -1.466156
225.84765625 4.229875 2.776622 -1.453253
226.59765625 4.1738029999999995 2.571888 -1.601915
227.34375 4.202763 2.579683 -1.62308
228.0859375 4.179104000000001 2.579823 -1.599281
228.828125 4.267721 2.442035 -1.825686
229.57421875 4.226426 2.524589 -1.701837
230.31640625 4.2105879999999996 2.614026 -1.596562
231.06640625 4.048557 2.344621 -1.703936
231.80078125 4.213336 2.591376 -1.62196
232.55859375 4.098374 2.349853 -1.748521
233.30859375 4.042022 2.278975 -1.763047
234.046875 3.999575 2.364727 -1.634848
234.7890625 4.213127 2.109491 -2.103636
235.515625 4.064888 2.341554 -1.723334
236.2578125 4.2694600000000005 2.35246 -1.917
237.0234375 3.923996 1.995187 -1.928809
237.7578125 3.949696 2.138505 -1.811191
238.5 4.200168 2.305 -1.895168
239.26171875 4.22366 2.393685 -1.829975
240.01171875 4.07346 2.23099 -1.84247
240.75 4.151516 2.25 -1.901516
241.5 4.093572 2.375 -1.718572
242.25 4.205703 2.3 -1.905703
243.015625 4.088553 2.445961 -1.642592
243.76171875 4.274707 2.45814 -1.816567
244.51953125 4.024455 2.164971 -1.859484
245.28515625 4.127236 2.32081 -1.806426
246.0390625 4.155942 2.384778 -1.771164
246.79296875 4.258955 2.193555 -2.0654
247.53125 4.114174 2.248398 -1.865776
248.2890625 4.205617999999999 2.329957 -1.875661
249.0625 4.0929459999999995 2.227308 -1.865638
249.8125 4.113047 2.32822 -1.784827
250.5703125 4.3483540000000005 2.509481 -1.838873
251.34375 4.0850349999999995 2.373341 -1.711694
252.10546875 4.1075680000000006 2.494857 -1.612711
252.8671875 4.113625 2.612375 -1.50125
253.62890625 4.024015 2.425837 -1.598178
254.390625 4.080639 2.446894 -1.633745
255.16015625 3.9329069999999997 2.387907 -1.545
255.91796875 4.0549159999999995 2.235006 -1.81991
256.68359375 4.052188 2.244413 -1.807775
257.4453125 4.07451 2.356238 -1.718272
258.18359375 4.291494 2.28325 -2.008244
258.9453125 4.100618 2.254124 -1.846494
259.6796875 4.035963 2.312023 -1.72394
260.41796875 4.316739 2.135304 -2.181435
261.18359375 3.762226 1.611717 -2.150509
261.91796875 3.4845930000000003 1.309782 -2.174811
262.68359375 3.744218 1.957331 -1.786887
263.20703125 4.354817000000001 2.62 -1.734817
264.18359375 3.885192 2.182114 -1.703078
264.94921875 3.974216 2.153061 -1.821155
265.421875 4.328794 2.553794 -1.775
266.4453125 3.9190240000000003 1.855627 -2.063397
266.97265625 4.329969 2.553531 -1.776438
267.97265625 3.9522950000000003 2.417291 -1.535004
268.71875 4.057383 2.247935 -1.809448
269.47265625 3.9724060000000003 2.333091 -1.639315
270.203125 4.130363 2.175753 -1.95461
270.953125 4.103331 2.50381 -1.599521
271.67578125 3.935301 2.344668 -1.590633
272.41796875 4.1064 2.215519 -1.890881
273.1796875 4.187037 2.339909 -1.847128
273.91796875 4.03232 2.416395 -1.615925
274.6640625 4.107889 2.389175 -1.718714
275.421875 4.128331 2.30322 -1.825111
276.17578125 3.95406 2.416699 -1.537361
276.9453125 4.22242 2.510895 -1.711525
277.70703125 3.9757610000000003 2.302194 -1.673567
278.4765625 3.9563450000000002 2.398083 -1.558262
279.265625 4.084828 2.43499 -1.649838
280.04296875 4.068413 2.29337 -1.775043
280.8125 4.0992310000000005 2.256667 -1.842564
281.6015625 4.002129 2.421641 -1.580488
282.37890625 4.170151 2.39437 -1.775781
283.14453125 3.911136 1.945858 -1.965278
283.90625 3.5288 1.500118 -2.028682
284.67578125 3.7716209999999997 2.061952 -1.709669
285.4609375 3.8934629999999997 2.279693 -1.61377
286.21875 4.010386 2.138381 -1.872005
286.99609375 3.8355170000000003 1.995848 -1.839669
287.76953125 3.82748 2.094951 -1.732529
288.5390625 3.795185 2.13421 -1.660975
289.3125 4.0531179999999996 2.347962 -1.705156
289.796875 4.449149 2.584149 -1.865
290.81640625 4.0969750000000005 2.332547 -1.764428
291.5859375 4.228915000000001 2.419827 -1.809088
292.33203125 3.859981 2.150203 -1.709778
292.796875 4.357238 2.70401 -1.653228
293.81640625 3.933586 2.362938 -1.570648
294.55859375 3.927182 1.982277 -1.944905
295.28125 3.992196 2.254231 -1.737965
296.0078125 4.113284 2.410608 -1.702676
296.73046875 4.01174 2.244949 -1.766791
297.484375 4.059978 2.439142 -1.620836
298.21484375 3.927122 2.4118 -1.515322
298.9609375 3.911709 2.3 -1.611709
299.73828125 3.9083550000000002 2.330133 -1.578222
300.51171875 3.8582859999999997 2.448863 -1.409423
301.28515625 4.033192 2.280558 -1.752634
302.06640625 4.142401 2.359792 -1.782609
302.84375 3.94416 2.449308 -1.494852
303.6484375 3.963683 2.282852 -1.680831
304.4140625 4.04508 2.186701 -1.858379
305.18359375 3.9660650000000004 2.232483 -1.733582
305.98046875 4.046388 2.459866 -1.586522
306.75390625 4.178941 2.252279 -1.926662
307.5 4.123177 2.32 -1.803177
308.26953125 4.049542 2.449856 -1.599686
309.02734375 4.0024999999999995 2.290488 -1.712012
309.80859375 3.947015 2.179954 -1.767061
310.5703125 3.973862 2.255779 -1.718083
311.33203125 4.142415 2.218645 -1.92377
312.1171875 4.075308 2.327291 -1.748017
312.890625 4.016362 2.307862 -1.7085
313.6484375 3.9578059999999997 2.133702 -1.824104
314.40625 3.9659109999999997 2.405324 -1.560587
315.16015625 4.03334 2.293748 -1.739592
315.93359375 3.9668650000000003 2.036865 -1.93
316.6796875 3.858087 1.824935 -2.033152
317.4296875 3.445789 1.490071 -1.955718
318.19140625 3.092488 1.168842 -1.923646
318.94921875 3.3855950000000004 1.737621 -1.647974
319.6796875 3.5918910000000004 2.014489 -1.577402
320.43359375 3.5494459999999997 1.857414 -1.692032
321.203125 3.6229259999999996 1.923255 -1.699671
321.9765625 3.7833810000000003 2.168381 -1.615
322.734375 3.461913 1.55521 -1.906703
323.49609375 3.779924 2.020107 -1.759817
324.2734375 3.756577 2.187349 -1.569228
325.0234375 3.9530570000000003 1.979236 -1.973821
325.7890625 3.8869350000000003 2.129457 -1.757478
326.53125 4.079828 2.301964 -1.777864
327.26953125 3.8649180000000003 1.624995 -2.239923
328.0390625 4.044161 2.314728 -1.729433
328.7734375 3.836613 2.174654 -1.661959
329.50390625 3.9080310000000003 2.057004 -1.851027
330.26171875 3.887557 2.297259 -1.590298
331.00390625 3.940187 2.327663 -1.612524
331.734375 4.318707 2.456966 -1.861741
332.47265625 3.996451 2.437583 -1.558868
333.20703125 3.998742 2.198844 -1.799898
333.96484375 4.040449 2.51 -1.530449
334.70703125 4.231177 2.437035 -1.794142
335.44140625 4.081811 2.318193 -1.763618
336.1953125 3.982884 2.252344 -1.73054
336.953125 3.979553 2.478184 -1.501369
337.6953125 3.9698339999999996 2.437909 -1.531925
338.4375 3.9688309999999998 2.3695 -1.599331
339.18359375 4.045920000000001 2.518746 -1.527174
339.94921875 4.112308 2.473667 -1.638641
340.68359375 3.789795 2.128364 -1.661431
341.421875 3.9390910000000003 2.47067 -1.468421
342.18359375 3.9777630000000004 2.316691 -1.661072
342.92578125 3.89947 2.370626 -1.528844
343.65234375 3.9142870000000003 2.494613 -1.419674
344.39453125 4.055109 2.409685 -1.645424
345.13671875 3.9267950000000003 2.383265 -1.54353
345.89453125 3.9748849999999996 2.484069 -1.490816
346.6328125 4.083482999999999 2.324413 -1.75907
347.37109375 3.937398 2.483207 -1.454191
348.13671875 4.207772 2.506658 -1.701114
348.88671875 4.014551 2.248213 -1.766338
349.390625 4.328154 2.703154 -1.625
350.3671875 3.950302 2.304657 -1.645645
351.11328125 4.121054 2.342197 -1.778857
351.8671875 4.173674 2.458991 -1.714683
352.6015625 3.892975 2.035813 -1.857162
353.33203125 3.683129 1.778393 -1.904736
354.09375 3.8390259999999996 1.952794 -1.886232
354.8359375 3.8213869999999996 2.012256 -1.809131
355.56640625 3.9753439999999998 2.23967 -1.735674
356.32421875 4.228436 2.488422 -1.740014
357.07421875 4.095542 2.540394 -1.555148
357.83203125 4.09385 2.219575 -1.874275
358.59375 4.343953 2.519639 -1.824314
359.34375 4.19341 2.545012 -1.648398
360.109375 4.048859 2.272339 -1.77652
360.8671875 3.945386 2.258425 -1.686961
361.61328125 4.115248 2.509628 -1.60562
362.37109375 4.236518 2.397064 -1.839454
363.11328125 4.103053 2.315257 -1.787796
363.8828125 4.1277989999999996 2.336664 -1.791135
364.6484375 4.172912 2.454617 -1.718295
365.40234375 4.134088 2.467838 -1.66625
366.16796875 4.426879 2.561166 -1.865713
366.72265625 4.472809 2.789481 -1.683328
367.65625 4.152175 2.590648 -1.561527
368.41796875 4.257042 2.539714 -1.717328
369.1640625 4.074194 2.544911 -1.529283
369.91796875 4.074783 2.413767 -1.661016
370.671875 4.233082 2.414538 -1.818544
371.4140625 4.034883 2.404447 -1.630436
372.1796875 4.105522000000001 2.530584 -1.574938
372.9375 4.269221 2.532361 -1.73686
373.68359375 4.2682210000000005 2.35358 -1.914641
374.16015625 4.425474 2.551149 -1.874325
375.17578125 3.9609319999999997 2.462122 -1.49881
375.9375 4.083843 2.283843 -1.8
376.6953125 3.9623539999999995 2.016062 -1.946292
377.4375 3.667403 1.944515 -1.722888
378.19140625 4.0324539999999995 2.364677 -1.667777
378.9453125 3.962374 2.293616 -1.668758
379.69140625 3.929645 2.109489 -1.820156
380.44921875 3.883111 2.463682 -1.419429
381.1875 4.026718 2.478284 -1.548434
381.9296875 3.974965 2.094056 -1.880909
382.69921875 3.98313 2.33003 -1.6531
383.43359375 3.907151 2.309049 -1.598102
384.17578125 3.971278 2.485224 -1.486054
384.9375 4.181985 2.396714 -1.785271
385.6953125 3.97918 2.247848 -1.731332
386.4140625 4.218164 2.184441 -2.033723
387.15625 4.157203 2.365313 -1.79189
387.89453125 4.047875 2.294824 -1.753051
388.64453125 4.026077 2.266364 -1.759713
389.3828125 4.193872 2.442723 -1.751149
390.12109375 4.022114999999999 2.447673 -1.574442
390.87890625 3.989924 2.363218 -1.626706
391.375 4.331568 2.665 -1.666568
392.35546875 3.9840780000000002 2.479848 -1.50423
393.10546875 4.105492 2.394697 -1.710795
393.8515625 3.8933980000000004 2.483398 -1.41
394.6171875 4.140703 2.548735 -1.591968
395.359375 4.033030999999999 2.318882 -1.714149
396.109375 3.9813520000000002 2.527285 -1.454067
396.890625 4.031193 2.362693 -1.6685
397.6484375 4.164694 2.416296 -1.748398
398.390625 3.975251 2.421286 -1.553965
399.15234375 3.9804389999999996 2.309189 -1.67125
399.90234375 3.93772 2.257753 -1.679967
400.6640625 3.8562459999999996 2.454506 -1.40174
401.4140625 4.02447 2.332171 -1.692299
402.16015625 3.941261 2.3083 -1.632961
402.92578125 4.0044130000000004 2.557624 -1.446789
403.66015625 4.118537 2.455951 -1.662586
404.38671875 4.126104 2.505293 -1.620811
405.12890625 3.843047 2.282348 -1.560699
405.859375 3.8692130000000002 2.455647 -1.413566
406.60546875 4.017843 2.489918 -1.527925
407.34765625 3.8328699999999998 2.349459 -1.483411
408.078125 3.9343190000000003 2.468172 -1.466147
408.83203125 4.139902 2.485839 -1.654063
409.57421875 3.971665 2.444274 -1.527391
410.296875 4.028002 2.305424 -1.722578
411.0546875 4.056505 2.525 -1.531505
411.79296875 4.04932 2.422208 -1.627112
412.54296875 3.912096 2.273868 -1.638228
413.3125 3.954822 2.435044 -1.519778
413.83203125 4.369212 2.537284 -1.831928
414.81640625 3.869897 2.433607 -1.43629
415.5703125 4.132872 2.374179 -1.758693
416.31640625 3.9093599999999995 2.005784 -1.903576
416.84765625 4.038576 2.416445 -1.622131
417.80078125 3.5183240000000002 2.072738 -1.445586
418.55859375 3.80051 2.228151 -1.572359
419.30859375 3.594289 1.928987 -1.665302
420.05078125 3.6950909999999997 2.02981 -1.665281
420.81640625 3.8757010000000003 2.263736 -1.611965
421.57421875 3.924224 1.982382 -1.941842
422.3125 3.919925 2.176404 -1.743521
423.06640625 4.144325 2.187902 -1.956423
423.8046875 3.755322 1.753939 -2.001383
424.30078125 4.164109 2.523348 -1.640761
425.30078125 3.8643710000000002 2.343186 -1.521185
426.04296875 3.7937469999999998 2.193914 -1.599833
426.7890625 4.123307 2.379593 -1.743714
427.27734375 4.3493390000000005 2.594402 -1.754937
428.2421875 3.9417989999999996 2.019262 -1.922537
428.984375 3.4830319999999997 1.508284 -1.974748
429.70703125 3.3145670000000003 1.449673 -1.864894
430.43359375 3.68199 2.039009 -1.642981
431.1875 3.677021 2.202174 -1.474847
431.9140625 3.6563030000000003 2.099111 -1.557192
432.67578125 3.723429 2.092361 -1.631068
433.44921875 3.7550980000000003 2.11405 -1.641048
434.203125 3.9302029999999997 2.324848 -1.605355
434.73046875 4.199026 2.649978 -1.549048
435.70703125 4.072242 2.258472 -1.81377
436.4453125 3.982758 2.044803 -1.937955
437.20703125 4.25758 2.448739 -1.808841
437.94921875 3.931826 2.341826 -1.59
438.67578125 4.189713 2.421028 -1.768685
439.4140625 4.065888 2.494824 -1.571064
440.15234375 4.029544 2.577283 -1.452261
440.87890625 4.198603 2.456047 -1.742556
441.6015625 4.113168 2.398168 -1.715
442.3359375 4.142676 2.428859 -1.713817
443.08203125 4.175715 2.39125 -1.784465
443.796875 4.100313 2.393073 -1.70724
444.53515625 4.093597 2.577458 -1.516139
445.2890625 4.069062 2.514677 -1.554385
446.0234375 4.071688 2.462308 -1.60938
446.74609375 4.089142 2.529142 -1.56
447.484375 4.012441 2.585986 -1.426455
448.203125 4.079869 2.515 -1.564869
448.9375 3.93923 2.434074 -1.505156
449.67578125 3.93157 2.505 -1.42657
450.390625 3.990144 2.342024 -1.64812
451.13671875 3.930624 1.996642 -1.933982
451.87109375 3.6860049999999998 1.764686 -1.921319
452.59375 3.61622 1.867238 -1.748982
453.33203125 3.78925 2.233871 -1.555379
454.0703125 3.9845110000000004 2.415 -1.569511
454.8203125 4.029426 2.49 -1.539426
455.5625 4.053462 2.350142 -1.70332
456.3046875 4.040065 2.200516 -1.839549
457.0625 3.92727 2.390211 -1.537059
457.80859375 4.127759 2.578445 -1.549314
458.31640625 4.432924 2.84 -1.592924
459.27734375 3.9826680000000003 2.461418 -1.52125
460.0 4.15343 2.4 -1.75343
460.72265625 3.870408 2.208512 -1.661896
461.46875 4.052506 2.479241 -1.573265
462.17578125 4.125018 2.318448 -1.80657
462.890625 4.073563 2.470139 -1.603424
463.6328125 4.02718 2.433228 -1.593952
464.359375 4.08623 2.366675 -1.719555
465.0703125 3.923895 2.476338 -1.447557
465.8046875 4.015763 2.473714 -1.542049
466.53125 4.131489 2.385604 -1.745885
467.03125 4.33892 2.677656 -1.661264
468.0 3.9476050000000003 2.435 -1.512605
468.734375 4.04554 2.322256 -1.723284
469.48828125 4.172633 2.555517 -1.617116
470.21484375 4.204271 2.461084 -1.743187
470.9296875 4.098134 2.166191 -1.931943
471.5 4.454968 2.725 -1.729968
472.38671875 3.826963 2.433106 -1.393857
473.109375 4.097041 2.294842 -1.802199
473.85546875 4.024805 2.518105 -1.5067
474.55859375 3.927111 2.122808 -1.804303
475.28125 4.057729 2.317837 -1.739892
476.01953125 4.347624 2.549791 -1.797833
476.73828125 4.199819 2.23771 -1.962109
477.453125 4.193567 2.393043 -1.800524
478.18359375 4.24062 2.498767 -1.741853
478.9140625 4.176813 2.334813 -1.842
479.65234375 4.2284880000000005 2.467311 -1.761177
480.390625 4.3280840000000005 2.555508 -1.772576
481.125 4.282558 2.55 -1.732558
481.64453125 4.353772 2.735 -1.618772
482.62109375 4.137708 2.593231 -1.544477
483.34765625 4.191941 2.469992 -1.721949
484.08203125 4.2683159999999996 2.39355 -1.874766
484.80078125 4.176292999999999 2.618305 -1.557988
485.55078125 4.069717 2.381544 -1.688173
486.28125 3.906568 2.319095 -1.587473
487.00390625 4.2059370000000005 2.506047 -1.69989
487.75 3.981767 2.27 -1.711767
488.484375 4.4348600000000005 2.261657 -2.173203
489.20703125 4.16257 2.25757 -1.905
489.94921875 4.211098 2.507898 -1.7032
490.43359375 4.562701 2.689872 -1.872829
491.41015625 4.093828 2.208519 -1.885309
492.1640625 4.189288 2.472722 -1.716566
492.89453125 4.144985 2.330299 -1.814686
493.64453125 4.043457 2.444878 -1.598579
494.3828125 4.065946 2.441455 -1.624491
495.12109375 3.749885 1.820222 -1.929663
495.859375 2.7210289999999997 0.603871 -2.117158
496.40234375 3.2326829999999998 1.649119 -1.583564
497.3203125 3.017325 1.400114 -1.617211
498.078125 3.39192 1.770201 -1.621719
498.796875 3.6928710000000002 1.838077 -1.854794
499.5234375 3.7765589999999998 2.203513 -1.573046
500.2734375 3.824132 2.269292 -1.55484
500.9921875 3.742998 2.095811 -1.647187
501.73046875 3.89109 2.244908 -1.646182
502.46484375 3.894017 2.351574 -1.542443
503.1875 4.0620519999999996 2.253396 -1.808656
503.70703125 4.372376 2.607469 -1.764907
504.68359375 3.9380680000000003 2.499953 -1.438115
505.42578125 4.228688 2.371199 -1.857489
506.1796875 4.060124 2.28464 -1.775484
506.93359375 3.986948 2.333274 -1.653674
507.66796875 4.1092189999999995 2.399942 -1.709277
508.4140625 4.293288 2.46115 -1.832138
509.17578125 4.0760629999999995 2.448842 -1.627221
509.6796875 4.409757 2.641248 -1.768509
510.69921875 4.006392 2.454007 -1.552385
511.45703125 4.255435 2.456972 -1.798463
512.24609375 4.28379 2.544084 -1.739706
512.75390625 4.406868 2.642521 -1.764347
513.75390625 4.152687 2.473263 -1.679424
514.5078125 4.155475 2.52691 -1.628565
515.2578125 4.0749450000000005 2.362617 -1.712328
516.0234375 4.233266 2.352029 -1.881237
516.78125 4.030183 2.392154 -1.638029
517.53515625 4.1937809999999995 2.294218 -1.899563
518.296875 4.053994 2.337161 -1.716833
519.0546875 4.07243 2.475 -1.59743
519.78515625 4.049872000000001 2.306626 -1.743246
520.5234375 3.8875839999999995 2.415459 -1.472125
521.2734375 4.057125 2.31 -1.747125
522.03515625 4.013013 2.235634 -1.777379
522.76171875 3.973254 2.357306 -1.615948
523.4921875 4.070442 2.196848 -1.873594
524.25390625 4.147909 2.448256 -1.699653
524.9921875 4.096632 2.401518 -1.695114
525.7265625 3.9822569999999997 2.202257 -1.78
526.46484375 4.070879 2.427415 -1.643464
527.19921875 4.059719 2.346674 -1.713045
527.95703125 4.149769 2.400127 -1.749642
528.703125 4.0615 2.527586 -1.533914
529.1953125 4.408517 2.654389 -1.754128
530.1953125 4.073582 2.61373 -1.459852
530.9453125 4.114529 2.354984 -1.759545
531.6640625 4.054446 2.449097 -1.605349
532.3984375 3.967265 2.501406 -1.465859
533.12109375 4.170145 2.544707 -1.625438
533.875 4.079191 2.595 -1.484191
534.6015625 4.197119 2.527119 -1.67
535.328125 4.11467 2.476079 -1.638591
536.0859375 3.992343 2.564489 -1.427854
536.8203125 4.139685 2.597092 -1.542593
537.5390625 4.128522 2.413879 -1.714643
538.2890625 4.280996 2.554359 -1.726637
539.02734375 4.028513 2.49794 -1.530573
539.75390625 4.18837 2.402218 -1.786152
540.515625 4.233013 2.713501 -1.519512
541.25390625 4.141189 2.623879 -1.51731
541.99609375 4.380867 2.581066 -1.799801
542.74609375 4.186577 2.481669 -1.704908
543.48828125 3.957121 2.603968 -1.353153
544.0078125 4.437895 2.752895 -1.685
544.953125 4.121835 2.463539 -1.658296
545.70703125 4.171258 2.562027 -1.609231
546.44140625 4.31715 2.539148 -1.778002
547.17578125 4.100092 2.630357 -1.469735
547.90625 4.157401 2.670456 -1.486945
548.6484375 4.3495 2.545572 -1.803928
549.390625 4.085864 2.6025 -1.483364
550.12109375 4.123518 2.62308 -1.500438
550.85546875 4.107729 2.564983 -1.542746
551.58203125 4.202852 2.560127 -1.642725
552.33984375 4.212284 2.6282 -1.584084
553.08203125 4.316843 2.567367 -1.749476
553.8203125 3.8823689999999997 2.396162 -1.486207
554.3203125 4.369327 2.732327 -1.637
555.31640625 4.030706 2.329918 -1.700788
556.046875 4.095427 2.489827 -1.6056
556.7890625 4.17081 2.372395 -1.798415
557.5234375 3.90951 2.362246 -1.547264
558.26171875 3.7963439999999995 2.303895 -1.492449
558.98828125 4.091629 2.183635 -1.907994
559.71875 3.961493 2.379884 -1.581609
560.46875 3.919962 2.32575 -1.594212
561.203125 3.869289 2.110691 -1.758598
561.94140625 3.959887 2.432558 -1.527329
562.69921875 3.962836 2.357836 -1.605
563.4375 3.958938 2.151967 -1.806971
564.1953125 3.939813 2.318511 -1.621302
564.95703125 4.048895 2.288521 -1.760374
565.7109375 4.142748 2.339296 -1.803452
566.2109375 4.385745 2.635 -1.750745
567.2421875 4.197715 2.489191 -1.708524
568.00390625 4.310032 2.487518 -1.822514
568.7734375 4.1181529999999995 2.556659 -1.561494
569.53125 4.083605 2.437243 -1.646362
570.2890625 4.418572 2.587774 -1.830798
570.7890625 4.529788 2.799788 -1.73
571.81640625 4.280115 2.590877 -1.689238
572.60546875 4.1644760000000005 2.574935 -1.589541
573.1875 4.640966000000001 2.813 -1.827966
574.1328125 4.073105 2.543942 -1.529163
574.90625 4.149609 2.537242 -1.612367
575.66015625 4.098526 2.578617 -1.519909
576.42578125 4.298754 2.487036 -1.811718
577.19921875 4.073331 2.499351 -1.57398
577.9609375 4.027681 2.574875 -1.452806
578.75 4.313029 2.53 -1.783029
579.23828125 4.5072339999999995 2.624843 -1.882391
580.2734375 3.998 2.493132 -1.504868
581.0546875 4.205611 2.366045 -1.839566
581.82421875 4.316618 2.450618 -1.866
582.31640625 4.404566 2.654789 -1.749777
583.34765625 4.134881 2.352745 -1.782136
584.10546875 3.9478239999999998 2.484143 -1.463681
584.87890625 4.059246 2.414559 -1.644687
585.3984375 4.432531 2.727607 -1.704924
586.375 4.066981 2.53 -1.536981
587.12890625 3.7674510000000003 1.937508 -1.829943
587.87109375 3.988675 2.239113 -1.749562
588.640625 3.8394120000000003 2.123021 -1.716391
589.37890625 3.3454360000000003 1.845456 -1.49998
590.11328125 3.216966 2.497329 -0.719637
590.87890625 3.950118 2.004016 -1.946102
591.60546875 3.546246 1.46493 -2.081316
592.32421875 3.72463 1.245413 -2.479217
592.83203125 4.524841 2.358673 -2.166168
593.79296875 3.425165 1.280165 -2.145
594.52734375 3.3419239999999997 1.59635 -1.745574
595.26171875 3.66211 2.088752 -1.573358
595.984375 3.4480880000000003 1.630191 -1.817897
596.73046875 3.61489 1.98489 -1.63
597.46484375 3.7457900000000004 2.249061 -1.496729
598.1796875 3.4484399999999997 1.756662 -1.691778
598.6875 4.0850480000000005 2.748466 -1.336582
599.64453125 3.767409 2.303695 -1.463714
600.390625 3.548551 1.74888 -1.799671
601.1328125 3.720487 2.159852 -1.560635
601.8671875 3.8061100000000003 2.292561 -1.513549
602.62109375 3.731029 1.955384 -1.775645
603.3671875 3.7088780000000003 2.036245 -1.672633
604.109375 3.8336629999999996 2.185628 -1.648035
604.60546875 4.076670999999999 2.54498 -1.531691
605.64453125 3.8894469999999997 2.054674 -1.834773
606.4296875 3.8910590000000003 2.124762 -1.766297
607.01953125 3.079511 1.57483 -1.504681
607.390625 4.256779 2.535785 -1.720994
608.4765625 3.907543 2.177543 -1.73
609.28125 3.858257 2.206141 -1.652116
610.06640625 3.889983 2.398334 -1.491649
610.5703125 4.243123 2.654617 -1.588506
611.6015625 4.070534 2.365534 -1.705
612.40625 3.928992 2.349663 -1.579329
613.19921875 4.035905 2.533964 -1.501941
613.6953125 4.273946 2.635 -1.638946
614.765625 3.8924329999999996 2.532574 -1.359859
615.5390625 3.872682 2.386156 -1.486526
616.29296875 3.93797 2.361959 -1.576011
616.78515625 4.09748 2.495382 -1.602098
617.81640625 3.855691 2.397523 -1.458168
618.578125 3.951473 2.249742 -1.701731
619.34375 3.941368 2.185182 -1.756186
620.1015625 4.012667 2.107667 -1.905
620.89453125 3.931107 2.134702 -1.796405
621.671875 3.89306 2.287756 -1.605304
622.44921875 3.9967369999999995 2.47109 -1.525647
623.25 3.914781 2.495 -1.419781
624.0390625 3.8332379999999997 2.354304 -1.478934
624.85546875 4.074075000000001 2.549824 -1.524251
625.64453125 4.030495999999999 2.302587 -1.727909
626.4375 3.986104 2.367097 -1.619007
627.25 3.983632 2.455 -1.528632
628.02734375 3.811833 1.959944 -1.851889
628.796875 3.744319 2.209917 -1.534402
629.57421875 3.8577450000000004 2.187676 -1.670069
630.3203125 3.2865599999999997 1.269051 -2.017509
631.09375 3.771068 1.916157 -1.854911
631.8359375 3.827082 1.969179 -1.857903
632.56640625 3.3186280000000004 1.464487 -1.854141
633.3359375 3.485962 1.98913 -1.496832
634.0859375 3.6493390000000003 1.704754 -1.944585
634.81640625 3.1650720000000003 1.378379 -1.786693
635.56640625 3.4727360000000003 1.889609 -1.583127
636.3203125 3.52242 1.687347 -1.835073
636.8515625 4.014463 2.30116 -1.713303
637.83984375 3.3951469999999997 1.963172 -1.431975
638.5859375 3.587306 1.478922 -2.108384
639.35546875 3.662001 1.864832 -1.797169
640.10546875 3.846164 2.0453 -1.800864
640.8359375 3.8583439999999998 1.743879 -2.114465
641.58984375 2.862394 0.861714 -2.00068
642.32421875 3.245151 1.569121 -1.67603
643.09765625 3.574191 1.824205 -1.749986
643.86328125 3.792733 2.058804 -1.733929
644.61328125 3.7645530000000003 1.855334 -1.909219
645.4140625 3.8269080000000004 2.043496 -1.783412
645.90234375 4.246791 2.629263 -1.617528
646.94921875 3.864122 2.301022 -1.5631
647.73046875 3.863624 2.053624 -1.81
648.515625 4.018311 2.329954 -1.688357
649.02734375 4.254525 2.659525 -1.595
650.07421875 3.897439 2.161199 -1.73624
650.85546875 4.164314 2.509957 -1.654357
651.6484375 3.86589 2.370891 -1.494999
652.42578125 4.055455 2.491815 -1.56364
653.1875 4.005781 2.358561 -1.64722
653.96875 4.039929 2.435585 -1.604344
654.74609375 4.018000000000001 2.373432 -1.644568
655.55859375 4.044282 2.308729 -1.735553
656.33203125 3.984719 2.235651 -1.749068
657.125 3.898177 2.245 -1.653177
657.9375 4.22247 2.395287 -1.827183
658.7265625 4.055622 2.310622 -1.745
659.50390625 3.96293 2.302035 -1.660895
660.28125 3.9230780000000003 2.368094 -1.554984
661.046875 4.126951 2.243723 -1.883228
661.8359375 4.144367 2.230597 -1.91377
662.609375 4.078243 2.506935 -1.571308
663.375 4.114772 2.305 -1.809772
664.14453125 3.859326 2.184741 -1.674585
664.64453125 4.203668 2.7 -1.503668
665.6640625 3.7725020000000002 2.279701 -1.492801
666.41796875 3.757236 2.154675 -1.602561
667.1875 3.849418 2.380688 -1.46873
667.94921875 3.945105 1.978795 -1.96631
668.69921875 3.767356 2.162058 -1.605298
669.484375 3.7206200000000003 2.199697 -1.520923
670.23828125 3.794652 1.89298 -1.901672
670.99609375 3.646161 2.108212 -1.537949
671.76953125 3.839531 2.249728 -1.589803
672.53515625 3.547828 1.813483 -1.734345
673.30859375 3.7498950000000004 2.258948 -1.490947
674.0859375 3.817463 2.064878 -1.752585
674.5859375 4.158782 2.529632 -1.62915
675.62109375 3.839931 2.215107 -1.624824
676.38671875 3.515776 1.744432 -1.771344
677.13671875 3.6541930000000002 2.261917 -1.392276
677.8984375 3.660286 2.235877 -1.424409
678.640625 3.9381259999999996 2.175991 -1.762135
679.140625 4.501435 2.632681 -1.868754
680.140625 3.887638 2.344617 -1.543021
680.8828125 3.947364 2.336096 -1.611268
681.64453125 3.938974 2.189745 -1.749229
682.390625 3.920368 2.444354 -1.476014
683.1171875 4.121184 2.308838 -1.812346
683.8671875 4.028829 2.319929 -1.7089
684.6171875 4.126154 2.548293 -1.577861
685.37890625 4.11706 2.388302 -1.728758
686.1484375 4.181922999999999 2.574994 -1.606929
686.91015625 4.003138 2.606546 -1.396592
687.67578125 3.959961 2.181788 -1.778173
688.453125 4.016915 2.559431 -1.457484
689.20703125 4.201835 2.472052 -1.729783
689.96484375 3.9398020000000002 2.276961 -1.662841
690.73046875 4.0119609999999994 2.569858 -1.442103
691.2265625 4.36 2.83 -1.53
692.24609375 4.18599 2.496264 -1.689726
693.0078125 3.9239740000000003 2.449414 -1.47456
693.79296875 4.084766999999999 2.486109 -1.598658
694.54296875 4.048807 2.366959 -1.681848
695.2890625 4.10716 2.649723 -1.457437
696.05859375 4.235789 2.702965 -1.532824
696.81640625 4.060274 2.408456 -1.651818
697.60546875 3.9210079999999996 2.559798 -1.36121
698.3671875 4.099442 2.589738 -1.509704
698.859375 4.477335 2.774077 -1.703258
699.890625 3.9178559999999996 2.603506 -1.31435
700.65625 4.081774 2.514342 -1.567432
701.390625 4.088744 2.510477 -1.578267
702.14453125 3.985333 2.659853 -1.32548
702.890625 4.163286 2.540207 -1.623079
703.6484375 3.962453 2.316606 -1.645847
704.40625 3.914357 2.508201 -1.406156
705.16015625 4.132128 2.545559 -1.586569
705.94921875 3.924576 2.3637 -1.560876
706.72265625 3.9461779999999997 2.481611 -1.464567
707.484375 3.917333 2.301123 -1.61621
708.26953125 3.9675219999999998 2.379037 -1.588485
709.05078125 3.9439319999999998 2.500583 -1.443349
709.859375 4.114281 2.514341 -1.59994
710.63671875 3.933962 2.476457 -1.457505
711.41796875 4.089672 2.671299 -1.418373
712.2265625 4.013923999999999 2.508924 -1.505
713.01171875 4.179508 2.517608 -1.6619
713.79296875 3.842365 2.455827 -1.386538
714.56640625 4.068314 2.589001 -1.479313
715.34765625 4.20506 2.453055 -1.752005
716.13671875 4.1608659999999995 2.484202 -1.676664
716.9140625 4.090966 2.469317 -1.621649
717.69921875 4.2136700000000005 2.472192 -1.741478
718.48046875 4.244441 2.389948 -1.854493
719.26171875 3.9703359999999996 2.509753 -1.460583
720.03515625 4.2570239999999995 2.475999 -1.781025
720.80078125 4.179235 2.406559 -1.772676
721.28515625 4.422286 2.647477 -1.774809
722.359375 3.946589 2.395021 -1.551568
723.125 4.009067 2.275 -1.734067
723.89453125 3.995524 2.524848 -1.470676
724.67578125 4.1800250000000005 2.607508 -1.572517
725.4375 4.020353 2.293345 -1.727008
725.92578125 4.392772 2.711246 -1.681526
726.9609375 3.949299 2.499543 -1.449756
727.71875 4.025224 2.320179 -1.705045
728.50390625 3.805987 2.458377 -1.34761
729.265625 4.112872 2.614342 -1.49853
730.03515625 4.118695 2.366968 -1.751727
730.53125 4.342874999999999 2.648738 -1.694137
731.5703125 3.8379199999999996 2.474156 -1.363764
732.3515625 3.996835 2.291835 -1.705
733.11328125 4.03412 2.44373 -1.59039
733.625 4.348733 2.69 -1.658733
734.66796875 4.006266 2.386356 -1.61991
735.4375 4.045502 2.522823 -1.522679
736.2265625 4.054878 2.549878 -1.505
736.99609375 4.297278 2.507376 -1.789902
737.7578125 4.221502 2.599195 -1.622307
738.546875 3.9758809999999998 2.611369 -1.364512
739.33203125 4.017016 2.442072 -1.574944
740.12890625 3.893116 2.40991 -1.483206
740.9375 4.049500999999999 2.553603 -1.495898
741.74609375 3.9727239999999995 2.508205 -1.464519
742.55859375 4.048312 2.402426 -1.645886
743.3671875 4.014896 2.482009 -1.532887
744.1796875 3.932389 2.533411 -1.398978
744.96875 4.086561 2.438931 -1.64763
745.7734375 4.065887 2.481835 -1.584052
746.58984375 3.993156 2.555519 -1.437637
747.36328125 4.13817 2.407615 -1.730555
748.15234375 4.225121 2.557182 -1.667939
748.953125 4.046176 2.589917 -1.456259
749.72265625 4.28931 2.419954 -1.869356
750.5078125 4.200535 2.36747 -1.833065
751.2890625 4.248222999999999 2.569 -1.679223
752.07421875 3.970376 2.340648 -1.629728
752.859375 4.10685 2.286602 -1.820248
753.640625 4.091172 2.543667 -1.547505
754.4453125 4.153379 2.372216 -1.781163
755.23046875 4.096258000000001 2.383703 -1.712555
756.01953125 4.0464839999999995 2.459878 -1.586606
756.8125 4.042888 2.35316 -1.689728
757.61328125 3.96498 2.207507 -1.757473
758.42578125 4.012429 2.364574 -1.647855
759.0 3.4606969999999997 1.765 -1.695697
759.984375 4.100303 2.245604 -1.854699
760.79296875 4.127377 2.396462 -1.730915
761.57421875 3.908711 2.323711 -1.585
762.33984375 3.947261 2.232731 -1.71453
763.11328125 3.8602119999999998 2.313692 -1.54652
763.88671875 3.857474 2.392216 -1.465258
764.67578125 3.9871630000000002 2.369689 -1.617474
765.4609375 3.971533 2.367763 -1.60377
766.2578125 3.9701720000000003 2.448634 -1.521538
767.0390625 3.9630039999999997 2.349909 -1.613095
767.81640625 3.862695 2.349154 -1.513541
768.6171875 3.954274 2.321325 -1.632949
769.3984375 4.049371 2.331863 -1.717508
770.2109375 3.836802 2.319979 -1.516823
770.9921875 3.988908 2.412267 -1.576641
771.75390625 4.030789 2.191136 -1.839653
772.5703125 3.998413 2.306152 -1.692261
773.35546875 3.926978 2.329787 -1.597191
774.11328125 4.0416 2.253708 -1.787892
774.89453125 3.951932 2.349941 -1.601991
775.671875 4.009837 2.447811 -1.562026
776.46484375 4.025311 2.318268 -1.707043
777.234375 4.107239 2.360931 -1.746308
778.015625 3.963297 2.435095 -1.528202
778.7890625 4.0820799999999995 2.449956 -1.632124
779.56640625 4.005057 2.419475 -1.585582
780.3359375 3.933396 2.494448 -1.438948
781.0859375 4.0149 2.454261 -1.560639
781.8671875 3.720814 2.24737 -1.473444
782.6484375 3.815475 2.35885 -1.456625
783.3984375 3.822564 2.21393 -1.608634
783.87109375 4.107601 2.42 -1.687601
784.9296875 3.875162 2.379569 -1.495593
785.67578125 4.053546 1.706789 -2.346757
786.44140625 3.994897 2.269741 -1.725156
787.19140625 3.953617 2.318653 -1.634964
787.93359375 3.894633 2.138695 -1.755938
788.6953125 3.822428 2.295905 -1.526523
789.45703125 3.9234080000000002 2.2949 -1.628508
790.20703125 3.830689 2.105769 -1.72492
790.96875 3.912834 2.247963 -1.664871
791.73046875 3.9814429999999996 2.24972 -1.731723
792.49609375 3.9064240000000003 2.140356 -1.766068
793.25390625 3.941845 2.381406 -1.560439
794.03125 4.0469170000000005 2.30125 -1.745667
794.8125 3.950305 2.235345 -1.71496
795.57421875 4.04033 2.357056 -1.683274
796.3671875 3.799499 2.323289 -1.47621
797.13671875 4.011165 2.34552 -1.665645
797.625 4.550465 2.715 -1.835465
798.671875 4.024699999999999 2.48031 -1.54439
799.4375 4.012653 2.359134 -1.653519
800.1953125 4.01202 2.379222 -1.632798
800.9765625 4.076807 2.421807 -1.655
801.75 4.1039460000000005 2.37 -1.733946
802.51953125 4.01099 2.324274 -1.686716
803.30859375 4.252627 2.493536 -1.759091
804.0859375 4.147559 2.609671 -1.537888
804.859375 4.226512 2.368011 -1.858501
805.64453125 4.067946 2.524977 -1.542969
806.4375 3.929392 2.405 -1.524392
807.22265625 4.045573 2.308296 -1.737277
807.99609375 4.011093 2.246512 -1.764581
808.80078125 3.995856 2.363713 -1.632143
809.58203125 4.150364 2.411359 -1.739005
810.34765625 4.165544 2.212404 -1.95314
811.140625 3.95134 2.331634 -1.619706
811.91015625 3.951969 2.36 -1.591969
812.69140625 4.168416 2.288318 -1.880098
813.4765625 3.948856 2.343068 -1.605788
814.25390625 4.122079 2.6 -1.522079
815.05859375 4.080509 2.402599 -1.67791
815.84375 4.028866 2.53096 -1.497906
816.62109375 3.8384139999999998 2.41077 -1.427644
817.41015625 4.082207 2.476937 -1.60527
818.203125 3.9383999999999997 2.290926 -1.647474
819.00390625 3.9155189999999997 2.323366 -1.592153
819.78125 3.897397 2.303076 -1.594321
820.55859375 3.981013 2.209168 -1.771845
821.35546875 3.853872 2.304508 -1.549364
822.140625 4.152006 2.418057 -1.733949
822.90234375 4.014794 2.263772 -1.751022
823.66796875 3.9367579999999998 2.324254 -1.612504
824.4375 4.059091 2.366529 -1.692562
825.23046875 3.999109 2.284976 -1.714133
825.9921875 4.031408 2.300968 -1.73044
826.76953125 3.9239949999999997 2.364995 -1.559
827.5546875 3.919625 2.196381 -1.723244
828.3359375 3.9469279999999998 2.382809 -1.564119
829.11328125 4.130914 2.572246 -1.558668
829.890625 4.137193 2.29279 -1.844403
830.390625 4.09177 2.422157 -1.669613
831.3359375 3.955884 2.493849 -1.462035
832.13671875 4.1517 2.475123 -1.676577
832.6484375 4.343476 2.679428 -1.664048
833.703125 3.962839 2.546942 -1.415897
834.47265625 4.085240000000001 2.357448 -1.727792
835.25 4.068428 2.445 -1.623428
836.01171875 3.970441 2.528013 -1.442428
836.78515625 4.102464 2.510701 -1.591763
837.5703125 3.980989 2.425989 -1.555
838.33984375 4.018648 2.498383 -1.520265
839.14453125 3.974187 2.426606 -1.547581
839.66796875 4.432824 2.661737 -1.771087
840.6875 3.970841 2.466009 -1.504832
841.484375 4.12064 2.443871 -1.676769
842.2578125 4.044466 2.297714 -1.746752
843.05078125 3.912351 2.368798 -1.543553
843.8203125 3.959554 2.489554 -1.47
844.59765625 3.958467 2.288882 -1.669585
845.38671875 4.0603169999999995 2.372673 -1.687644
846.171875 4.143769 2.40834 -1.735429
846.9453125 4.003112 2.295051 -1.708061
847.7109375 4.012852 2.364337 -1.648515
848.49609375 3.9352229999999997 2.425639 -1.509584
849.28515625 4.055243 2.470868 -1.584375
850.0625 3.971359 2.343261 -1.628098
850.85546875 4.053947 2.433192 -1.620755
851.65625 4.095699 2.364336 -1.731363
852.4296875 4.134083 2.444757 -1.689326
853.23046875 4.1819049999999995 2.404841 -1.777064
854.02734375 3.9053829999999996 2.359294 -1.546089
854.81640625 4.028547 2.343528 -1.685019
855.60546875 3.990513 2.344853 -1.64566
856.390625 4.08302 2.34927 -1.73375
857.18359375 3.777951 2.078726 -1.699225
857.97265625 3.8624229999999997 2.198158 -1.664265
858.734375 3.8984120000000004 2.335389 -1.563023
859.49609375 3.952991 2.033249 -1.919742
860.265625 3.993523 2.20956 -1.783963
861.0546875 4.072134 2.211109 -1.861025
861.81640625 3.533989 1.517164 -2.016825
862.57421875 3.4988609999999998 1.81738 -1.681481
863.3671875 3.694758 2.048334 -1.646424
864.125 3.7378400000000003 2.0 -1.73784
864.87890625 3.742012 2.138264 -1.603748
865.6484375 3.8865570000000003 2.318001 -1.568556
866.40625 3.845936 2.120604 -1.725332
867.1796875 3.8931750000000003 2.215455 -1.67772
867.93359375 3.996531 2.249135 -1.747396
868.69140625 3.546964 1.788561 -1.758403
869.45703125 3.590049 1.954793 -1.635256
870.21484375 3.7085239999999997 2.16668 -1.541844
870.96484375 3.526718 1.922419 -1.604299
871.703125 3.7108790000000003 2.073032 -1.637847
872.453125 3.7308019999999997 1.989546 -1.741256
873.22265625 3.930278 2.163296 -1.766982
873.96875 3.9582230000000003 2.126557 -1.831666
874.70703125 4.009298 2.225056 -1.784242
875.484375 3.931458 2.338753 -1.592705
876.24609375 3.879025 2.121381 -1.757644
876.9921875 3.887696 2.17924 -1.708456
877.76171875 3.952146 2.293324 -1.658822
878.53515625 3.841592 2.2744 -1.567192
879.31640625 4.070591 2.172284 -1.898307
880.0859375 3.892915 2.379876 -1.513039
880.85546875 3.972155 2.356079 -1.616076
881.63671875 3.984516 2.218502 -1.766014
882.4140625 3.871797 2.269487 -1.60231
883.18359375 3.971038 2.36943 -1.601608
883.94140625 3.947925 2.262925 -1.685
884.71875 4.017192 2.286743 -1.730449
885.51171875 3.853382 2.380354 -1.473028
886.27734375 4.031351 2.365623 -1.665728
887.0546875 4.070449 2.249473 -1.820976
887.84765625 3.85865 2.266124 -1.592526
888.625 3.847385 2.29 -1.557385
889.3984375 4.06005 2.283276 -1.776774
890.1796875 3.857112 2.224257 -1.632855
890.953125 3.8715599999999997 2.411132 -1.460428
891.74609375 4.022451 2.287483 -1.734968
892.51953125 3.896076 2.144908 -1.751168
893.30078125 3.79001 2.241562 -1.548448
894.08984375 3.807736 2.205519 -1.602217
894.85546875 3.895063 1.973312 -1.921751
895.62890625 3.76258 2.126639 -1.635941
896.38671875 3.985126 2.416952 -1.568174
897.16015625 3.967896 2.201871 -1.766025
897.93359375 3.639008 1.943972 -1.695036
898.6875 3.857638 2.342486 -1.515152
899.45703125 3.869993 2.140507 -1.729486
900.21875 3.7876320000000003 2.122879 -1.664753
900.98046875 4.0154700000000005 2.369828 -1.645642
901.75390625 3.765012 2.062402 -1.70261
902.51171875 3.82404 2.283654 -1.540386
903.28515625 3.854924 2.233781 -1.621143
904.0546875 3.535201 1.889208 -1.645993
904.8125 3.631925 2.188827 -1.443098
905.5859375 3.9352169999999997 2.209422 -1.725795
906.35546875 3.8466810000000002 2.373717 -1.472964
907.109375 3.916276 2.31 -1.606276
907.86328125 3.7777060000000002 1.896291 -1.881415
908.625 3.9205430000000003 2.35 -1.570543
909.39453125 3.8903099999999995 2.294802 -1.595508
910.1640625 3.981681 2.344825 -1.636856
910.92578125 3.995415 2.095688 -1.899727
911.71484375 3.968287 2.321952 -1.646335
912.484375 4.035541 2.347506 -1.688035
913.2421875 4.01174 2.21924 -1.7925
914.03125 3.889463 2.298125 -1.591338
914.796875 3.988407 2.321148 -1.667259
915.57421875 4.006503 2.105443 -1.90106
916.3515625 4.009334 2.249334 -1.76
917.109375 3.73211 2.158538 -1.573572
917.9140625 3.820457 2.309012 -1.511445
918.69140625 3.8308429999999998 2.313334 -1.517509
919.45703125 3.858537 2.328858 -1.529679
920.234375 4.085674 2.245463 -1.840211
921.01171875 3.372889 1.431897 -1.940992
921.80078125 2.387276 0.447913 -1.939363
922.5625 2.490744 0.86 -1.630744
923.34375 2.818734 1.193309 -1.625425
924.12890625 3.0917120000000002 1.576374 -1.515338
924.91015625 3.274114 1.659028 -1.615086
925.6953125 3.355858 1.751539 -1.604319
926.453125 3.7345249999999997 1.955509 -1.779016
927.23046875 3.667943 2.02487 -1.643073
928.00390625 3.815137 2.001611 -1.813526
928.7578125 3.747896 2.050434 -1.697462
929.52734375 3.82845 2.239099 -1.589351
930.296875 3.86528 2.219918 -1.645362
931.046875 3.908159 2.327387 -1.580772
931.8046875 4.031007 2.475745 -1.555262
932.5703125 3.801908 2.228215 -1.573693
933.33984375 3.8310489999999997 2.235657 -1.595392
934.109375 3.786004 2.352557 -1.433447
934.875 4.104869 2.46 -1.644869
935.671875 3.908531 2.357411 -1.55112
936.45703125 4.0269710000000005 2.511976 -1.514995
937.21875 4.144956 2.418033 -1.726923
938.02734375 4.07916 2.589091 -1.490069
938.8046875 3.968413 2.449871 -1.518542
939.59765625 3.8717490000000003 2.313285 -1.558464
940.375 3.982385 2.495 -1.487385
941.140625 3.980605 2.495722 -1.484883
941.9375 3.9047520000000002 2.395813 -1.508939
942.71484375 3.9998519999999997 2.455174 -1.544678
943.46875 4.176477 2.478103 -1.698374
944.23046875 4.066189 2.47477 -1.591419
945.0078125 4.030986 2.529411 -1.501575
945.78515625 4.332974 2.645806 -1.687168
946.54296875 4.104157 2.453953 -1.650204
947.3203125 4.001734 2.582387 -1.419347
948.08984375 4.089746 2.517803 -1.571943
948.859375 3.540746 1.739496 -1.80125
949.34375 4.182888 2.67825 -1.504638
950.36328125 3.8084990000000003 2.425984 -1.382515
951.1328125 4.048971 2.406983 -1.641988
951.90625 3.854581 1.895118 -1.959463
952.6484375 3.669057 1.974852 -1.694205
953.39453125 3.687034 1.921121 -1.765913
954.16015625 3.8031610000000002 1.948787 -1.854374
954.90234375 3.218591 1.515445 -1.703146
955.3984375 3.8688000000000002 2.45065 -1.41815
956.3671875 3.52265 2.022294 -1.500356
957.109375 3.250482 1.519496 -1.730986
957.86328125 3.637942 2.017944 -1.619998
958.59765625 3.287496 1.513296 -1.7742
959.33984375 3.277532 1.795774 -1.481758
960.08984375 3.4508140000000003 1.844706 -1.606108
960.84375 3.5413680000000003 2.051457 -1.489911
961.59375 3.617304 1.975361 -1.641943
962.33984375 3.4358589999999998 1.718527 -1.717332
963.08984375 3.444867 1.881139 -1.563728
963.87109375 3.523996 2.001009 -1.522987
964.625 3.6882520000000003 2.12 -1.568252
965.375 3.814784 2.185 -1.629784
966.16015625 3.924222 2.147541 -1.776681
966.91015625 3.658276 1.887816 -1.77046
967.6484375 3.7506559999999998 2.112824 -1.637832
968.41015625 3.8101149999999997 2.22424 -1.585875
969.171875 4.019492 2.224106 -1.795386
969.9453125 3.8045790000000004 2.136601 -1.667978
970.7109375 3.921501 2.199957 -1.721544
971.47265625 3.8915379999999997 2.611763 -1.279775
972.25390625 3.841915 2.888135 -0.95378
973.0234375 4.2075949999999995 2.786164 -1.421431
973.78515625 4.251652 2.620206 -1.631446
974.546875 4.125638 2.584331 -1.541307
975.30859375 3.528936 1.746537 -1.782399
976.07421875 3.3954009999999997 1.412423 -1.982978
976.828125 3.4660019999999996 1.212054 -2.253948
977.5703125 3.75483 1.736343 -2.018487
978.34765625 3.983691 1.978999 -2.004692
979.0859375 3.600418 1.525604 -2.074814
979.57421875 4.2196050000000005 2.715374 -1.504231
980.5625 3.396807 1.543008 -1.853799
981.3046875 3.0755429999999997 1.158931 -1.916612
982.05859375 3.3329649999999997 1.413427 -1.919538
982.79296875 3.177963 1.304727 -1.873236
983.53515625 3.13754 1.354666 -1.782874
984.30078125 3.110772 1.362367 -1.748405
985.0546875 3.222214 1.490071 -1.732143
985.796875 3.2452829999999997 1.354272 -1.891011
986.54296875 2.88092 1.16592 -1.715
987.29296875 3.020432 1.361434 -1.658998
988.046875 3.1795980000000004 1.630832 -1.548766
988.796875 3.2185870000000003 1.498544 -1.720043
989.53125 2.7923400000000003 1.010517 -1.781823
990.30078125 3.417195 1.681875 -1.73532
991.04296875 3.6041879999999997 1.716942 -1.887246
991.76953125 3.5518460000000003 1.277886 -2.27396
992.53125 3.41761 1.189524 -2.228086
993.0234375 4.266753 2.322764 -1.943989
994.0234375 2.956288 1.121288 -1.835
994.78515625 3.002936 1.172943 -1.829993
995.53125 3.171156 1.528971 -1.642185
996.296875 3.481821 1.602308 -1.879513
997.05078125 3.222976 1.485 -1.737976
997.79296875 3.313838 1.659963 -1.653875
998.546875 3.433127 1.542842 -1.890285
999.2890625 3.1742730000000003 1.449669 -1.724604
1000.04296875 3.1939840000000004 1.361423 -1.832561
1000.6484375 4.384984 3.071249 -1.313735
1001.7734375 6.55581 1.43581 -5.12
0.0 4.12 -1.0 -5.12
1003.76953125 3.618556 -0.625383 -4.243939
1004.53125 3.270449 0.055492 -3.214957
1005.2734375 3.481248 1.307349 -2.173899
1006.03125 3.877797 2.246178 -1.631619
1006.7890625 3.7294080000000003 2.439318 -1.29009
1007.53515625 3.6786909999999997 2.692064 -0.986627
1008.30859375 3.7619249999999997 2.829955 -0.93197
1009.07421875 3.795268 2.768751 -1.026517
1009.80859375 3.22853 2.009493 -1.219037
1010.5703125 3.312488 2.168871 -1.143617
1011.32421875 3.319425 2.097621 -1.221804
1012.0859375 3.584675 2.339422 -1.245253
1012.83203125 3.6878159999999998 2.357837 -1.329979
1013.57421875 3.9491949999999996 2.382735 -1.56646
1014.34375 3.789714 2.146344 -1.64337
1015.08203125 3.614207 2.032807 -1.5814
1015.80859375 3.7227370000000004 2.178812 -1.543925
1016.5703125 3.748615 2.051221 -1.697394
1017.296875 3.4888589999999997 1.668548 -1.820311
1018.0546875 3.450748 1.813864 -1.636884
1018.80859375 3.45402 1.723743 -1.730277
1019.5546875 3.665909 1.976545 -1.689364
1020.33203125 3.883899 2.092269 -1.79163
1021.08203125 3.662463 1.832484 -1.829979
1021.828125 3.6074669999999998 1.98983 -1.617637
1022.58984375 3.66033 2.129698 -1.530632
1023.34375 3.906091 2.208951 -1.69714
1024.10546875 3.7208829999999997 2.045883 -1.675
1024.84375 3.5404210000000003 1.739287 -1.801134
1025.58984375 3.610124 1.91494 -1.695184
1026.36328125 3.686916 2.008894 -1.678022
1027.11328125 3.842773 2.194198 -1.648575
1027.83203125 3.619126 1.742013 -1.877113
1028.59375 3.663233 1.927821 -1.735412
1029.33984375 3.8577529999999998 2.089289 -1.768464
1030.11328125 3.863589 2.057149 -1.80644
1030.85546875 3.82647 1.614957 -2.211513
1031.59375 3.470256 1.124595 -2.345661
1032.37109375 3.7340299999999997 2.551386 -1.182644
1033.1328125 3.901414 3.236771 -0.664643
1033.8671875 3.62295 3.07 -0.55295
1034.6328125 3.895974 3.13191 -0.764064
1035.3828125 3.764551 2.442207 -1.322344
1036.14453125 3.7424290000000004 2.349896 -1.392533
1036.8984375 3.680688 2.093982 -1.586706
1037.640625 3.5305750000000002 1.529198 -2.001377
1038.41796875 3.6742999999999997 1.619108 -2.055192
1039.1640625 3.768385 1.674163 -2.094222
1039.640625 4.305625 2.280625 -2.025
1040.66015625 3.855028 1.865776 -1.989252
1041.40625 4.039936 1.809312 -2.230624
1042.16015625 3.8179499999999997 1.521476 -2.296474
1042.90625 3.171126 1.029814 -2.141312
1043.640625 3.455083 1.550971 -1.904112
1044.41015625 3.482557 1.630796 -1.851761
1045.16796875 3.482442 1.699844 -1.782598
1045.90234375 3.651414 1.64 -2.011414
1046.66015625 3.579381 1.567345 -2.012036
1047.421875 3.6008620000000002 1.741068 -1.859794
1048.1796875 3.6671050000000003 1.54334 -2.123765
1048.68359375 4.162891999999999 2.425 -1.737892
1049.68359375 3.549187 1.949102 -1.600085
1050.45703125 3.797675 1.97127 -1.826405
1051.19140625 3.865473 1.932997 -1.932476
1051.921875 3.180001 1.415186 -1.764815
1052.68359375 3.438475 1.762019 -1.676456
1053.4140625 3.567999 1.904642 -1.663357
1054.1640625 3.575638 1.77 -1.805638
1054.92578125 3.672155 2.013892 -1.658263
1055.6640625 3.861463 2.129623 -1.73184
1056.41796875 3.499085 1.699993 -1.799092
1057.17578125 3.8901070000000004 2.176429 -1.713678
1057.92578125 4.014722 2.203476 -1.811246
1058.67578125 3.839213 2.241285 -1.597928
1059.17578125 4.246566 2.645 -1.601566
1060.171875 3.9438899999999997 2.409033 -1.534857
1060.93359375 4.117684 2.20464 -1.913044
1061.671875 3.856681 2.001442 -1.855239
1062.41796875 3.947165 2.318701 -1.628464
1063.16015625 3.7343270000000004 1.892767 -1.84156
1063.90234375 3.6445879999999997 1.965666 -1.678922
1064.65234375 3.8142679999999998 2.253694 -1.560574
1065.37109375 3.881716 2.041925 -1.839791
1066.12109375 3.694031 2.02 -1.674031
1066.88671875 3.816072 2.204222 -1.61185
1067.625 3.830812 2.14 -1.690812
1068.375 3.741019 1.875 -1.866019
1069.15625 3.629936 2.096261 -1.533675
1069.65234375 4.293456 2.563921 -1.729535
1070.66796875 3.4525230000000002 1.952007 -1.500516
1071.4296875 3.6931589999999996 2.011236 -1.681923
1072.1796875 3.8338650000000003 2.055774 -1.778091
1072.94921875 3.75214 2.10714 -1.645
1073.69140625 3.4240079999999997 1.412599 -2.011409
1074.4375 3.4130320000000003 1.530769 -1.882263
1075.19921875 3.6850039999999997 1.668694 -2.01631
1075.9375 3.109751 1.362397 -1.747354
1076.671875 3.242884 1.963469 -1.279415
1077.40625 3.322095 2.040428 -1.281667
1078.15234375 3.500679 2.130185 -1.370494
1078.921875 3.6282639999999997 2.079512 -1.548752
1079.66015625 3.6109210000000003 2.031315 -1.579606
1080.1484375 4.141377 2.509404 -1.631973
1081.17578125 3.612259 2.041916 -1.570343
1081.9375 3.605602 1.906544 -1.699058
1082.67578125 3.801325 2.022772 -1.778553
1083.42578125 3.820268 1.988607 -1.831661
1084.1640625 3.956549 2.0596 -1.896949
1084.91015625 3.7707129999999998 1.803992 -1.966721
1085.65625 3.801252 1.99302 -1.808232
1086.390625 3.884981 2.166211 -1.71877
1087.15234375 3.8807850000000004 2.192946 -1.687839
1087.8984375 3.536872 1.741078 -1.795794
1088.640625 3.7126419999999998 1.939081 -1.773561
1089.390625 3.669622 2.057219 -1.612403
1090.140625 3.512439 1.85505 -1.657389
1090.6484375 4.1534960000000005 2.58 -1.573496
1091.65234375 3.918383 2.264827 -1.653556
1092.40234375 3.856095 2.172023 -1.684072
1093.171875 3.7439780000000003 2.052543 -1.691435
1093.9296875 3.841189 2.298953 -1.542236
1094.6640625 3.927383 2.400589 -1.526794
1095.41015625 3.775272 2.168717 -1.606555
1096.1640625 3.827572 2.332618 -1.494954
1096.9296875 3.8441470000000004 2.317604 -1.526543
1097.67578125 3.8143399999999996 2.227727 -1.586613
1098.4296875 3.840818 2.289034 -1.551784
1099.203125 3.862566 2.331099 -1.531467
1099.9609375 4.020313 2.354698 -1.665615
1100.70703125 3.687397 2.002441 -1.684956
1101.4609375 3.8635919999999997 2.319822 -1.54377
1102.2109375 3.90203 2.299261 -1.602769
1102.98828125 4.055173 2.322108 -1.733065
1103.72265625 3.961305 2.237141 -1.724164
1104.47265625 3.863297 2.139285 -1.724012
1105.24609375 3.6720930000000003 2.236364 -1.435729
1106.00390625 3.9748710000000003 2.394804 -1.580067
1106.7578125 3.949984 2.212127 -1.737857
1107.2421875 4.252249 2.446452 -1.805797
1108.2421875 3.554863 1.344136 -2.210727
1109.015625 3.3512589999999998 1.487677 -1.863582
1109.76171875 3.449896 1.682102 -1.767794
1110.50390625 3.465428 1.877376 -1.588052
1111.24609375 3.577315 1.784149 -1.793166
1111.98828125 2.6630570000000002 0.915967 -1.74709
1112.7265625 3.025076 1.518381 -1.506695
1113.453125 3.079706 1.364833 -1.714873
1114.19140625 3.01051 1.219597 -1.790913
1114.94140625 3.3488689999999997 1.824085 -1.524784
1115.66796875 3.542168 2.115114 -1.427054
1116.40625 3.723197 2.17157 -1.551627
1117.15625 3.636478 1.869222 -1.767256
1117.90625 3.494958 1.816258 -1.6787
1118.640625 3.56888 1.978962 -1.589918
1119.37890625 3.691407 1.856398 -1.835009
1120.1171875 3.293519 1.619629 -1.67389
1120.88671875 3.490478 1.887275 -1.603203
1121.63671875 3.677393 1.913973 -1.76342
1122.390625 3.585969 1.783366 -1.802603
1123.16015625 3.446347 1.747272 -1.699075
1123.921875 3.7324660000000005 2.006149 -1.726317
1124.6796875 3.791491 2.110094 -1.681397
1125.15625 4.072037 2.492135 -1.579902
1126.1953125 3.703843 2.077119 -1.626724
1126.97265625 3.8070009999999996 1.843519 -1.963482
1127.71484375 3.720028 1.641019 -2.079009
1128.4765625 3.5439920000000003 1.763992 -1.78
1129.25 3.719843 1.84 -1.879843
1130.01953125 3.893742 2.114833 -1.778909
1130.7734375 3.7434089999999998 2.004289 -1.73912
1131.26171875 4.244121 2.475 -1.769121
1132.265625 3.555729 1.696505 -1.859224
1133.04296875 3.7418760000000004 1.949013 -1.792863
1133.796875 3.695358 1.991521 -1.703837
1134.53125 3.756739 1.978961 -1.777778
1135.296875 3.8962570000000003 2.098243 -1.798014
1136.05078125 3.858777 2.053656 -1.805121
1136.77734375 3.505936 1.528546 -1.97739
1137.51171875 3.518185 1.740545 -1.77764
1138.26953125 3.632886 1.86956 -1.763326
1138.76171875 4.21675 2.611726 -1.605024
1139.76171875 3.8067789999999997 2.133942 -1.672837
1140.5078125 3.727528 1.829891 -1.897637
1141.2734375 3.424134 1.684755 -1.739379
1142.0234375 3.604335 1.974755 -1.62958
1142.765625 3.645502 2.001319 -1.644183
1143.52734375 3.627115 1.848017 -1.779098
1144.2734375 3.630885 2.062996 -1.567889
1144.7734375 4.155309 2.513971 -1.641338
1145.78515625 3.496861 1.872782 -1.624079
1146.52734375 3.728615 1.835529 -1.893086
1147.296875 3.7736210000000003 1.998315 -1.775306
1148.046875 3.766314 1.924466 -1.841848
1148.77734375 3.996239 2.005568 -1.990671
1149.5234375 3.9084380000000003 2.037189 -1.871249
1150.26171875 3.372918 1.537318 -1.8356
1151.01171875 3.469918 1.810187 -1.659731
1151.76171875 3.6917999999999997 1.892415 -1.799385
1152.5078125 3.657583 1.932233 -1.72535
1153.27734375 3.5464789999999997 1.734264 -1.812215
1154.02734375 3.440606 1.636208 -1.804398
1154.76953125 3.511045 1.844885 -1.66616
1155.5390625 3.6738210000000002 1.852682 -1.821139
1156.28515625 3.7769329999999997 1.977445 -1.799488
1157.0546875 3.619852 1.952079 -1.667773
1157.82421875 3.734091 2.011608 -1.722483
1158.5703125 3.802124 2.271579 -1.530545
1159.34765625 3.8844779999999997 2.169602 -1.714876
1160.1015625 3.822202 2.102202 -1.72
1160.83984375 3.972232 2.216938 -1.755294
1161.59375 4.1256639999999996 2.222266 -1.903398
1162.34375 4.104838 2.101284 -2.003554
1163.1015625 3.8820309999999996 2.15466 -1.727371
1163.85546875 3.937774 2.249809 -1.687965
1164.60546875 4.13112 2.374678 -1.756442
1165.37109375 3.884595 2.014966 -1.869629
1165.8671875 4.274028 2.684028 -1.59
1166.85546875 3.8199949999999996 2.309995 -1.51
1167.6171875 4.053473 2.400514 -1.652959
1168.35546875 4.1499950000000005 2.234995 -1.915
1169.1171875 4.042434 2.382303 -1.660131
1169.875 3.9930259999999995 2.385 -1.608026
1170.6015625 3.697986 1.902986 -1.795
1171.359375 3.732879 1.944833 -1.788046
1172.10546875 3.8699630000000003 2.059963 -1.81
1172.82421875 3.7216329999999997 1.900139 -1.821494
1173.5703125 3.456836 1.625231 -1.831605
1174.3125 3.533046 1.854049 -1.678997
1175.05859375 3.6425020000000004 1.973259 -1.669243
1175.796875 2.8500129999999997 1.003639 -1.846374
1176.53515625 2.370749 0.42144 -1.949309
1177.3046875 2.552127 0.779836 -1.772291
1178.046875 2.9369430000000003 1.376752 -1.560191
1178.78515625 3.226891 1.67 -1.556891
1179.54296875 3.334619 1.769032 -1.565587
1180.28515625 3.6183639999999997 1.985985 -1.632379
1180.78515625 4.270201 2.724332 -1.545869
1181.7890625 3.6477049999999998 2.044256 -1.603449
1182.52734375 3.695005 2.025121 -1.669884
1183.27734375 3.82777 2.093115 -1.734655
1184.01171875 3.9283149999999996 2.264493 -1.663822
1184.734375 3.884589 2.286105 -1.598484
1185.4765625 3.7456630000000004 2.195663 -1.55
1186.21875 4.023205 2.375831 -1.647374
1186.96875 3.992881 2.263233 -1.729648
1187.72265625 3.995456 2.415916 -1.57954
1188.47265625 3.952909 2.246489 -1.70642
1189.25390625 3.9358319999999996 2.320391 -1.615441
1190.0078125 3.968205 2.337243 -1.630962
1190.76171875 3.8147339999999996 2.326987 -1.487747
1191.53515625 4.077113000000001 2.371973 -1.70514
1192.28515625 3.8793990000000003 2.464468 -1.414931
1193.07421875 4.060926 2.546479 -1.514447
1193.84375 4.040896 2.515305 -1.525591
1194.3203125 4.3048269999999995 2.724827 -1.58
1195.3671875 3.9289870000000002 2.602657 -1.32633
1196.1328125 4.057647 2.316456 -1.741191
1196.87109375 4.0458680000000005 2.525884 -1.519984
1197.6328125 3.921998 2.36691 -1.555088
1198.37890625 4.001079 2.316331 -1.684748
1199.14453125 3.9778590000000005 2.34981 -1.628049
1199.88671875 3.922665 2.366119 -1.556546
1200.62890625 4.070162 2.494381 -1.575781
1201.3984375 3.8505130000000003 2.223376 -1.627137
1202.15625 3.6947 2.055108 -1.639592
1202.8984375 3.875266 2.292592 -1.582674
1203.65234375 3.931029 2.268444 -1.662585
1204.40625 3.766386 2.290856 -1.47553
1204.8984375 4.352437999999999 2.718908 -1.63353
1205.91796875 3.4094930000000003 1.67199 -1.737503
1206.66015625 3.610945 2.046982 -1.563963
1207.4375 3.6466079999999996 2.065146 -1.581462
1208.1875 3.6425579999999997 2.052421 -1.590137
1208.90625 3.589765 1.718953 -1.870812
1209.65234375 3.6279500000000002 1.918585 -1.709365
1210.390625 3.817614 1.863384 -1.95423
1211.14453125 3.7104410000000003 2.020861 -1.68958
1211.8828125 3.968838 2.322693 -1.646145
1212.62890625 4.010746 2.2071 -1.803646
1213.39453125 3.9832080000000003 2.210299 -1.772909
1213.89453125 4.3776340000000005 2.644965 -1.732669
1214.8828125 3.911519 2.3721 -1.539419
1215.6328125 3.792953 1.990271 -1.802682
1216.37109375 3.833772 2.227472 -1.6063
1217.12890625 3.8241560000000003 2.17072 -1.653436
1217.87890625 3.766602 2.197581 -1.569021
1218.60546875 3.801805 2.274702 -1.527103
1219.375 3.885419 2.18 -1.705419
1220.1171875 3.662089 2.032883 -1.629206
1220.84765625 3.6140030000000003 2.039016 -1.574987
1221.6015625 3.6267009999999997 1.980932 -1.645769
1222.34765625 4.040812 2.059151 -1.981661
1223.08984375 4.0474559999999995 2.353318 -1.694138
1223.84375 4.171692 2.234324 -1.937368
1224.58203125 3.8661079999999997 1.951118 -1.91499
1225.33203125 3.6966229999999998 1.991034 -1.705589
1226.08203125 3.6967090000000002 1.974389 -1.72232
1226.82421875 3.6441109999999997 1.952445 -1.691666
1227.5703125 3.655472 1.995 -1.660472
1228.29296875 3.529944 1.94888 -1.581064
1229.03515625 3.8293429999999997 2.088152 -1.741191
1229.79296875 3.7907650000000004 2.06605 -1.724715
1230.51953125 3.5630379999999997 1.74999 -1.813048
1231.25390625 3.560864 1.964489 -1.596375
1232.00390625 3.58117 1.886227 -1.694943
1232.7421875 3.5413119999999996 1.916505 -1.624807
1233.46875 3.86569 2.147736 -1.717954
1234.2109375 3.85435 2.165 -1.68935
1234.9375 3.773377 2.006122 -1.767255
1235.6875 3.575705 1.97372 -1.601985
1236.421875 3.808244 2.081478 -1.726766
1237.15625 3.79623 2.22934 -1.56689
1237.921875 3.921571 2.201528 -1.720043
1238.671875 4.094743 2.427667 -1.667076
1239.40234375 4.060565 2.410208 -1.650357
1240.1328125 4.059323 2.471786 -1.587537
1240.87109375 3.819536 2.066512 -1.753024
1241.6171875 3.4039479999999998 1.716158 -1.68779
1242.34765625 3.3812889999999998 1.780154 -1.601135
1243.0703125 3.550615 1.820931 -1.729684
1243.83203125 3.699968 1.969916 -1.730052
1244.55859375 3.7586250000000003 2.079524 -1.679101
1245.2734375 3.5867449999999996 1.716119 -1.870626
1246.01953125 3.609252 1.899855 -1.709397
1246.74609375 3.52224 1.951258 -1.570982
1247.48828125 3.644714 1.95475 -1.689964
1248.2265625 3.7830209999999997 1.978021 -1.805
1248.96875 3.597978 1.932308 -1.66567
1249.71875 3.6045550000000004 2.003947 -1.600608
1250.46484375 3.745889 2.197292 -1.548597
1251.1875 3.755191 2.12372 -1.631471
1251.92578125 3.7950589999999997 2.26834 -1.526719
1252.65625 3.894749 2.241263 -1.653486
1253.38671875 3.545572 1.649484 -1.896088
1254.125 3.671304 1.965 -1.706304
1254.84375 3.805814 2.057108 -1.748706
1255.5859375 3.966268 2.134356 -1.831912
1256.30859375 3.830582 2.188673 -1.641909
1257.03125 3.8412949999999997 2.21426 -1.627035
1257.765625 4.049196 2.005619 -2.043577
1258.484375 3.3923360000000002 1.589528 -1.802808
1259.2109375 3.6089770000000003 1.964601 -1.644376
1259.9609375 3.609478 1.954884 -1.654594
1260.69140625 3.78956 2.114902 -1.674658
1261.171875 4.220795 2.507654 -1.713141
1262.16796875 3.4993 1.89028 -1.60902
1262.9140625 3.681841 1.824244 -1.857597
1263.640625 3.976051 2.06228 -1.913771
1264.3671875 3.852196 2.065073 -1.787123
1265.09765625 3.680924 1.664086 -2.016838
1265.8359375 3.742578 1.879135 -1.863443
1266.5546875 3.610573 1.972585 -1.637988
1267.28125 3.8964860000000003 1.995357 -1.901129
1268.015625 3.4926180000000002 1.57999 -1.912628
1268.7421875 3.4891639999999997 1.72 -1.769164
1269.4609375 3.6347329999999998 1.889734 -1.744999
1270.1953125 3.573877 1.91859 -1.655287
1270.9140625 3.8152559999999998 2.059911 -1.755345
1271.41015625 4.223339 2.586386 -1.636953
1272.38671875 3.601991 2.0 -1.601991
1273.1171875 3.749439 1.988544 -1.760895
1273.8671875 3.577149 1.709612 -1.867537
1274.609375 3.749927 2.111932 -1.637995
1275.33203125 3.8211690000000003 2.002536 -1.818633
1276.05859375 3.8382009999999998 1.957516 -1.880685
1276.7890625 3.606631 1.793743 -1.812888
1277.53125 3.763508 1.94157 -1.821938
1278.2578125 3.793983 2.137474 -1.656509
1278.98046875 3.789606 2.039748 -1.749858
1279.7421875 3.780202 2.162816 -1.617386
1280.23046875 4.278051 2.66542 -1.612631
1281.1875 3.982319 2.356284 -1.626035
1281.94140625 4.143108 2.208787 -1.934321
1282.671875 3.904484 2.048572 -1.855912
1283.4140625 3.359681 1.594889 -1.764792
1284.1484375 3.591313 1.946332 -1.644981
1284.8828125 3.656378 2.105454 -1.550924
1285.640625 3.577044 1.946906 -1.630138
1286.12890625 4.3332809999999995 2.505 -1.828281
1287.09375 3.2624329999999997 1.526881 -1.735552
1287.8359375 3.372606 1.71413 -1.658476
1288.5625 3.4137389999999996 1.825068 -1.588671
1289.296875 3.602136 1.734051 -1.868085
1290.02734375 3.6595329999999997 1.884636 -1.774897
1290.74609375 3.606738 1.865399 -1.741339
1291.4921875 3.494688 1.673271 -1.821417
1292.21484375 3.379146 1.82236 -1.556786
1292.9375 3.559106 1.962049 -1.597057
1293.41796875 4.229691 2.511869 -1.717822
1294.39453125 3.596749 2.026135 -1.570614
1295.1328125 3.71998 1.930722 -1.789258
1295.875 3.564832 1.905 -1.659832
1296.60546875 3.7949020000000004 2.034902 -1.76
1297.3359375 3.710605 2.096171 -1.614434
1298.0859375 3.799087 2.154934 -1.644153
1298.828125 3.849913 2.078324 -1.771589
1299.5546875 3.465063 1.604488 -1.860575
1300.27734375 3.6437799999999996 2.056272 -1.587508
1301.01171875 3.7011760000000002 1.977959 -1.723217
1301.7578125 3.47287 1.989606 -1.483264
1302.4765625 3.706867 2.176867 -1.53
1303.1953125 3.74542 1.9895 -1.75592
1303.94140625 3.223854 1.564208 -1.659646
1304.66796875 3.502186 1.987292 -1.514894
1305.38671875 3.490637 1.927871 -1.562766
1306.12890625 3.4110139999999998 1.849828 -1.561186
1306.859375 3.602138 1.882697 -1.719441
1307.60546875 3.869964 1.949964 -1.92
1308.3515625 3.9665779999999997 2.171578 -1.795
1309.0859375 3.7829800000000002 1.923749 -1.859231
1309.83984375 3.591143 1.825271 -1.765872
1310.5859375 3.698951 1.964957 -1.733994
1311.3125 3.849717 2.081449 -1.768268
1312.04296875 3.598928 1.854036 -1.744892
1312.52734375 3.971069 2.346385 -1.624684
1313.50390625 3.312177 1.853413 -1.458764
1314.26171875 3.532606 1.787412 -1.745194
1314.98046875 3.697549 1.749734 -1.947815
1315.72265625 3.4385950000000003 1.6694 -1.769195
1316.45703125 3.484909 1.872357 -1.612552
1317.1953125 3.582093 1.906569 -1.675524
1317.9453125 3.737852 1.934941 -1.802911
1318.67578125 3.751948 2.104721 -1.647227
1319.41796875 3.8385169999999995 2.085218 -1.753299
1320.171875 3.5567409999999997 1.628372 -1.928369
1320.91015625 3.482275 1.78572 -1.696555
1321.64453125 3.693773 1.784929 -1.908844
1322.41015625 3.6351560000000003 1.680951 -1.954205
1323.16015625 3.699469 1.69171 -2.007759
1323.8828125 3.7984180000000003 1.58631 -2.212108
1324.62890625 3.610854 1.4812 -2.129654
1325.375 3.619784 1.49 -2.129784
1326.12890625 3.543431 1.398277 -2.145154
1326.87109375 3.654817 1.697331 -1.957486
1327.61328125 3.770227 1.737359 -2.032868
1328.3671875 3.826643 1.827015 -1.999628
1328.85546875 4.03 2.24 -1.79
1329.84765625 3.568428 2.042008 -1.52642
1330.5859375 3.603058 1.824175 -1.778883
1331.328125 3.455698 2.144742 -1.310956
1332.078125 3.616507 1.858131 -1.758376
1332.8125 3.319986 1.395875 -1.924111
1333.55078125 3.484213 1.696316 -1.787897
1334.32421875 3.6435120000000003 1.959146 -1.684366
1335.0703125 3.3556179999999998 1.623758 -1.73186
1335.79296875 3.3256509999999997 1.883931 -1.44172
1336.54296875 3.474795 2.03902 -1.435775
1337.29296875 3.4451840000000002 2.059839 -1.385345
1338.05078125 3.6517809999999997 2.267598 -1.384183
1338.7890625 3.733187 2.40991 -1.323277
1339.2890625 4.2863240000000005 2.969971 -1.316353
1340.27734375 3.223148 1.618398 -1.60475
1341.02734375 3.260996 1.882352 -1.378644
1341.75390625 3.3682 1.931296 -1.436904
1342.5 3.534983 2.04 -1.494983
1343.23828125 3.687535 2.164543 -1.522992
1344.0 3.760591 2.135 -1.625591
1344.75 3.7249410000000003 2.2 -1.524941
1345.48046875 3.87 2.155 -1.715
1346.25390625 3.69215 1.904373 -1.787777
1346.99609375 3.254228 1.629462 -1.624766
1347.72265625 3.264115 1.692543 -1.571572
1348.4765625 3.4258610000000003 1.650836 -1.775025
1349.234375 3.518404 1.734122 -1.784282
1349.734375 4.173357 2.448154 -1.725203
1350.7265625 3.206543 1.590205 -1.616338
1351.46484375 3.402769 1.517393 -1.885376
1352.21875 3.40838 1.623924 -1.784456
1352.96484375 3.506095 1.680626 -1.825469
1353.69140625 3.510978 1.729451 -1.781527
1354.4296875 3.357029 2.494932 -0.862097
1364.05078125 1.56571 -0.47 -2.03571
1364.78515625 1.794666 -0.497561 -2.292227
1365.5078125 2.0386130000000002 -0.515367 -2.55398
1366.25390625 2.404505 -0.550748 -2.955253
1366.97265625 2.1759269999999997 -0.723606 -2.899533
1367.71875 2.2847839999999997 -0.47684 -2.761624
1368.4609375 2.439787 -0.445158 -2.884945
1369.19140625 2.548147 -0.351221 -2.899368
1369.9609375 2.548762 -0.330266 -2.879028
1370.703125 2.632232 -0.24592 -2.878152
1371.43359375 2.572917 -0.212689 -2.785606
1372.18359375 2.734813 -0.16 -2.894813
1372.92578125 2.477309 -0.455409 -2.932718
1373.421875 3.0365379999999997 0.499678 -2.53686
1374.41015625 2.5394020000000004 -0.129469 -2.668871
1375.15625 2.678485 0.517575 -2.16091
1375.91015625 2.620612 0.602322 -2.01829
1376.6328125 2.679427 0.569338 -2.110089
1377.35546875 2.9998440000000004 0.634844 -2.365
1378.109375 2.885094 0.50351 -2.381584
1378.828125 3.144425 0.614551 -2.529874
1379.578125 3.162214 0.740249 -2.421965
1380.33203125 3.2599410000000004 0.872428 -2.387513
1381.0625 3.007368 0.610814 -2.396554
1381.8125 3.0840769999999997 0.754295 -2.329782
1382.3125 3.596698 1.602593 -1.994105
1383.29296875 3.156903 0.820973 -2.33593
1384.0390625 3.1497849999999996 0.64876 -2.501025
1384.77734375 3.3261279999999998 0.402484 -2.923644
1385.5 3.053457 -0.475 -3.528457
1386.2578125 3.077667 -0.429944 -3.507611
1386.98046875 3.2249529999999997 -0.180047 -3.405
1387.70703125 3.214484 0.032172 -3.182312
1388.4453125 3.217811 0.24121 -2.976601
1389.171875 3.380296 0.432115 -2.948181
1389.90625 3.3190239999999998 0.758977 -2.560047
1390.6328125 3.261037 0.771835 -2.489202
1397.31640625 1.45723 0.89739 -0.55984
1398.06640625 1.792932 1.268167 -0.524765
1398.81640625 2.6688460000000003 2.274487 -0.394359
1399.5625 3.291295 2.984733 -0.306562
1400.3125 3.3383700000000003 3.248724 -0.089646
1401.06640625 3.851779 3.80342 -0.048359
1401.8046875 4.076369 4.115454 0.039085
1402.55078125 3.460179 3.433281 -0.026898
1403.30078125 3.797484 4.020962 0.223478
1404.0546875 3.520018 4.495385 0.975367
1405.2578125 7.314381 3.85939 -3.454991
0.0 3.0427600000000004 -1.0 -4.04276
0.0 3.1299720000000004 -1.0 -4.129972
1407.05859375 3.106032 -0.187973 -3.294005
1407.7890625 2.939568 0.478412 -2.461156
1408.5390625 3.294172 1.484615 -1.809557
1409.2734375 3.593803 2.336403 -1.2574
1410.01171875 3.283254 2.307718 -0.975536
1410.75390625 3.533289 2.758592 -0.774697
1411.484375 3.529343 2.906968 -0.622375
1412.21484375 3.681305 2.927963 -0.753342
1412.94921875 3.798012 2.95474 -0.843272
1413.671875 3.651711 2.8811 -0.770611
1414.3984375 3.4785589999999997 2.842593 -0.635966
1415.1171875 3.6165459999999996 2.893823 -0.722723
1415.84765625 3.814575 3.134299 -0.680276
1416.59765625 3.711134 2.946134 -0.765
1417.33203125 3.772056 2.697232 -1.074824
1418.09375 3.480801 2.362593 -1.118208
1418.859375 3.6127920000000002 2.570647 -1.042145
1419.625 3.517583 2.565 -0.952583
1420.38671875 3.7764569999999997 2.840203 -0.936254
1420.8671875 4.343097 3.634521 -0.708576
1421.88671875 3.967213 3.843357 -0.123856
1422.65625 4.213021 3.850248 -0.362773
1423.38671875 3.8597279999999996 3.380228 -0.4795
1424.12109375 3.80946 3.214891 -0.594569
1424.875 3.8463089999999998 3.045 -0.801309
1425.6171875 3.96549 2.848529 -1.116961
1426.359375 3.8825119999999997 2.510137 -1.372375
1427.0859375 3.886328 2.479695 -1.406633
1427.8359375 4.006301 2.259765 -1.746536
1428.58984375 3.734405 2.007661 -1.726744
1429.32421875 4.111347 2.135172 -1.976175
1430.07421875 3.8520380000000003 1.788587 -2.063451
1430.828125 4.109717 1.912465 -2.197252
1431.57421875 3.9582829999999998 1.601489 -2.356794
1432.31640625 4.0609020000000005 1.481942 -2.57896
1433.0546875 4.186771 1.628538 -2.558233
1433.80078125 3.986191 1.301898 -2.684293
1434.5625 3.987389 0.665918 -3.321471
1435.296875 4.115406 0.780887 -3.334519
1435.765625 4.301476 1.936943 -2.364533
1436.78125 4.0486379999999995 2.802634 -1.246004
1437.5390625 4.108717 2.833244 -1.275473
1438.28515625 4.01501 2.664392 -1.350618
1439.015625 4.207257 2.468565 -1.738692
1439.765625 3.924953 2.447329 -1.477624
1440.5234375 3.9549529999999997 2.176872 -1.778081
1441.26171875 4.074872 2.240019 -1.834853
1442.02734375 4.113581 1.958587 -2.154994
1442.78515625 3.7625640000000002 1.560674 -2.20189
1443.51953125 4.1924019999999995 1.839893 -2.352509
1444.265625 4.133891 1.884031 -2.24986
1445.0 3.729788 1.615 -2.114788
1445.7265625 3.575527 1.659531 -1.915996
1446.4609375 3.569674 0.97419 -2.595484
1447.171875 2.888615 0.241143 -2.647472
1447.87890625 2.6206139999999998 0.353252 -2.267362
1448.609375 2.996233 1.168501 -1.827732
1449.34375 3.285955 1.256881 -2.029074
1450.05859375 3.4175370000000003 1.468925 -1.948612
1450.54296875 4.2733 2.469684 -1.803616
1451.5 3.639989 1.65 -1.989989
1452.24609375 3.872875 2.073201 -1.799674
1452.96484375 3.6339040000000002 1.739164 -1.89474
1453.6875 3.952356 2.3487 -1.603656
1454.4375 4.097788 2.178713 -1.919075
1455.15234375 4.21969 2.380281 -1.839409
1455.84765625 3.984418 2.369118 -1.6153
1456.5625 4.038027 2.220886 -1.817141
1457.26953125 4.060208 2.364868 -1.69534
1457.984375 3.9944930000000003 2.344898 -1.649595
1458.6953125 4.127685 2.409494 -1.718191
1459.40625 4.084548 2.43059 -1.653958
1460.1328125 3.944755 2.293564 -1.651191
1460.84375 4.055383 2.25052 -1.804863
1461.55859375 4.051508 2.414451 -1.637057
1462.2890625 4.012821 2.464903 -1.547918
1463.0 4.003649 2.245 -1.758649
1463.734375 4.230065 2.416411 -1.813654
1464.47265625 4.11946 2.323932 -1.795528
1465.1953125 4.125451 2.222076 -1.903375
1465.9375 4.041626 2.242357 -1.799269
1466.4609375 4.335337 2.634962 -1.700375
1467.3984375 3.8810640000000003 2.061944 -1.81912
1468.125 3.947095 2.33 -1.617095
1468.83984375 3.965693 2.325 -1.640693
1469.5546875 3.824836 2.18592 -1.638916
1470.28515625 3.9822300000000004 2.108915 -1.873315
1470.99609375 3.459404 1.721591 -1.737813
1471.703125 3.361395 1.74004 -1.621355
1472.4375 3.5044579999999996 1.583864 -1.920594
1473.1640625 3.001555 1.238911 -1.762644
1473.875 2.744772 1.06 -1.684772
1474.59765625 2.8821339999999998 0.967516 -1.914618
1475.3203125 2.735162 0.92284 -1.812322
1476.05859375 2.797126 0.934258 -1.862868
1476.78515625 2.526799 0.81825 -1.708549
1477.51953125 2.6980459999999997 1.02914 -1.668906
1478.26171875 2.389873 0.766903 -1.62297
1478.9921875 2.318769 0.684613 -1.634156
1479.73046875 2.3628270000000002 0.641892 -1.720935
1480.4609375 2.519242 0.774068 -1.745174
1481.1796875 2.471129 0.629932 -1.841197
1481.90234375 2.369495 0.620314 -1.749181
1482.65234375 2.427052 0.560971 -1.866081
1483.3671875 2.523955 0.467207 -2.056748
1484.078125 2.260755 0.305755 -1.955
1484.8203125 2.353602 0.377375 -1.976227
1485.55078125 2.463105 0.541027 -1.922078
1486.26953125 2.494186 0.469793 -2.024393
1486.98828125 2.437241 0.378493 -2.058748
1487.7109375 2.370387 0.523541 -1.846846
1488.4453125 2.332593 0.457481 -1.875112
1489.1640625 2.417172 0.483741 -1.933431
1489.88671875 2.39068 0.619743 -1.770937
1490.6328125 2.39428 0.641592 -1.752688
1491.3515625 2.45464 0.74464 -1.71
1492.0625 2.5199439999999997 0.837742 -1.682202
1492.80078125 2.571372 0.958206 -1.613166
1493.5234375 2.632875 1.037337 -1.595538
1494.25390625 2.581963 0.968701 -1.613262
1494.97265625 2.627063 0.851932 -1.775131
1495.6875 2.533947 0.973723 -1.560224
1496.41015625 2.490403 0.887814 -1.602589
1497.125 2.600722 0.855 -1.745722
1497.84375 2.546729 1.009671 -1.537058
1498.5625 2.571068 0.8884 -1.682668
1499.27734375 2.591436 0.900463 -1.690973
1500.015625 2.486733 0.817671 -1.669062
1500.76171875 2.473922 0.605526 -1.868396
1501.5 2.384734 0.615 -1.769734
1502.26171875 2.3145670000000003 0.622417 -1.69215
1503.0234375 2.321907 0.656997 -1.66491
1503.78515625 2.345583 0.673699 -1.671884
1504.53125 2.428416 0.578714 -1.849702
1505.26953125 2.369661 0.604964 -1.764697
1505.8046875 3.3625179999999997 2.070798 -1.29172
1506.765625 2.383532 0.684427 -1.699105
1507.484375 2.437326 0.424366 -2.01296
1508.1953125 2.187134 0.346605 -1.840529
1508.94140625 2.255758 0.335876 -1.919882
1509.67578125 2.230045 0.486028 -1.744017
1510.39453125 2.184583 0.51986 -1.664723
1511.1171875 2.395613 0.524629 -1.870984
1511.84765625 2.14671 0.467303 -1.679407
1512.59375 2.185034 0.750138 -1.434896
1513.32421875 2.2221349999999997 0.883456 -1.338679
1514.05078125 2.3990210000000003 0.794586 -1.604435
1514.79296875 2.228488 0.637636 -1.590852
1515.53515625 2.234798 0.718826 -1.515972
1516.25390625 2.306357 0.839667 -1.46669
1516.98828125 2.231627 0.767133 -1.464494
1517.72265625 2.34695 0.866043 -1.480907
1518.4765625 2.471903 0.692621 -1.779282
1519.19921875 2.484005 0.775762 -1.708243
1519.921875 2.516336 0.954916 -1.56142
1520.68359375 2.538322 0.95745 -1.580872
1521.41796875 2.790132 1.217683 -1.572449
1522.12890625 2.693393 0.695 -1.998393
1522.85546875 2.3849289999999996 0.354929 -2.03
1523.58984375 2.37362 0.226911 -2.146709
1524.32421875 2.316397 0.23882 -2.077577
1525.06640625 2.459912 0.435 -2.024912
1525.796875 2.455277 0.445371 -2.009906
1526.5546875 2.567849 0.659006 -1.908843
1527.29296875 2.534363 0.741899 -1.792464
1528.01171875 2.468851 0.523617 -1.945234
1528.75390625 2.52143 0.755737 -1.765693
1529.265625 3.516641 2.156183 -1.360458
1530.22265625 2.592789 0.75786 -1.834929
1530.96875 2.3704359999999998 0.701157 -1.669279
1531.68359375 2.484238 0.699733 -1.784505
1532.44140625 2.355658 0.639848 -1.71581
1533.1875 2.541805 0.702469 -1.839336
1533.90625 2.481676 0.596974 -1.884702
1534.66015625 2.379538 0.636382 -1.743156
1535.13671875 3.5293539999999997 2.143229 -1.386125
1536.18359375 2.484459 0.729954 -1.754505
1536.94140625 2.444476 0.728713 -1.715763
1537.6953125 2.393662 0.683604 -1.710058
1538.4765625 2.2713270000000003 0.555021 -1.716306
1539.22265625 2.225616 0.758227 -1.467389
1539.9609375 2.304275 0.914484 -1.389791
1540.71875 2.435756 0.579166 -1.85659
1541.46484375 2.638433 0.538531 -2.099902
1542.21875 2.396777 0.349051 -2.047726
1542.9453125 2.183478 0.057544 -2.125934
1543.671875 2.0938600000000003 0.266548 -1.827312
1544.41796875 2.094704 0.32098 -1.773724
1545.15234375 2.1673839999999998 0.429108 -1.738276
1545.85546875 2.284872 0.379872 -1.905
1546.58984375 2.303137 0.332922 -1.970215
1547.3125 2.3378520000000003 0.342895 -1.994957
1548.046875 2.377354 0.388516 -1.988838
1548.7734375 2.448668 0.664643 -1.784025
1549.5 2.52665 0.755 -1.77165
1550.23046875 2.570087 0.56374 -2.006347
1550.94921875 2.265577 0.406412 -1.859165
1551.46875 3.350262 1.858281 -1.491981
1551.87109375 2.65538 1.151923 -1.503457
1552.8984375 2.414656 0.459792 -1.954864
1553.62890625 2.234201 0.350277 -1.883924
1554.37109375 2.3624270000000003 0.557623 -1.804804
1555.08203125 2.320519 0.56469 -1.755829
1555.79296875 2.208031 0.533031 -1.675
1556.53125 2.373269 0.486521 -1.886748
1557.25390625 2.232324 0.480623 -1.751701
1557.9609375 2.249806 0.504901 -1.744905
1558.6953125 2.25708 0.568131 -1.688949
1559.421875 2.408213 0.513594 -1.894619
1560.15625 2.290831 0.476337 -1.814494
1560.90625 2.319925 0.493177 -1.826748
1561.6484375 2.371426 0.556584 -1.814842
1562.40625 2.395008 0.475854 -1.919154
1563.13671875 2.41043 0.360487 -2.049943
1563.87890625 2.226085 0.344993 -1.881092
1564.61328125 2.271418 0.433379 -1.838039
1565.3359375 2.211145 0.271156 -1.939989
1566.06640625 2.187871 0.273222 -1.914649
1566.578125 3.224368 1.79491 -1.429458
1567.52734375 2.180253 0.431658 -1.748595
1568.2578125 2.176518 0.518056 -1.658462
1569.00390625 2.3364570000000002 0.591759 -1.744698
1569.73828125 2.290378 0.54 -1.750378
1570.4609375 2.39948 0.624737 -1.774743
1571.19140625 2.312589 0.804954 -1.507635
1571.9140625 2.5398389999999997 0.804886 -1.734953
1572.640625 2.596345 0.627484 -1.968861
1573.37109375 2.433144 0.602983 -1.830161
1573.9140625 3.460933 1.759549 -1.701384
1574.8203125 2.357983 0.506816 -1.851167
1575.55078125 2.3584870000000002 0.609591 -1.748896
1576.25 2.424961 0.505 -1.919961
1576.9765625 2.313088 0.526443 -1.786645
1577.6953125 2.424723 0.703966 -1.720757
1578.4296875 2.4525699999999997 0.614163 -1.838407
1579.15625 2.303731 0.603546 -1.700185
1579.8828125 2.417431 0.637757 -1.779674
1580.625 2.4836869999999998 0.585 -1.898687
1581.37890625 2.310118 0.62512 -1.684998
1582.10546875 2.358951 0.543951 -1.815
1582.85546875 2.451359 0.731359 -1.72
1583.6015625 2.300654 0.825654 -1.475
1584.33984375 2.643294 0.918061 -1.725233
1585.1015625 2.401643 0.84931 -1.552333
1585.84765625 2.490619 0.804728 -1.685891
1586.59375 2.5616250000000003 0.709244 -1.852381
1587.3359375 2.528167 0.799196 -1.728971
1588.06640625 2.593361 0.618756 -1.974605
1588.80078125 2.482891 0.602774 -1.880117
1589.5234375 2.422213 0.732887 -1.689326
1590.265625 2.542946 0.617422 -1.925524
1591.0 2.439842 0.635 -1.804842
1591.72265625 2.370733 0.528723 -1.84201
1592.453125 2.381118 0.572596 -1.808522
1593.19140625 2.4453579999999997 0.678391 -1.766967
1593.9140625 2.369042 0.469863 -1.899179
1594.64453125 2.381564 0.644855 -1.736709
1595.375 2.318054 0.57 -1.748054
1595.859375 3.462952 1.948008 -1.514944
1596.84375 2.407889 0.77003 -1.637859
1597.5703125 2.499281 0.635312 -1.863969
1598.29296875 2.3152150000000002 0.464351 -1.850864
1599.03515625 2.306935 0.503775 -1.80316
1599.76171875 2.368198 0.31187 -2.056328
1600.4765625 2.30251 0.40475 -1.89776
1601.19140625 2.369713 0.31 -2.059713
1601.91015625 2.379569 0.265552 -2.114017
1602.6484375 2.299037 0.360719 -1.938318
1603.35546875 2.309815 0.304815 -2.005
1604.06640625 2.342314 0.639163 -1.703151
1604.81640625 2.386706 0.813633 -1.573073
1605.5390625 2.340809 0.659933 -1.680876
1606.25390625 2.167773 0.678161 -1.489612
1606.98828125 2.269182 0.769258 -1.499924
1607.72265625 2.247217 0.573574 -1.673643
1608.453125 2.1645440000000002 0.544151 -1.620393
1609.19140625 2.179302 0.519836 -1.659466
1609.92578125 2.155068 0.663484 -1.491584
1610.6875 2.3187290000000003 0.918846 -1.399883
1611.43359375 2.2893220000000003 0.864954 -1.424368
1612.15625 2.504098 0.813171 -1.690927
1612.8984375 2.453229 0.865957 -1.587272
1613.625 2.504808 0.775 -1.729808
1614.375 2.522014 0.48 -2.042014
1615.0859375 2.405363 0.18439 -2.220973
1615.79296875 2.167722 -0.001818 -2.16954
1616.5390625 2.192965 0.233435 -1.95953
1617.26171875 2.168028 0.44634 -1.721688
1617.96484375 2.28267 0.52767 -1.755
1618.703125 2.2803839999999997 0.447762 -1.832622
1619.4296875 2.2887910000000002 0.491601 -1.79719
1620.15625 2.225337 0.539773 -1.685564
1620.89453125 2.316071 0.714976 -1.601095
1621.3828125 3.456034 1.986202 -1.469832
1622.36328125 2.200946 0.585344 -1.615602
1623.08984375 2.359234 0.499001 -1.860233
1623.79296875 2.241952 0.235573 -2.006379
1624.5078125 2.01445 0.214183 -1.800267
1625.20703125 2.148569 0.258598 -1.889971
1625.921875 2.2693250000000003 0.388493 -1.880832
1626.65625 2.338655 0.440681 -1.897974
1627.3515625 2.23635 0.38752 -1.84883
1628.0625 2.248536 0.495 -1.753536
1628.796875 2.3382330000000002 0.558328 -1.779905
1629.515625 2.28037 0.441438 -1.838932
1630.21484375 2.209057 0.412348 -1.796709
1630.93359375 2.263907 0.439613 -1.824294
1631.65625 2.171206 0.646818 -1.524388
1632.3828125 2.666345 1.318326 -1.348019
1633.11328125 2.648597 2.519742 -0.128855
1633.828125 2.110542 2.559689 0.449147
1634.56640625 2.837369 1.827988 -1.009381
1635.2890625 3.3627070000000003 1.454469 -1.908238
1635.98828125 3.860085 1.385984 -2.474101
1636.69921875 3.995158 1.261141 -2.734017
1637.41796875 4.520723 1.55884 -2.961883
1638.13671875 4.203609 1.709186 -2.494423
1638.859375 4.375999 1.905225 -2.470774
1639.5625 3.697215 1.344449 -2.352766
1640.265625 3.112622 0.653036 -2.459586
1640.98828125 2.7011089999999998 0.567338 -2.133771
1641.6875 2.4443349999999997 0.227308 -2.217027
1642.3828125 2.4137329999999997 0.369153 -2.04458
1643.08203125 2.43081 0.27 -2.16081
1643.77734375 2.151774 -0.072571 -2.224345
1644.48046875 2.2160699999999998 0.419877 -1.796193
1645.1953125 2.234402 0.582147 -1.652255
1645.87890625 2.277323 0.485927 -1.791396
1646.59765625 2.298635 0.621947 -1.676688
1647.296875 2.278724 0.669718 -1.609006
1647.99609375 2.309508 0.719659 -1.589849
1648.6953125 2.244357 0.456343 -1.788014
1649.39453125 2.160532 0.604173 -1.556359
1650.1015625 2.284218 0.739218 -1.545
1650.8203125 2.278141 0.453229 -1.824912
1651.51171875 2.307419 0.367841 -1.939578
1652.21484375 2.21976 0.456901 -1.762859
1652.9453125 2.416545 0.541545 -1.875
1653.65234375 2.275236 0.540406 -1.73483
1654.359375 2.196097 0.470751 -1.725346
1655.0703125 2.395976 0.547444 -1.848532
1655.78125 2.303037 0.72285 -1.580187
1656.50390625 2.335211 0.502279 -1.832932
1657.2265625 2.2788180000000002 0.489487 -1.789331
1657.9453125 2.333455 0.601378 -1.732077
1658.671875 2.36662 0.433803 -1.932817
1659.3984375 2.199685 0.485762 -1.713923
1660.11328125 2.345453 0.66603 -1.679423
1660.83203125 2.367642 0.672814 -1.694828
1661.55078125 2.475504 0.744607 -1.730897
1662.27734375 2.526304 0.716657 -1.809647
1663.0078125 2.5006500000000003 0.601836 -1.898814
1663.71484375 2.552012 0.101655 -2.450357
1664.41796875 2.35076 -0.151471 -2.502231
1665.15625 2.290967 0.047794 -2.243173
1665.86328125 2.34499 0.370712 -1.974278
1666.56640625 2.328662 0.644898 -1.683764
1667.27734375 2.2438719999999996 0.593872 -1.65
1667.98046875 2.3998939999999997 0.879894 -1.52
1668.70703125 2.333324 0.96834 -1.364984
1669.421875 2.390959 0.949723 -1.441236
1670.12890625 2.257802 0.811034 -1.446768
1670.86328125 2.3034600000000003 0.864906 -1.438554
1671.5703125 2.286156 0.51758 -1.768576
1672.26953125 2.2098329999999997 0.674901 -1.534932
1672.984375 2.15533 0.72533 -1.43
1673.6796875 2.373358 0.780118 -1.59324
1674.390625 2.315341 0.830954 -1.484387
1675.1015625 2.2759799999999997 0.79182 -1.48416
1675.796875 2.37289 0.694305 -1.678585
1676.50390625 2.252459 0.632761 -1.619698
1677.2265625 2.364137 0.563893 -1.800244
1677.93359375 2.28971 0.337778 -1.951932
1678.63671875 2.001149 0.324482 -1.676667
1679.3515625 2.1743259999999998 0.387934 -1.786392
1680.0625 2.193969 0.386339 -1.80763
1680.80859375 2.152327 0.308748 -1.843579
1681.53515625 2.1243049999999997 0.343599 -1.780706
1682.2421875 2.369812 0.314812 -2.055
1682.98046875 2.245847 0.040847 -2.205
1683.7109375 2.074149 0.06437 -2.009779
1684.41796875 2.264251 0.357584 -1.906667
1685.140625 2.596057 0.844651 -1.751406
1685.859375 2.440597 0.424394 -2.016203
1686.5859375 2.332983 0.284401 -2.048582
1687.2890625 2.248566 0.244627 -2.003939
1687.9921875 2.356394 0.331994 -2.0244
1688.73046875 2.376684 0.534904 -1.84178
1689.4375 2.303543 0.33 -1.973543
1690.12890625 2.435389 0.320276 -2.115113
1690.84765625 2.299893 0.38753 -1.912363
1691.5625 2.241727 0.442188 -1.799539
1692.265625 2.435349 0.444421 -1.990928
1692.9921875 2.32002 0.41002 -1.91
1693.70703125 2.267069 0.515918 -1.751151
1694.4375 2.477312 0.682333 -1.794979
1695.171875 2.4029610000000003 0.538513 -1.864448
1695.890625 2.506102 0.525 -1.981102
1696.61328125 2.245698 0.534499 -1.711199
1697.328125 2.345018 0.617053 -1.727965
1698.0625 2.296665 0.631228 -1.665437
1698.80078125 2.559236 0.719647 -1.839589
1699.51171875 2.386628 0.543904 -1.842724
1700.234375 2.411372 0.631372 -1.78
1700.97265625 2.343233 0.624243 -1.71899
1701.69140625 2.428738 0.679657 -1.749081
1702.41015625 2.549241 0.685634 -1.863607
1703.125 2.465803 0.54 -1.925803
1703.84765625 2.441944 0.438249 -2.003695
1704.578125 2.4642519999999997 0.327771 -2.136481
1705.29296875 2.3188459999999997 0.351672 -1.967174
1706.0078125 2.4355729999999998 0.429591 -2.005982
1706.7421875 2.4396690000000003 0.50275 -1.936919
1707.46875 2.28294 0.441591 -1.841349
1708.16796875 2.2798499999999997 0.589896 -1.689954
1708.8828125 2.414624 0.62759 -1.787034
1709.59765625 2.414654 0.476541 -1.938113
1710.3203125 2.341291 0.432556 -1.908735
1711.02734375 2.377119 0.569869 -1.80725
1711.73828125 2.367114 0.636696 -1.730418
1712.46875 2.254608 0.672363 -1.582245
1713.18359375 2.385105 0.791549 -1.593556
1713.88671875 2.477534 0.796377 -1.681157
1714.61328125 2.401748 0.575486 -1.826262
1715.32421875 2.5885629999999997 0.672377 -1.916186
1716.01953125 2.544079 0.449201 -2.094878
1716.75 2.379679 0.4 -1.979679
1717.45703125 2.286271 0.528853 -1.757418
1718.16015625 2.504826 0.606095 -1.898731
1718.87890625 2.567517 0.601245 -1.966272
1719.6015625 2.438858 0.585665 -1.853193
1720.2890625 2.523463 0.564373 -1.95909
1720.99609375 2.465722 0.592209 -1.873513
1721.7109375 2.429837 0.609931 -1.819906
1722.44921875 2.38172 0.509581 -1.872139
1723.15625 2.4322660000000003 0.616141 -1.816125
1723.86328125 2.437528 0.615632 -1.821896
1724.58984375 2.575081 0.485565 -2.089516
1725.30078125 2.418597 0.582647 -1.83595
1726.00390625 2.356487 0.493249 -1.863238
1726.71875 2.597015 0.667154 -1.929861
1727.41796875 2.529349 0.819896 -1.709453
1728.13671875 2.381508 0.606046 -1.775462
1728.86328125 2.425201 0.683546 -1.741655
1729.578125 2.461586 0.810315 -1.651271
1730.2890625 2.484306 0.673565 -1.810741
1731.03125 2.5312609999999998 0.820057 -1.711204
1731.7734375 2.4448819999999998 0.813967 -1.630915
1732.48046875 2.488889 0.699515 -1.789374
1733.21484375 2.423993 0.740177 -1.683816
1733.9453125 2.41805 0.707387 -1.710663
1734.6875 2.4588349999999997 0.582333 -1.876502
1735.41015625 2.446497 0.719378 -1.727119
1735.89453125 3.6509229999999997 2.249926 -1.400997
1736.8671875 2.413803 0.650162 -1.763641
1737.58984375 2.496798 0.723701 -1.773097
1738.296875 2.542205 0.584262 -1.957943
1739.0234375 2.447917 0.62596 -1.821957
1739.734375 2.312323 0.551517 -1.760806
1740.453125 2.463003 0.488003 -1.975
1741.1875 2.347019 0.605857 -1.741162
1741.90625 2.3285419999999997 0.422917 -1.905625
1742.640625 2.354775 0.477768 -1.877007
1743.375 2.354853 0.545 -1.809853
1744.09375 2.404208 0.328583 -2.075625
1744.81640625 2.3067960000000003 0.340751 -1.966045
1745.5390625 2.339135 0.519481 -1.819654
1746.26953125 2.409242 0.769791 -1.639451
1747.0 2.37979 0.605 -1.77479
1747.70703125 2.382437 0.467074 -1.915363
1748.421875 2.275362 0.402936 -1.872426
1749.15234375 2.226761 0.463345 -1.763416
1749.8671875 2.223664 0.514188 -1.709476
1750.58203125 2.134352 0.520561 -1.613791
1751.30078125 2.323807 0.624635 -1.699172
1752.01171875 2.298178 0.360641 -1.937537
1752.7421875 2.206433 0.319815 -1.886618
1753.46484375 2.260951 0.52989 -1.731061
1754.18359375 2.200609 0.488083 -1.712526
1754.9296875 2.371628 0.542695 -1.828933
1755.65234375 2.35844 0.48671 -1.87173
1756.3515625 2.33777 0.56277 -1.775
1757.078125 2.397951 0.489826 -1.908125
1757.78515625 2.441923 0.333776 -2.108147
1758.5 2.2748280000000003 0.26 -2.014828
1759.20703125 2.118834 0.248551 -1.870283
1759.921875 2.101868 0.300276 -1.801592
1760.6484375 2.146059 0.403728 -1.742331
1761.3671875 2.402292 0.609813 -1.792479
1762.08203125 2.390776 0.330781 -2.059995
1762.80859375 2.227046 0.244793 -1.982253
1763.51953125 2.1567290000000003 0.336276 -1.820453
1764.24609375 2.210457 0.491554 -1.718903
1764.9921875 2.2697 0.4247 -1.845
1765.70703125 2.1547330000000002 0.288538 -1.866195
1766.44140625 2.165021 0.409286 -1.755735
1767.19140625 2.251579 0.576893 -1.674686
1767.9296875 2.3435449999999998 0.642427 -1.701118
1768.65625 2.255347 0.589071 -1.666276
1769.3828125 2.3250200000000003 0.475576 -1.849444
1770.11328125 2.3689929999999997 0.385 -1.983993
1770.84765625 2.329787 0.411315 -1.918472
1771.5625 2.309897 0.358202 -1.951695
1772.28125 2.253032 0.36309 -1.889942
1773.00390625 2.422888 0.39888 -2.024008
1773.71484375 2.240936 0.297776 -1.94316
1774.4296875 2.092272 0.352599 -1.739673
1775.140625 2.19326 0.487943 -1.705317
1775.84765625 2.348974 0.391676 -1.957298
1776.58203125 1.590118 -0.024594 -1.614712
1777.3125 2.099059 0.504666 -1.594393
1778.02734375 2.274888 0.756407 -1.518481
1778.76953125 2.524601 0.654851 -1.86975
1779.50390625 2.411476 0.84356 -1.567916
1780.21484375 2.291087 0.764446 -1.526641
1780.9375 2.489048 0.724722 -1.764326
1781.65234375 2.283564 0.652138 -1.631426
1782.38671875 2.195249 0.741908 -1.453341
1783.10546875 2.254196 0.729196 -1.525
1783.828125 2.339736 0.670478 -1.669258
1784.578125 2.402243 0.644435 -1.757808
1785.296875 2.42279 0.577529 -1.845261
1786.01171875 2.353396 0.698015 -1.655381
1786.74609375 2.447807 0.768425 -1.679382
1787.47265625 2.407278 0.713367 -1.693911
1788.19140625 2.3572249999999997 0.559256 -1.797969
1788.9296875 2.296126 0.579639 -1.716487
1789.6484375 2.342526 0.588702 -1.753824
1790.38671875 2.448376 0.700076 -1.7483
1791.1171875 2.494863 0.612809 -1.882054
1791.8203125 2.4246169999999996 0.34785 -2.076767
1792.53515625 2.24829 0.400597 -1.847693
1793.24609375 2.276252 0.513193 -1.763059
1793.96484375 2.280516 0.580447 -1.700069
1794.69921875 2.403637 0.583365 -1.820272
1795.390625 2.3033989999999998 0.416719 -1.88668
1796.09765625 2.151924 0.351822 -1.800102
1796.828125 2.184884 0.412087 -1.772797
1797.54296875 2.248453 0.567453 -1.681
1798.24609375 2.3388210000000003 0.449565 -1.889256
1798.95703125 2.221153 0.459098 -1.762055
1799.66796875 2.183663 0.486877 -1.696786
1800.40234375 2.209086 0.557373 -1.651713
1801.12890625 2.3384869999999998 0.812746 -1.525741
1801.84375 2.365627 0.854294 -1.511333
1802.59375 2.405742 0.773931 -1.631811
1803.3125 2.418494 0.671453 -1.747041
1804.01171875 2.190878 0.528663 -1.662215
