43 
296 
544 
802 
1044 
1278 
1520 
1771 
2036 
2246 
2498 
2736 
2903 
3002 
3219 
3476 
3746 
4010 
4293 
4553 
4837 
5125 
5411 
5675 
5939 
6205 
6479 
6755 
7030 
7123 
7222 
7323 
7549 
7720 
7819 
8127 
8387 
8639 
8879 
9124 
9393 
9685 
9990 
10271 
10541 
10806 
11088 
11373 
11647 
11920 
12186 
12452 
12733 
13019 
13274 
13531 
13793 
14063 
14348 
14583 
14877 
15139 
15397 
15666 
15931 
16192 
16473 
16773 
17074 
17371 
17653 
17925 
18199 
18465 
18744 
19030 
19311 
19570 
19842 
20116 
20403 
20675 
20932 
21172 
21422 
21702 
22010 
22325 
22638 
22925 
23233 
23536 
23814 
24081 
24346 
24605 
24883 
25164 
25415 
25667 
25918 
26185 
26503 
26849 
27146 
27425 
27707 
27992 
28269 
28548 
28809 
29080 
29356 
29635 
29914 
30159 
30449 
30721 
31004 
31281 
31552 
31828 
32091 
32349 
32618 
32870 
33156 
33256 
33353 
33613 
33879 
34075 
34202 
34298 
34398 
34526 
34797 
34997 
35096 
35259 
35359 
35620 
35887 
36147 
36402 
36526 
36653 
36754 
36892 
36997 
37204 
37470 
37736 
37837 
37969 
38066 
38250 
38445 
38543 
38811 
39079 
39349 
39609 
39885 
40162 
40450 
40724 
40992 
41254 
41529 
41813 
41975 
42094 
42369 
42622 
42881 
43174 
43456 
43739 
44006 
44268 
44536 
44813 
45096 
45370 
45640 
45901 
46165 
46447 
46735 
46998 
47266 
47531 
47804 
48079 
48357 
48627 
48873 
49139 
49392 
49657 
49923 
50248 
50552 
50884 
51189 
51480 
51747 
52017 
52279 
52575 
52851 
53116 
53372 
53640 
53915 
54209 
54496 
54748 
55013 
55276 
55552 
55834 
55932 
56105 
56365 
56633 
56781 
56895 
57171 
57441 
57706 
57948 
58189 
58457 
58741 
59067 
59358 
59593 
59901 
59999 
60241 
60544 
60785 
60891 
61084 
61340 
61602 
61876 
62154 
62420 
62684 
62957 
63234 
63522 
63809 
64086 
64345 
64625 
64909 
65187 
65451 
65715 
65979 
66193 
66292 
66530 
66799 
67056 
67308 
67551 
67814 
68116 
68456 
68751 
69021 
69317 
69564 
69661 
69890 
70144 
70401 
70663 
70933 
71211 
71477 
71738 
71990 
72246 
72508 
72771 
73032 
73350 
73638 
73932 
74232 
74507 
74778 
75044 
75316 
75597 
75892 
76167 
76304 
76435 
76537 
76711 
76990 
77272 
77561 
77841 
78093 
78385 
78674 
78956 
79239 
79498 
79770 
80058 
80337 
80617 
80888 
81159 
81422 
81721 
81998 
82274 
82542 
82807 
83072 
83370 
83660 
83929 
84201 
84481 
84759 
85050 
85324 
85589 
85861 
86147 
86423 
86709 
86981 
87236 
87486 
87764 
88047 
88316 
88586 
88841 
89105 
89381 
89671 
89937 
90207 
90481 
90747 
91028 
91322 
91587 
91850 
92128 
92405 
92695 
92968 
93239 
93500 
93781 
94050 
94331 
94599 
94855 
95096 
95348 
95620 
95896 
96239 
96554 
96845 
97123 
97425 
97692 
97960 
98235 
98509 
98799 
99077 
99346 
99611 
99884 
100171 
100447 
100728 
100993 
101263 
101551 
101840 
102130 
102405 
102678 
102952 
103246 
103535 
103813 
104099 
104367 
104663 
104950 
105243 
105513 
105793 
106070 
106362 
106653 
106933 
107202 
107481 
107761 
108051 
108327 
108599 
108852 
109128 
109402 
109675 
109938 
110205 
110469 
110734 
111020 
111299 
111555 
111818 
112080 
112358 
112639 
112904 
113156 
113413 
113698 
114033 
114363 
114647 
114927 
115159 
115254 
115470 
115585 
115739 
116014 
116268 
116524 
116796 
117073 
117356 
117626 
117896 
118162 
118437 
118719 
118997 
119248 
119521 
119790 
120054 
120341 
120613 
120875 
121138 
121405 
121681 
121962 
122228 
122492 
122745 
122988 
123091 
123291 
123558 
123818 
124067 
124307 
124571 
124877 
125199 
125484 
125756 
126020 
126298 
126578 
126843 
127086 
127347 
127592 
127836 
128011 
128127 
128405 
128683 
128945 
129221 
129484 
129767 
130031 
130278 
130542 
130821 
131124 
131392 
131654 
131901 
132159 
132502 
132824 
133111 
133388 
133656 
133932 
134222 
134488 
134739 
135006 
135274 
135548 
135817 
136062 
136314 
136558 
136834 
137143 
137482 
137621 
138036 
138345 
138623 
138877 
139159 
139426 
139668 
139935 
140213 
140476 
140730 
141061 
141384 
141679 
141977 
142237 
142514 
142782 
143060 
143338 
143620 
143884 
144128 
144404 
144671 
144932 
145202 
145481 
145805 
146111 
146280 
146702 
146973 
147229 
147491 
147769 
148053 
148303 
148553 
148823 
149066 
149338 
149654 
149947 
150216 
150482 
150748 
151037 
151327 
151585 
151847 
152132 
152396 
152665 
152952 
153219 
153467 
153749 
154036 
154290 
154555 
154812 
155057 
155331 
155650 
156004 
156290 
156574 
156852 
157130 
157285 
157663 
157911 
158167 
158435 
158713 
159046 
159317 
159595 
159856 
160157 
160431 
160694 
160970 
161222 
161509 
161782 
162045 
162311 
162568 
162831 
163097 
163378 
163633 
163881 
164212 
164510 
164806 
165089 
165378 
165647 
165937 
166204 
166480 
166749 
167000 
167258 
167515 
167804 
168076 
168348 
168617 
168862 
169112 
169442 
169798 
170084 
170393 
170666 
170965 
171259 
171518 
171779 
172075 
172346 
172644 
172911 
173165 
173410 
173684 
173960 
174231 
174509 
174772 
175035 
175301 
175589 
175870 
176148 
176421 
176696 
176994 
177272 
177539 
177798 
178070 
178345 
178627 
178903 
179164 
179411 
179665 
179926 
180192 
180528 
180799 
181062 
181345 
181623 
181896 
182153 
182397 
182625 
182870 
183189 
183418 
183664 
183897 
184238 
184522 
184826 
185096 
185358 
185609 
185857 
186113 
186374 
186630 
186975 
187143 
187480 
187862 
188111 
188404 
188651 
188910 
189195 
189475 
189742 
190000 
190246 
190512 
190922 
191054 
191268 
191547 
191829 
192108 
192391 
192698 
192959 
193227 
193497 
193788 
194050 
194313 
194566 
194819 
195161 
195462 
195753 
196026 
196286 
196559 
196830 
197107 
197362 
197616 
197878 
198139 
198416 
198690 
198948 
199197 
199449 
199765 
200102 
200434 
200695 
200967 
201262 
201551 
201831 
202097 
202360 
202617 
202897 
203177 
203451 
203714 
203986 
204235 
204521 
204780 
205039 
205310 
205621 
205909 
206179 
206449 
206697 
206933 
207187 
207436 
207704 
207971 
208242 
208480 
208747 
209010 
209264 
209541 
209788 
210053 
210288 
210561 
210838 
211113 
211372 
211632 
211878 
212146 
212421 
212724 
213026 
213312 
213587 
213871 
214161 
214422 
214664 
214954 
215248 
215530 
215812 
216080 
216341 
216611 
216880 
217137 
217407 
217671 
218065 
218267 
218564 
218848 
219134 
219397 
219677 
219948 
220223 
220484 
220744 
221000 
221256 
221518 
221838 
222163 
222460 
222735 
223026 
223303 
223581 
223856 
224118 
224406 
224692 
224970 
225245 
225504 
225785 
226070 
226339 
226618 
226898 
227162 
227434 
227737 
228011 
228282 
228535 
228805 
229089 
229365 
229641 
229905 
230160 
230432 
230718 
230997 
231269 
231536 
231801 
232076 
232221 
232624 
232896 
233157 
233412 
233682 
233965 
234219 
234470 
234728 
234991 
235355 
235683 
235972 
236255 
236530 
236805 
237091 
237376 
237631 
237899 
238112 
238732 
238988 
239224 
239471 
239739 
240074 
240388 
240685 
240972 
241254 
241552 
241831 
242103 
242366 
242638 
242905 
243193 
243454 
243720 
243974 
244242 
244514 
244782 
245062 
245444 
245773 
246064 
246345 
246635 
246893 
247155 
247432 
247723 
247995 
248266 
248512 
248782 
249056 
249325 
249602 
249867 
250138 
250406 
250685 
250962 
251215 
251487 
251758 
252019 
252313 
252604 
252857 
253134 
253410 
253690 
253959 
254223 
254502 
254779 
255048 
255347 
255628 
255895 
256169 
256465 
256743 
257029 
257302 
257584 
257853 
258116 
258405 
258690 
258959 
259223 
259489 
259762 
260035 
260327 
260585 
260827 
261096 
261364 
261620 
261888 
262144 
262399 
262727 
263041 
263318 
263573 
263849 
264115 
264392 
264682 
264958 
265215 
265482 
265739 
266005 
266281 
266546 
266796 
267018 
267319 
267617 
267844 
268110 
268354 
268608 
268845 
269096 
269342 
269585 
269832 
270066 
270162 
270260 
270353 
270557 
270801 
271042 
271275 
271506 
271738 
271974 
272235 
272484 
272724 
272962 
273205 
273448 
273696 
273806 
273909 
274001 
274173 
274403 
274636 
274878 
275117 
275357 
275600 
275825 
275972 
276069 
276257 
276423 
276523 
276728 
276959 
277190 
277418 
277642 
277877 
278123 
278241 
278380 
278621 
278860 
279093 
279316 
279489 
279603 
279775 
280008 
280231 
280443 
280662 
280876 
281090 
281316 
281541 
281775 
281993 
282202 
282429 
282661 
282901 
283147 
283391 
283626 
283851 
284085 
284328 
284558 
284811 
285060 
285289 
285538 
285790 
286052 
286297 
286547 
286784 
287029 
287275 
287533 
287794 
288031 
288264 
288501 
288737 
289057 
289317 
289579 
289823 
290205 
290465 
290730 
290994 
291235 
291469 
291713 
291983 
292248 
292566 
292809 
293066 
293314 
293597 
294037 
294309 
294605 
294880 
295157 
295428 
295681 
295938 
296248 
296484 
296606 
296766 
296902 
297001 
297098 
297195 
297287 
297372 
297599 
297871 
298107 
298198 
298370 
298467 
298712 
298977 
299219 
299443 
299543 
299828 
300174 
300435 
300718 
300998 
301291 
301576 
301844 
302098 
302383 
302642 
302934 
303245 
303677 
303933 
304227 
304510 
304812 
305081 
305225 
305332 
305609 
305886 
306164 
306451 
306824 
307170 
307485 
307767 
308035 
308294 
308563 
308831 
309106 
309385 
309797 
310080 
310374 
310661 
310952 
311215 
311474 
311560 
312004 
312259 
312549 
312865 
313174 
313487 
313783 
314042 
314312 
314578 
314832 
315106 
315372 
315584 
315781 
315882 
316146 
316399 
316685 
316918 
317187 
317477 
317735 
317945 
318225 
318558 
318807 
319059 
319315 
319564 
319841 
320100 
320352 
320591 
320757 
320857 
320941 
321077 
321331 
321561 
321664 
321833 
322073 
322306 
322543 
322802 
323052 
323292 
323534 
323771 
324005 
324248 
324504 
324750 
324976 
325143 
325224 
325487 
325731 
325985 
326235 
326471 
326703 
326942 
327191 
327446 
327692 
327957 
328190 
328448 
328687 
328948 
329187 
329435 
329661 
329889 
330122 
330384 
330624 
330874 
331116 
331360 
331590 
331829 
332080 
332322 
332550 
332777 
333002 
333235 
333468 
333721 
333954 
334205 
334438 
334673 
334903 
335154 
335389 
335625 
335848 
336064 
336277 
336521 
336752 
336975 
337208 
337433 
337654 
337887 
338127 
338368 
338601 
338827 
339054 
339262 
339504 
339748 
340000 
340233 
340462 
340706 
340933 
341174 
341432 
341678 
341923 
342147 
342395 
342636 
342878 
343131 
343371 
343595 
343825 
344068 
344305 
344545 
344783 
345012 
345243 
345472 
345717 
345965 
346205 
346435 
346672 
346911 
347133 
347382 
347638 
347876 
348130 
348374 
348622 
348862 
348994 
349382 
349612 
349837 
350068 
350298 
350529 
350772 
350998 
351199 
351412 
351648 
351878 
352128 
352365 
352604 
352815 
353047 
353260 
353514 
353759 
353996 
354227 
354454 
354682 
354916 
355153 
355399 
355627 
355846 
356063 
356299 
356540 
356788 
357031 
357256 
357491 
357740 
357975 
358228 
358485 
358720 
358964 
359194 
359443 
359688 
359940 
360197 
360432 
360662 
360918 
361183 
361430 
361677 
361920 
362158 
362391 
362510 
362890 
363146 
363368 
363605 
363845 
364076 
364335 
364592 
364826 
365077 
365304 
365574 
365836 
366091 
366351 
366590 
366839 
367074 
367348 
367613 
367860 
368103 
368368 
368603 
368873 
369122 
369365 
369604 
369863 
370089 
370333 
370615 
370852 
371109 
371361 
371596 
371883 
372158 
372415 
372688 
372946 
373177 
373449 
373696 
373969 
374205 
374326 
374709 
374974 
375215 
375482 
375638 
376001 
376133 
376440 
376716 
376957 
377218 
377470 
377698 
377965 
378233 
378479 
378735 
378989 
379250 
379514 
379780 
380034 
380304 
380559 
380795 
381066 
381317 
381570 
381837 
382062 
382324 
382586 
382835 
383108 
383366 
383600 
383847 
384091 
384349 
384619 
384865 
385104 
385359 
385614 
385859 
386120 
386389 
386625 
386903 
387162 
387432 
387700 
387943 
388202 
388452 
388739 
388985 
389264 
389507 
389754 
390004 
390305 
390591 
390862 
391127 
391390 
391632 
391929 
392201 
392450 
392736 
392971 
393305 
393640 
393926 
394187 
394450 
394716 
394984 
395268 
395523 
395773 
396083 
396409 
396713 
397001 
397273 
397542 
397792 
398099 
398387 
398663 
398925 
399187 
399445 
399753 
400038 
400316 
400577 
400844 
401113 
401385 
401665 
401925 
402181 
402441 
402703 
402955 
403212 
403460 
403721 
403975 
404286 
404593 
404848 
405123 
405387 
405637 
405913 
406152 
406402 
406671 
406919 
407212 
407479 
407716 
407972 
408212 
408452 
408718 
409007 
409249 
409521 
409784 
410028 
410321 
410577 
410850 
411092 
411351 
411613 
411858 
412141 
412385 
412636 
412875 
412993 
413350 
413596 
413824 
414093 
414320 
414561 
414803 
415091 
415330 
415566 
415834 
416061 
416304 
416592 
416846 
417090 
417363 
417621 
417856 
418140 
418392 
418653 
418874 
419126 
419371 
419643 
419891 
420135 
420385 
420613 
420856 
421131 
421373 
421640 
421875 
422127 
422383 
422628 
422903 
423148 
423326 
423867 
424125 
424382 
424630 
424817 
425071 
425299 
425616 
425872 
426158 
426405 
426651 
426877 
427139 
427441 
427669 
427914 
428157 
428408 
428678 
428938 
429189 
429438 
429665 
429918 
430174 
430439 
430689 
430933 
431178 
431411 
431654 
431906 
432156 
432387 
432610 
432838 
432945 
433043 
433140 
433292 
433529 
433744 
433844 
433985 
434197 
434342 
434434 
434648 
434891 
435109 
435236 
435346 
435553 
435733 
435821 
435986 
436171 
436254 
436432 
436525 
436648 
436866 
437080 
437255 
437344 
437450 
437547 
437713 
437957 
438181 
438325 
438424 
438633 
438857 
439077 
439296 
439526 
439733 
439871 
439967 
440067 
440169 
440324 
440537 
440772 
440991 
441200 
441421 
441625 
441718 
441815 
441916 
442013 
442156 
442253 
442436 
442567 
442670 
442767 
442864 
443079 
443279 
443394 
443482 
443590 
443687 
443893 
444120 
444260 
444360 
444547 
444753 
444850 
444959 
445162 
445289 
445392 
445489 
445586 
445683 
445798 
445896 
445993 
446090 
446185 
446284 
446459 
446556 
446653 
446858 
447083 
447306 
447514 
447739 
447948 
448152 
448278 
448375 
448587 
448801 
448929 
449028 
449257 
449447 
449671 
449875 
450087 
450319 
450538 
450762 
450974 
451178 
451381 
451609 
451822 
452044 
452272 
452492 
452705 
452920 
453143 
453373 
453597 
453820 
454031 
454262 
454477 
454691 
454928 
455172 
455388 
455607 
455814 
456054 
456292 
456523 
456623 
456785 
456911 
457012 
457244 
457483 
457708 
457935 
458176 
458413 
458632 
458792 
458887 
459047 
459284 
459384 
459481 
459580 
459736 
459978 
460203 
460425 
460650 
460883 
461025 
461131 
461351 
461562 
461780 
461906 
462006 
