23 
199 
423 
617 
844 
994 
1201 
1355 
1556 
1749 
1923 
2127 
2284 
2445 
2734 
3029 
3243 
3473 
3688 
3948 
4144 
4295 
4505 
4742 
5049 
5240 
5533 
5826 
5994 
6195 
6380 
6555 
6772 
7014 
7265 
7476 
7660 
7826 
8006 
8195 
8383 
8624 
8768 
9022 
9241 
9456 
9663 
9842 
10042 
10237 
10398 
10627 
10817 
11065 
11254 
11431 
11622 
11804 
11998 
12214 
12409 
12609 
12781 
12993 
13190 
13350 
13620 
13823 
14084 
14230 
14408 
14673 
14881 
15046 
15344 
15518 
15665 
15844 
16021 
16229 
16380 
16592 
16792 
16967 
17216 
17350 
17586 
17775 
17985 
18131 
18355 
18548 
18788 
18939 
19147 
19310 
19524 
19664 
19888 
20115 
20251 
20455 
20670 
20860 
21033 
21208 
21357 
21589 
21800 
22008 
22163 
22353 
22546 
22727 
22944 
23192 
23448 
23622 
23856 
24057 
24255 
24459 
24627 
24756 
25027 
25197 
25328 
25520 
25763 
25898 
26155 
26334 
26549 
26767 
26931 
27138 
27297 
27498 
27680 
27886 
28093 
28252 
28446 
28664 
28887 
29137 
29310 
29496 
29803 
30013 
30172 
30488 
30632 
30863 
31057 
31293 
31453 
31657 
31883 
32126 
32312 
32468 
32627 
32792 
33014 
33256 
33489 
33721 
33876 
34093 
34286 
34482 
34677 
34907 
35090 
35244 
35405 
35635 
35907 
36069 
36330 
36512 
36753 
36977 
37176 
37383 
37644 
37872 
38105 
38275 
38457 
38602 
38836 
39034 
39211 
39401 
39609 
39760 
40022 
40221 
40449 
40628 
40804 
41017 
41185 
41359 
41498 
41703 
41908 
42119 
42390 
42557 
42791 
42982 
43187 
43377 
43613 
43848 
44011 
44223 
44387 
44595 
44805 
44921 
45199 
45430 
45590 
45770 
45993 
46202 
46479 
46675 
46893 
47144 
47310 
47514 
47704 
47930 
48135 
48265 
48491 
48659 
48855 
49032 
49205 
49398 
49607 
49812 
49998 
50184 
50414 
50653 
50874 
51057 
51266 
51512 
51710 
51975 
52126 
52348 
52525 
52695 
52894 
53070 
53273 
53515 
53706 
53894 
54107 
54318 
54521 
54687 
54890 
55088 
55240 
55423 
55619 
55797 
56007 
56136 
56425 
56601 
56775 
57009 
57202 
57392 
57606 
57856 
58125 
58312 
58501 
58663 
58868 
59123 
59254 
59504 
59695 
59919 
60137 
60327 
60484 
60683 
60834 
61064 
61281 
61475 
61635 
61861 
62135 
62328 
62507 
62721 
62923 
63068 
63304 
63496 
63679 
63897 
64121 
64400 
64618 
64861 
65018 
65158 
65309 
65619 
65813 
65961 
66140 
66354 
66555 
66728 
66902 
67048 
67269 
67516 
67723 
67922 
68153 
68353 
68570 
68856 
69013 
69216 
69418 
69616 
69840 
69987 
70209 
70351 
70561 
70768 
70964 
71128 
71371 
71519 
71709 
71873 
72056 
72214 
72484 
72746 
72914 
73114 
73296 
73524 
73720 
73876 
74094 
74248 
74441 
74662 
74833 
75025 
75180 
75385 
75602 
75792 
76064 
76301 
76519 
76728 
76917 
77078 
77739 
77991 
78215 
78387 
78646 
78880 
79106 
79326 
79544 
79763 
79956 
80219 
80434 
80658 
80875 
81094 
81303 
81540 
81740 
81978 
82185 
82422 
82626 
82861 
83272 
83482 
83687 
83896 
84080 
84276 
84442 
84653 
84866 
85076 
85273 
85440 
85644 
85839 
86007 
86228 
86456 
86636 
86867 
87087 
87317 
87446 
87652 
87897 
88108 
88266 
88476 
88693 
88856 
89070 
89257 
89486 
89657 
89829 
90000 
90161 
90330 
90547 
90747 
90882 
91086 
91278 
91467 
91637 
91833 
92075 
92275 
92479 
92671 
92876 
93111 
93305 
93541 
93751 
93928 
94091 
94301 
94561 
94724 
94955 
95148 
95328 
95493 
95630 
95949 
96108 
96301 
96521 
96667 
96864 
97055 
97220 
97409 
97625 
97841 
98010 
98200 
98387 
98599 
98787 
98965 
99163 
99363 
99578 
99785 
100021 
100165 
100381 
100602 
100785 
101035 
101202 
101391 
101559 
101806 
101987 
102141 
102349 
102545 
102697 
102901 
103060 
103243 
103412 
103583 
103757 
104011 
104233 
104407 
104573 
104745 
104937 
105073 
105280 
105478 
105806 
105995 
106229 
106382 
106563 
106784 
106989 
107169 
107343 
107582 
107774 
107937 
108118 
108278 
108470 
108630 
108822 
108976 
109196 
109401 
109563 
109782 
109973 
110135 
110265 
110490 
110676 
110839 
111033 
111229 
111428 
111633 
111836 
112059 
112273 
112478 
112688 
112907 
113077 
113297 
113509 
113726 
113927 
114135 
114312 
114483 
114680 
114902 
115080 
115297 
115505 
115712 
115940 
116128 
116347 
116676 
116849 
117134 
117366 
117688 
117893 
118123 
118297 
118495 
118717 
118917 
119141 
119344 
119561 
119772 
120062 
120217 
120392 
120582 
120786 
120993 
121194 
121401 
121613 
121817 
122001 
122233 
122449 
122630 
122907 
123128 
123302 
123463 
123716 
123902 
124133 
124297 
124473 
124702 
124907 
125119 
125329 
125512 
125709 
125942 
126075 
126337 
126550 
126690 
126902 
127134 
127350 
127560 
127747 
127972 
128156 
128367 
128581 
128815 
129008 
129220 
129421 
129634 
129798 
130000 
130264 
130687 
130897 
131107 
131312 
131501 
131697 
131894 
132109 
132371 
132615 
132781 
132934 
133142 
133343 
133531 
133717 
133892 
134072 
134202 
134399 
134549 
134721 
134925 
135115 
135355 
135681 
135899 
136209 
136481 
136689 
136906 
137047 
137256 
137462 
137650 
137801 
138048 
138189 
138379 
138585 
138790 
138922 
139195 
139410 
139539 
139798 
140016 
140238 
140458 
140663 
140875 
141031 
141232 
141433 
141615 
141782 
142026 
142272 
142458 
142661 
142867 
143019 
143190 
143422 
143667 
143897 
144109 
144342 
144555 
144759 
144985 
145188 
145394 
145617 
145820 
146019 
146179 
146342 
146547 
146780 
146942 
147139 
147321 
147486 
147694 
147909 
148110 
148296 
148445 
148624 
148809 
149009 
149206 
149405 
149604 
149761 
150008 
150208 
150407 
150596 
150814 
151012 
151177 
151415 
151627 
151831 
152010 
152194 
152411 
152652 
152845 
153052 
153261 
153447 
153597 
153767 
153959 
154159 
154328 
154485 
154669 
154865 
155036 
155331 
155554 
155810 
156068 
156198 
156465 
156608 
156800 
157010 
157185 
157322 
157520 
157715 
157897 
158096 
158272 
158457 
158618 
158823 
158951 
159173 
159398 
159576 
159780 
159971 
160182 
160329 
160540 
160744 
160902 
161112 
161278 
161465 
161674 
161875 
162095 
162284 
162441 
162637 
162827 
163022 
163152 
163357 
163543 
163714 
163911 
164058 
164305 
164456 
164710 
164967 
165124 
165294 
165491 
165702 
165953 
166223 
166420 
166574 
166788 
167040 
167196 
167398 
167671 
167934 
168130 
168347 
168534 
168699 
168874 
169063 
169224 
169408 
169637 
169837 
170034 
170292 
170487 
170703 
170932 
171154 
171351 
171574 
171757 
171958 
172171 
172398 
172555 
172752 
172952 
173142 
173379 
173579 
173792 
173973 
174153 
174327 
174567 
174793 
175041 
175232 
175456 
175738 
175917 
176073 
176295 
176491 
176637 
176870 
177077 
177323 
177502 
177697 
177938 
178310 
178515 
178708 
178934 
179112 
179277 
179498 
179693 
179852 
179982 
180261 
180413 
180668 
180816 
180979 
181162 
181351 
181513 
181718 
181899 
182108 
182309 
182485 
182653 
182973 
183174 
183332 
183545 
183739 
183937 
184103 
184304 
184452 
184685 
184858 
185063 
185281 
185438 
185656 
185818 
186059 
186291 
186516 
186704 
186953 
187179 
187327 
187568 
187726 
187949 
188095 
188320 
188544 
188760 
188904 
189125 
189291 
189530 
189864 
190023 
190221 
190389 
190582 
190731 
190884 
191125 
191334 
191553 
191753 
191915 
192097 
192320 
192537 
192679 
192927 
193115 
193285 
193492 
193648 
193865 
194077 
194272 
194460 
194633 
194802 
195039 
195275 
195459 
195677 
195906 
196140 
196329 
196502 
196758 
196951 
197190 
197330 
197573 
197718 
197916 
198103 
198240 
198418 
198576 
198797 
198988 
199224 
199438 
199718 
199919 
200105 
200285 
200557 
200761 
200985 
201184 
201415 
201659 
201845 
201985 
202213 
202360 
202584 
202792 
202949 
203090 
203279 
203471 
203676 
203831 
204034 
204188 
204518 
204746 
204953 
205124 
205333 
205556 
205749 
205985 
206190 
206391 
206578 
206741 
206936 
207152 
207314 
207535 
207755 
207995 
208229 
208484 
208670 
208838 
209013 
209214 
209400 
209625 
209859 
210013 
210244 
210434 
210660 
210846 
211023 
211237 
211441 
211609 
211771 
211959 
212327 
212480 
212748 
212888 
213152 
213377 
214033 
214269 
214444 
214700 
215095 
215308 
215556 
215758 
215996 
216437 
216649 
216868 
217079 
217278 
217660 
217886 
218118 
218314 
218527 
218701 
218893 
219082 
219263 
219423 
219614 
219828 
219993 
220193 
220404 
220623 
220858 
221095 
221304 
221463 
221651 
221812 
222006 
222217 
222358 
222534 
222728 
222861 
223094 
223386 
223540 
223718 
223881 
224103 
224242 
224441 
224639 
224796 
224974 
225149 
225317 
225545 
225684 
225910 
226107 
226307 
226492 
226672 
226897 
227075 
227283 
227494 
227685 
227868 
228032 
228218 
228437 
228846 
229080 
229481 
229710 
230106 
230320 
230720 
230928 
231315 
231523 
231900 
232131 
232335 
232528 
232720 
232901 
233100 
233252 
233464 
233615 
233854 
234048 
234199 
234387 
234574 
234742 
234974 
235200 
235597 
235821 
236209 
236420 
236811 
237016 
237414 
237618 
237996 
238209 
238594 
238802 
239191 
239407 
239787 
240001 
240378 
240583 
240971 
241176 
241384 
241573 
241997 
242218 
242618 
242831 
243212 
243423 
243803 
244009 
244386 
244599 
244977 
245187 
245572 
245770 
246052 
246446 
246658 
247044 
247257 
247629 
248028 
248233 
248604 
248819 
249197 
249404 
249788 
250178 
250387 
250767 
250972 
251356 
251736 
251953 
252326 
252541 
252917 
253127 
253494 
253701 
254070 
254283 
254661 
254879 
255248 
255466 
255853 
256229 
256614 
256986 
257194 
257562 
257772 
258146 
258540 
258743 
259115 
259506 
259645 
259896 
260284 
260484 
260856 
261065 
261434 
261644 
262018 
262408 
262791 
263174 
263315 
263563 
263947 
264153 
264531 
264913 
265306 
265509 
265874 
266073 
266284 
266491 
266698 
266913 
267132 
267527 
267925 
268313 
268592 
268769 
268908 
269097 
269232 
269385 
269576 
269752 
269931 
270134 
270298 
270496 
270665 
270836 
271156 
271393 
271613 
271835 
272053 
272275 
272495 
272709 
273105 
273323 
273539 
273755 
273975 
274192 
274409 
274626 
274845 
275069 
275450 
275850 
276235 
276452 
276665 
276887 
277257 
277483 
277700 
277835 
278032 
278298 
278698 
279084 
279482 
279865 
280249 
280462 
280666 
281064 
281272 
281639 
281854 
282227 
282440 
282659 
283038 
283251 
283627 
283846 
284060 
284266 
284647 
285033 
285420 
285774 
285987 
286226 
286412 
286574 
286734 
286912 
287082 
287229 
287439 
287631 
287884 
288137 
288349 
288518 
288691 
288827 
289024 
289175 
289348 
289573 
289756 
289917 
290127 
290271 
290479 
290654 
290833 
291050 
291253 
291462 
291636 
291806 
292027 
292276 
292504 
292723 
292867 
293116 
293263 
293496 
293886 
294113 
294326 
294542 
294752 
294979 
295204 
295425 
295677 
295889 
296114 
296345 
296569 
296797 
297205 
297602 
297828 
298047 
298262 
298483 
298702 
298923 
299333 
299735 
300125 
300518 
300901 
301117 
301335 
301544 
301922 
302144 
302356 
302574 
302788 
303008 
303230 
303620 
304019 
304407 
304803 
304939 
305189 
305577 
305787 
305992 
306201 
306417 
306627 
306842 
307065 
307293 
307522 
307927 
308337 
308566 
308783 
309005 
309379 
309597 
309815 
310037 
310416 
310819 
311205 
311344 
311601 
311739 
311988 
312119 
312286 
312449 
312753 
312959 
313125 
313290 
313488 
313693 
313890 
314045 
314255 
314480 
314685 
314873 
315034 
315258 
315482 
315677 
315865 
316048 
316266 
316481 
316696 
316934 
317101 
317289 
317450 
317638 
317822 
318039 
318221 
318472 
318692 
318853 
319047 
319272 
319496 
319728 
319928 
320079 
320294 
320491 
320806 
321052 
321247 
321416 
321578 
321764 
321908 
322170 
322394 
322583 
322824 
323198 
323402 
323537 
323707 
323881 
324033 
324236 
324475 
324635 
324790 
325024 
325224 
325417 
325640 
325811 
326007 
326228 
326422 
326599 
326805 
327033 
327181 
327390 
327593 
327758 
327972 
328173 
328353 
328569 
328783 
328944 
329136 
329306 
329531 
329713 
329871 
330072 
330251 
330479 
330715 
330972 
331244 
331458 
331644 
331855 
332055 
332210 
332398 
332610 
332809 
333033 
333186 
333390 
333603 
333824 
334099 
334330 
334528 
334737 
334893 
335148 
335394 
335621 
335815 
336048 
336227 
336409 
336573 
336728 
336951 
337136 
337291 
337552 
337746 
337911 
338123 
338320 
338463 
338687 
338892 
339098 
339250 
339512 
339738 
339967 
340094 
340306 
340522 
340743 
340935 
341098 
341323 
342110 
342343 
342542 
342750 
343134 
343338 
343717 
343926 
344315 
344522 
344871 
345162 
345570 
345784 
346167 
346374 
346766 
346972 
347360 
347571 
347951 
348160 
348551 
348756 
349134 
349347 
349727 
349935 
350321 
350718 
350934 
351300 
351514 
351897 
352103 
352482 
352698 
353065 
353457 
353608 
353857 
353990 
354252 
354657 
355049 
355449 
355839 
355980 
356236 
356369 
356626 
356761 
356978 
357142 
357309 
357518 
357666 
357888 
358090 
358246 
358464 
358689 
358931 
359141 
359344 
359638 
359836 
360010 
360176 
360322 
360535 
360745 
360989 
361177 
361359 
361577 
361802 
361994 
362161 
362378 
362573 
362735 
362905 
363087 
363289 
363610 
363820 
364039 
364189 
364393 
364600 
364779 
364958 
365154 
365361 
365596 
365831 
366001 
366202 
366441 
366672 
366856 
366995 
367249 
367445 
367585 
367818 
368060 
368282 
368537 
368769 
368997 
369183 
369353 
369570 
369820 
370060 
370272 
370475 
370647 
370789 
371035 
371263 
371449 
371591 
371820 
372023 
372223 
372430 
372577 
372756 
372971 
373146 
373329 
373520 
373751 
373905 
374056 
374287 
374521 
374750 
375024 
375223 
375395 
375585 
375810 
376023 
376197 
376377 
376618 
376849 
377034 
377184 
377386 
377535 
377745 
377931 
378097 
378228 
378426 
378603 
378842 
378993 
379190 
379344 
379548 
379789 
379992 
380194 
380380 
380524 
380735 
380862 
381127 
381319 
381498 
381705 
381917 
382175 
382375 
382544 
382759 
382987 
383153 
383386 
383595 
383791 
383964 
384185 
384403 
384618 
384775 
385006 
385221 
385446 
385704 
385921 
386133 
386314 
386555 
386799 
386980 
387175 
387323 
387604 
387859 
388116 
388340 
388524 
388660 
388805 
389003 
389215 
389362 
389591 
389824 
390048 
390259 
390511 
390754 
390936 
391123 
391317 
391477 
391780 
391948 
392101 
392331 
392556 
392808 
393002 
393263 
393408 
393700 
393910 
394110 
394263 
394423 
394663 
394801 
394993 
395197 
395428 
395735 
395970 
396165 
396339 
396520 
396662 
396904 
397045 
397266 
397456 
397636 
397816 
398002 
398245 
398463 
398644 
398883 
399112 
399283 
399508 
399732 
399895 
400075 
400277 
400564 
400778 
401016 
401254 
401486 
401697 
401853 
401997 
402152 
402336 
402523 
402746 
403028 
403265 
403465 
403638 
403834 
404030 
404277 
404510 
404760 
404930 
405100 
405313 
405498 
405714 
405951 
406127 
406322 
406493 
406693 
406918 
407143 
407366 
407600 
407777 
407973 
408138 
408349 
408525 
408802 
409055 
409237 
409454 
409667 
409852 
409989 
410201 
410508 
410740 
410906 
411118 
411386 
411582 
411809 
411998 
412183 
412362 
412570 
412809 
413000 
413225 
413408 
413663 
413817 
414079 
414230 
414427 
414621 
414843 
414980 
415214 
415437 
415600 
415781 
415970 
416128 
416312 
416472 
416693 
416916 
417151 
417416 
417573 
417748 
417912 
418189 
418339 
418567 
418762 
418934 
419163 
419360 
419518 
419722 
419931 
420147 
420335 
420531 
420694 
420919 
421175 
421414 
421626 
421841 
422052 
422306 
422517 
422703 
422911 
423127 
423377 
423597 
423776 
423987 
424233 
424458 
424625 
424899 
425092 
425275 
425430 
425613 
425814 
425970 
426165 
426346 
426549 
426684 
426897 
427194 
427433 
427648 
427854 
428046 
428281 
428468 
428664 
428869 
429016 
429256 
429480 
429678 
429919 
430110 
430411 
430611 
430821 
431040 
431195 
431393 
431579 
431916 
432191 
432409 
432642 
432796 
433021 
433331 
433551 
433738 
433939 
434175 
434379 
434617 
434800 
435015 
435250 
435448 
435719 
435873 
436058 
436254 
436469 
436675 
436882 
437094 
437356 
437579 
437756 
437906 
438102 
438304 
438517 
438735 
438936 
439127 
439307 
439621 
439799 
439969 
440182 
440393 
440606 
440798 
441045 
441263 
441400 
441636 
441792 
441985 
442136 
442316 
442502 
442662 
442864 
443042 
443239 
443469 
443662 
443873 
444079 
444299 
444507 
444707 
444933 
445069 
445301 
445509 
445715 
445931 
446089 
446321 
446558 
446706 
446974 
447113 
447308 
447508 
447704 
447867 
448021 
448235 
448460 
448670 
448875 
449086 
449297 
449514 
449719 
449927 
450143 
450349 
450557 
450766 
450971 
451135 
451338 
451536 
451835 
452050 
452205 
452392 
452584 
452813 
453011 
453322 
453538 
453752 
453934 
454210 
454379 
454536 
454797 
454959 
455218 
455430 
455659 
455867 
456020 
456284 
456503 
456741 
456950 
457120 
457373 
457533 
457694 
457929 
458183 
458403 
458604 
458814 
458970 
459192 
459410 
459542 
459763 
459957 
460178 
460387 
460701 
460878 
461069 
461277 
461380 
461621 
461816 
462022 
