4.1171875 1.07057 0.851936 -0.218634
4.9375 0.925127 0.721803 -0.203324
5.7578125 0.928835 0.779304 -0.149531
6.48828125 1.0550739999999998 0.88818 -0.166894
7.34765625 0.827832 0.410995 -0.416837
8.16796875 0.8046 0.375043 -0.429557
8.86328125 0.8927550000000001 0.612755 -0.28
9.78125 0.852809 0.733858 -0.118951
10.53515625 0.194509 0.099509 -0.095
11.4140625 0.851882 0.779848 -0.072034
12.234375 0.725936 0.621012 -0.104924
12.921875 0.246009 0.036296 -0.209713
13.8203125 0.797388 0.713947 -0.083441
14.54296875 0.757208 0.707208 -0.05
15.4765625 0.659219 0.470265 -0.188954
16.3671875 0.698905 0.488905 -0.21
17.203125 0.793837 0.668837 -0.125
18.0078125 0.526729 0.227321 -0.299408
18.8203125 0.649139 0.477458 -0.171681
19.53125 0.710582 0.560589 -0.149993
20.3671875 0.506974 0.255021 -0.251953
21.13671875 0.623615 0.398615 -0.225
21.9296875 0.5506530000000001 0.426505 -0.124148
22.77734375 0.544466 0.383897 -0.160569
23.5546875 0.561901 0.384141 -0.17776
24.33984375 0.504689 0.245364 -0.259325
25.12109375 0.524604 0.297104 -0.2275
25.81640625 0.60876 0.48376 -0.125
26.6796875 0.585329 0.28 -0.305329
27.546875 0.486512 0.044429 -0.442083
28.3203125 0.678605 0.433605 -0.245
29.2109375 0.606191 0.461652 -0.144539
29.84375 0.230735 -0.005625 -0.23636
30.7578125 0.68935 0.53935 -0.15
31.4375 0.24174 -0.012222 -0.253962
32.3359375 0.703121 0.559433 -0.143688
33.078125 0.626817 0.452119 -0.174698
34.00390625 0.525124 0.190153 -0.334971
34.8515625 0.655913 0.482167 -0.173746
35.61328125 0.5250980000000001 0.350244 -0.174854
36.3515625 0.22645699999999996 -0.063543 -0.29
37.23828125 0.7480070000000001 0.579142 -0.168865
37.984375 0.594556 0.456074 -0.138482
38.67578125 0.197966 -0.081369 -0.279335
39.58984375 0.618744 0.460525 -0.158219
40.421875 0.580082 0.380088 -0.199994
41.296875 0.580064 0.167949 -0.412115
42.05078125 0.688374 0.45398 -0.234394
42.84375 0.6679489999999999 0.41 -0.257949
43.6328125 0.6355679999999999 0.375833 -0.259735
44.3359375 0.75384 0.558886 -0.194954
45.20703125 0.629869 0.349926 -0.279943
46.03125 0.873159 0.748159 -0.125
46.83203125 0.814297 0.684172 -0.130125
47.6328125 0.834783 0.640781 -0.194002
48.37109375 1.003364 0.845526 -0.157838
49.22265625 0.92269 0.615188 -0.307502
49.9921875 0.951507 0.70217 -0.249337
50.7109375 1.125281 0.779665 -0.345616
51.59375 1.060465 0.446764 -0.613701
52.39453125 1.0320719999999999 0.574863 -0.457209
53.20703125 1.027295 0.778501 -0.248794
53.9921875 0.9671050000000001 0.718188 -0.248917
54.7578125 1.0815649999999999 1.026565 -0.055
55.55859375 1.007345 0.824741 -0.182604
56.33984375 0.976639 0.51668 -0.459959
57.06640625 1.118997 0.924022 -0.194975
57.99609375 0.9960439999999999 0.889156 -0.106888
58.69921875 0.249823 0.159823 -0.09
59.60546875 1.051712 1.044881 -0.006831
60.37890625 0.981164 0.846275 -0.134889
61.23046875 0.877488 0.494735 -0.382753
61.9609375 1.092945 0.849929 -0.243016
62.73828125 1.043832 0.834746 -0.209086
63.64453125 0.8459620000000001 0.509808 -0.336154
64.453125 0.970507 0.807184 -0.163323
65.2109375 1.0101419999999999 0.87972 -0.130422
66.078125 0.89626 0.675546 -0.220714
66.8984375 0.939618 0.840607 -0.099011
67.63671875 1.01116 0.97497 -0.03619
68.42578125 0.966415 0.819885 -0.14653
69.2265625 0.972889 0.758089 -0.2148
70.05078125 0.883564 0.465 -0.418564
70.93359375 1.040492 0.815 -0.225492
71.68359375 1.0560749999999999 0.843621 -0.212454
72.57421875 1.065057 0.674549 -0.390508
73.3359375 1.022862 0.849721 -0.173141
74.11328125 0.9553389999999999 0.691087 -0.264252
74.96484375 0.852048 0.500985 -0.351063
75.78125 1.00772 0.94993 -0.05779
76.6796875 0.868082 0.778682 -0.0894
77.48046875 0.465501 0.174365 -0.291136
78.30859375 1.047206 0.877637 -0.169569
79.05078125 1.010499 0.740787 -0.269712
79.91015625 0.871928 0.450728 -0.4212
80.6875 0.96856 0.764122 -0.204438
81.51171875 1.015618 0.831575 -0.184043
82.40234375 0.967974 0.724402 -0.243572
83.20703125 0.9454800000000001 0.751909 -0.193571
83.97265625 1.00458 0.779425 -0.225155
84.84765625 0.922607 0.622607 -0.3
85.625 0.969937 0.77 -0.199937
86.359375 1.0270270000000001 0.807027 -0.22
87.21875 0.8743400000000001 0.54 -0.33434
88.0390625 1.019199 0.864373 -0.154826
88.83984375 0.91445 0.773965 -0.140485
89.65625 0.7966500000000001 0.438525 -0.358125
90.46875 0.950894 0.706275 -0.244619
91.18359375 0.959295 0.724671 -0.234624
92.01953125 0.96568 0.776079 -0.189601
92.75390625 0.847328 0.649767 -0.197561
93.609375 0.995935 0.800935 -0.195
94.4296875 0.8351839999999999 0.529887 -0.305297
95.25390625 1.015584 0.815597 -0.199987
96.08984375 0.928721 0.722707 -0.206014
96.94140625 0.954282 0.38942 -0.564862
97.75390625 1.121551 0.899754 -0.221797
98.56640625 0.977296 0.787317 -0.189979
99.44921875 0.959393 0.801092 -0.158301
100.33984375 0.8856660000000001 0.690752 -0.194914
101.20703125 1.078727 1.069709 -0.009018
102.0625 0.899396 0.709712 -0.189684
102.9375 0.8756740000000001 0.531803 -0.343871
103.6640625 1.131226 0.954731 -0.176495
104.5390625 1.078095 0.884539 -0.193556
105.4453125 0.788103 0.34726 -0.440843
106.33203125 1.020143 0.844384 -0.175759
107.23046875 1.029717 0.949774 -0.079943
108.09765625 0.8804219999999999 0.530422 -0.35
108.94921875 1.0054400000000001 0.870982 -0.134458
109.7890625 1.124349 1.049349 -0.075
110.60546875 0.709905 0.504905 -0.205
111.49609375 0.86117 0.68157 -0.1796
112.3984375 0.91675 0.712363 -0.204387
113.2578125 0.733204 0.264244 -0.46896
113.99609375 0.9312849999999999 0.792303 -0.138982
114.89453125 0.8747609999999999 0.624875 -0.249886
115.73828125 0.743986 0.494148 -0.249838
116.51171875 0.998954 0.755783 -0.243171
117.4140625 0.664248 0.474717 -0.189531
118.265625 0.74994 0.42 -0.32994
119.0625 0.666348 0.589091 -0.077257
119.9375 0.4477 0.293661 -0.154039
120.7421875 0.662995 0.713151 0.050156
121.5078125 0.601612 0.678161 0.076549
122.34765625 0.46861699999999995 0.328821 -0.139796
123.1640625 0.64 0.63 -0.01
124.0 0.5948060000000001 0.53 -0.064806
124.890625 0.46417200000000003 0.20938 -0.254792
125.6640625 0.6985880000000001 0.589891 -0.108697
126.47265625 0.649838 0.521567 -0.128271
127.3046875 0.5140979999999999 0.229661 -0.284437
128.03515625 0.647435 0.514466 -0.132969
128.8203125 0.6463369999999999 0.471337 -0.175
129.671875 0.55165 0.214214 -0.337436
130.49609375 0.684204 0.490155 -0.194049
131.29296875 0.5952 0.3452 -0.25
132.08203125 0.516546 0.192469 -0.324077
132.8203125 0.675421 0.505167 -0.170254
133.609375 0.5801940000000001 0.325703 -0.254491
134.3828125 0.694302 0.554806 -0.139496
135.12890625 0.627611 0.562675 -0.064936
136.01171875 0.6741360000000001 0.525 -0.149136
136.7734375 0.5669660000000001 0.306966 -0.26
137.56640625 0.514346 0.224593 -0.289753
138.35546875 0.685592 0.514938 -0.170654
139.1328125 0.545342 0.342023 -0.203319
139.96875 0.506209 0.140878 -0.365331
140.7109375 0.620611 0.379678 -0.240933
141.5546875 0.624703 0.419703 -0.205
142.2890625 0.153831 -0.060948 -0.214779
143.234375 0.670832 0.581027 -0.089805
144.0 0.599975 0.555 -0.044975
144.8828125 0.518119 0.428796 -0.089323
145.546875 0.205826 -0.0129 -0.218726
146.40625 0.643802 0.58913 -0.054672
147.32421875 0.657251 0.55915 -0.098101
148.03125 0.179208 0.020597 -0.158611
148.9921875 0.7559790000000001 0.775483 0.019504
149.7890625 0.694714 0.579535 -0.115179
150.65625 0.579871 0.163938 -0.415933
151.3828125 0.8214750000000001 0.611832 -0.209643
152.2578125 0.7911969999999999 0.581934 -0.209263
153.08203125 0.628283 0.124179 -0.504104
153.88671875 0.809799 0.608549 -0.20125
154.78515625 0.721754 0.61962 -0.102134
155.49609375 0.210032 -0.128336 -0.338368
156.43359375 0.78459 0.66459 -0.12
157.23046875 0.786545 0.699017 -0.087528
158.06640625 0.702575 0.385865 -0.31671
158.8125 0.8888900000000001 0.749063 -0.139827
159.66796875 0.950766 0.831725 -0.119041
160.53125 0.811311 0.488558 -0.322753
161.37109375 0.978496 0.789954 -0.188542
162.15234375 0.939429 0.812564 -0.126865
163.015625 0.830839 0.432853 -0.397986
163.75390625 0.922774 0.750102 -0.172672
164.5703125 0.869638 0.704638 -0.165
165.4140625 0.76926 0.414349 -0.354911
166.26171875 1.016645 0.782951 -0.233694
167.03125 0.938777 0.625831 -0.312946
167.9140625 1.055068 0.828927 -0.226141
168.65625 0.96905 0.619912 -0.349138
169.51953125 1.014885 0.77985 -0.235035
170.265625 0.989576 0.780838 -0.208738
171.08984375 0.970736 0.782787 -0.187949
171.91015625 0.9666619999999999 0.677924 -0.288738
172.7578125 1.013249 0.759145 -0.254104
173.5625 0.93313 0.662593 -0.270537
174.4296875 0.695911 0.3137 -0.382211
175.21484375 1.050407 0.769646 -0.280761
176.0 0.9824930000000001 0.615 -0.367493
176.85546875 0.958765 0.693765 -0.265
177.66015625 1.036012 0.895669 -0.140343
178.58203125 0.939177 0.848264 -0.090913
179.44140625 0.887217 0.688369 -0.198848
180.30078125 0.809987 0.480728 -0.329259
181.12890625 0.815569 0.48062 -0.334949
181.984375 0.976367 0.839014 -0.137353
182.828125 0.784025 0.475915 -0.30811
183.70703125 0.928851 0.783851 -0.145
184.51171875 0.914728 0.697081 -0.217647
185.41796875 0.8731070000000001 0.533966 -0.339141
186.2734375 0.896764 0.605645 -0.291119
187.01953125 0.9992000000000001 0.8192 -0.18
187.91015625 0.931045 0.436045 -0.495
188.65234375 1.059568 0.799568 -0.26
189.5 0.995527 0.785 -0.210527
190.3984375 0.923503 0.663335 -0.260168
191.23046875 0.889181 0.724975 -0.164206
192.0546875 0.744638 0.224639 -0.519999
192.875 0.9749999999999999 0.69 -0.285
193.58984375 0.910636 0.620761 -0.289875
194.45703125 0.8930669999999999 0.374552 -0.518515
195.2578125 0.862649 0.429811 -0.432838
196.08984375 0.993328 0.823412 -0.169916
196.99609375 0.8559939999999999 0.525354 -0.33064
197.796875 1.013174 0.893174 -0.12
198.52734375 0.955325 0.821087 -0.134238
199.390625 0.777621 0.400384 -0.377237
200.15625 0.850837 0.660951 -0.189886
200.9453125 0.788094 0.654484 -0.13361
201.796875 0.523072 0.169911 -0.353161
202.61328125 0.618582 0.488642 -0.12994
203.41796875 0.658878 0.407861 -0.251017
204.2890625 0.638997 0.469734 -0.169263
205.015625 0.6687700000000001 0.59877 -0.07
205.87109375 0.607413 0.373105 -0.234308
206.6484375 0.621209 0.34649 -0.274719
207.39453125 0.7534259999999999 0.639995 -0.113431
208.3359375 0.8835930000000001 0.679073 -0.20452
209.2578125 0.763305 0.471066 -0.292239
210.09375 0.718957 0.233957 -0.485
210.88671875 0.8757739999999999 0.562456 -0.313318
211.6484375 0.8975709999999999 0.667464 -0.230107
212.4453125 0.8218939999999999 0.626894 -0.195
213.26953125 0.872475 0.689975 -0.1825
214.12109375 0.7577240000000001 0.488352 -0.269372
214.98046875 0.866285 0.629989 -0.236296
215.7265625 0.8785069999999999 0.549414 -0.329093
216.62890625 0.8881490000000001 0.656853 -0.231296
217.390625 0.841594 0.598 -0.243594
218.21484375 0.869882 0.604987 -0.264895
219.09765625 0.8348519999999999 0.566081 -0.268771
219.92578125 0.836451 0.69741 -0.139041
220.83984375 0.77373 0.609506 -0.164224
221.5 0.249826 -0.045 -0.294826
222.515625 0.698447 0.233447 -0.465
223.30859375 1.036486 0.782997 -0.253489
224.07421875 0.957897 0.779587 -0.17831
224.94140625 0.737487 0.344356 -0.393131
225.72265625 1.028589 0.86091 -0.167679
226.6640625 1.025397 0.939278 -0.086119
227.51171875 0.977626 0.587738 -0.389888
228.23828125 0.218563 -0.390333 -0.608896
229.0625 1.035163 0.764667 -0.270496
229.94140625 0.936753 0.663003 -0.27375
230.765625 0.78244 0.280776 -0.501664
231.62890625 1.133996 1.006206 -0.12779
232.48828125 0.919546 0.563752 -0.355794
233.3515625 0.843894 0.486694 -0.3572
234.07421875 0.95111 0.748613 -0.202497
234.953125 0.827105 0.614628 -0.212477
235.703125 0.823878 0.579823 -0.244055
236.53515625 0.6649970000000001 0.290474 -0.374523
237.3671875 0.723768 0.509938 -0.21383
238.1328125 0.6903090000000001 0.5248 -0.165509
239.0625 0.506085 0.083654 -0.422431
239.87109375 0.7046079999999999 0.410164 -0.294444
240.640625 0.613814 0.453878 -0.159936
241.51171875 0.522924 0.23 -0.292924
242.2578125 0.681828 0.568332 -0.113496
243.0546875 0.590214 0.410214 -0.18
243.9609375 0.417557 0.054889 -0.362668
244.80078125 0.654106 0.424106 -0.23
245.54296875 0.5822510000000001 0.355679 -0.226572
246.4375 0.48121200000000003 0.113333 -0.367879
247.2734375 0.589958 0.331577 -0.258381
248.0078125 0.512157 0.287528 -0.224629
248.86328125 0.412935 -0.011384 -0.424319
249.70703125 0.552886 0.287886 -0.265
250.5546875 0.5494410000000001 0.30946 -0.239981
251.421875 0.467628 0.128069 -0.339559
252.20703125 0.49288699999999996 0.247887 -0.245
252.94921875 0.5475110000000001 0.397525 -0.149986
253.828125 0.5219579999999999 0.266958 -0.255
254.4765625 0.179117 -0.158149 -0.337266
255.40625 0.639825 0.416466 -0.223359
256.24609375 0.45712200000000003 0.207373 -0.249749
256.97265625 0.211005 -0.183631 -0.394636
257.87109375 0.635112 0.418445 -0.216667
258.61328125 0.538026 0.33822 -0.199806
259.47265625 0.470275 0.157472 -0.312803
260.2109375 0.573056 0.435579 -0.137477
261.00390625 0.539405 0.346439 -0.192966
261.734375 0.148976 -0.22085 -0.369826
262.625 0.660625 0.48 -0.180625
263.48828125 0.511475 0.302046 -0.209429
264.29296875 0.581371 0.407543 -0.173828
265.05859375 0.546887 0.374479 -0.172408
265.83984375 0.517285 0.386123 -0.131162
266.5859375 0.52025 0.427022 -0.093228
267.41796875 0.5228349999999999 0.322835 -0.2
268.25 0.579448 0.37 -0.209448
269.01171875 0.567743 0.469615 -0.098128
269.88671875 0.481589 0.240334 -0.241255
270.69921875 0.52842 0.19842 -0.33
271.43359375 0.586355 0.396616 -0.189739
272.3046875 0.555837 0.327399 -0.228438
272.94921875 0.182564 -0.125 -0.307564
273.90234375 0.670215 0.573496 -0.096719
274.75 0.654749 0.51 -0.144749
275.58203125 0.552291 0.226483 -0.325808
276.35546875 0.786229 0.681322 -0.104907
277.1640625 0.859062 0.685582 -0.17348
277.96875 0.749711 0.356144 -0.393567
278.6875 1.001599 0.824889 -0.17671
279.6015625 0.976734 0.731806 -0.244928
280.46875 0.829058 0.299643 -0.529415
281.25 1.049796 0.855 -0.194796
282.0625 0.884753 0.65 -0.234753
282.8515625 0.824945 0.544992 -0.279953
283.6328125 0.903598 0.539381 -0.364217
284.31640625 0.353862 -0.105 -0.458862
285.24609375 0.957883 0.712883 -0.245
286.078125 0.92355 0.733656 -0.189894
286.99609375 0.86189 0.378179 -0.483711
287.734375 1.090093 0.845093 -0.245
288.62109375 1.047741 0.784398 -0.263343
289.31640625 0.269681 0.02 -0.249681
290.21484375 0.993259 0.848264 -0.144995
291.09375 0.832817 0.534131 -0.298686
291.9375 0.91413 0.78413 -0.13
292.74609375 0.838276 0.696018 -0.142258
293.64453125 0.8026260000000001 0.42497 -0.377656
294.484375 0.8166960000000001 0.486696 -0.33
295.22265625 0.921376 0.706554 -0.214822
296.09765625 0.825581 0.429104 -0.396477
296.91796875 0.982168 0.787918 -0.19425
297.75390625 0.869618 0.694618 -0.175
298.67578125 0.754479 0.225 -0.529479
299.42578125 0.888765 0.623918 -0.264847
300.24609375 0.952252 0.783941 -0.168311
301.11328125 0.779074 0.269074 -0.51
301.8515625 0.9297 0.738089 -0.191611
302.69921875 0.8643590000000001 0.47116 -0.393199
303.5390625 0.8998870000000001 0.579906 -0.319981
304.30859375 0.937091 0.664902 -0.272189
305.2109375 0.8775550000000001 0.351157 -0.526398
306.01171875 1.055002 0.755133 -0.299869
306.8125 1.003468 0.614122 -0.389346
307.60546875 0.9086449999999999 0.399854 -0.508791
308.3125 0.9996 0.65602 -0.34358
309.1875 0.7630220000000001 0.320954 -0.442068
310.01171875 1.047904 0.801527 -0.246377
310.83203125 0.971684 0.706787 -0.264897
311.65625 0.961112 0.447936 -0.513176
312.45703125 1.09726 0.834552 -0.262708
313.23046875 1.0750009999999999 0.799874 -0.275127
314.0234375 0.927011 0.422059 -0.504952
314.8203125 1.070117 0.851187 -0.21893
315.60546875 0.989076 0.700297 -0.288779
316.53515625 0.925575 0.411032 -0.514543
317.3203125 1.002145 0.707435 -0.29471
318.14453125 1.037848 0.694721 -0.343127
318.9453125 0.968022 0.503395 -0.464627
319.75 0.997768 0.605 -0.392768
320.47265625 1.040241 0.818522 -0.221719
321.421875 1.006608 0.557936 -0.448672
322.3359375 0.97516 0.589643 -0.385517
323.22265625 0.9673479999999999 0.525206 -0.442142
324.109375 0.914215 0.359215 -0.555
324.9765625 1.0556 0.90605 -0.14955
325.8125 0.969679 0.822171 -0.147508
326.61328125 0.845431 0.437228 -0.408203
327.48046875 0.978875 0.779031 -0.199844
328.265625 1.034693 0.845134 -0.189559
329.22265625 0.8907419999999999 0.443526 -0.447216
330.11328125 1.090542 0.958201 -0.132341
330.9453125 1.007452 0.89 -0.117452
331.7578125 0.898502 0.544444 -0.354058
332.578125 0.8901859999999999 0.527844 -0.362342
333.49609375 1.068133 0.891498 -0.176635
334.375 0.9656389999999999 0.575 -0.390639
335.23046875 0.942997 0.609927 -0.33307
335.9609375 0.999906 0.839812 -0.160094
336.83984375 0.9086000000000001 0.5986 -0.31
337.6953125 0.840963 0.436025 -0.404938
338.41796875 0.987196 0.803215 -0.183981
339.30078125 0.901952 0.642079 -0.259873
340.1484375 0.916349 0.597483 -0.318866
340.96875 0.9288479999999999 0.689923 -0.238925
341.8515625 0.868222 0.31423 -0.553992
342.671875 1.0453700000000001 0.770544 -0.274826
343.40625 0.99197 0.650289 -0.341681
344.265625 0.879194 0.312124 -0.56707
345.01171875 1.039961 0.759961 -0.28
345.9609375 1.001214 0.749895 -0.251319
346.7578125 0.90303 0.338675 -0.564355
347.65625 1.107781 0.912781 -0.195
348.4140625 0.964506 0.744517 -0.219989
349.265625 0.879541 0.49989 -0.379651
350.015625 0.93427 0.75875 -0.17552
350.83203125 0.999825 0.828992 -0.170833
351.68359375 0.8940400000000001 0.554413 -0.339627
352.47265625 0.9640569999999999 0.765222 -0.198835
353.3125 0.862912 0.608137 -0.254775
354.10546875 0.812284 0.41 -0.402284
354.83984375 0.924173 0.699526 -0.224647
355.703125 0.938087 0.628243 -0.309844
356.44140625 0.858298 0.453793 -0.404505
357.265625 0.989931 0.701951 -0.28798
358.0859375 0.882802 0.539615 -0.343187
358.8984375 0.866602 0.50913 -0.357472
359.69921875 0.892423 0.419763 -0.47266
360.4921875 0.9802109999999999 0.7197 -0.260511
361.21875 1.045574 0.681845 -0.363729
362.08203125 0.901495 0.328426 -0.573069
362.80078125 1.0414379999999999 0.691716 -0.349722
363.65234375 0.927544 0.659043 -0.268501
364.48828125 0.8255669999999999 0.44284 -0.382727
365.3125 1.010535 0.835857 -0.174678
366.0390625 0.947002 0.67376 -0.273242
366.92578125 0.855973 0.396022 -0.459951
367.69140625 0.878606 0.508994 -0.369612
368.40234375 0.893745 0.599837 -0.293908
369.32421875 0.69372 0.3918 -0.30192
370.140625 0.781375 0.526375 -0.255
370.90234375 0.8040459999999999 0.599192 -0.204854
371.78515625 0.650812 0.436203 -0.214609
372.453125 0.21962399999999999 -0.115531 -0.335155
373.296875 0.6948860000000001 0.551112 -0.143774
374.1640625 0.6294759999999999 0.439532 -0.189944
374.9296875 0.530358 0.127555 -0.402803
375.76171875 0.694804 0.531318 -0.163486
376.5703125 0.553275 0.379473 -0.173802
377.38671875 0.48285599999999995 0.133481 -0.349375
378.203125 0.6360520000000001 0.521116 -0.114936
379.00390625 0.5556909999999999 0.374179 -0.181512
379.82421875 0.47827899999999995 0.087346 -0.390933
380.54296875 0.593734 0.446852 -0.146882
381.38671875 0.5671660000000001 0.402166 -0.165
382.23046875 0.443708 0.02497 -0.418738
383.01953125 0.559416 0.414988 -0.144428
383.84765625 0.45395699999999994 0.189715 -0.264242
384.64453125 0.594988 0.449988 -0.145
385.3671875 0.430443 0.234806 -0.195637
386.2421875 0.469943 0.265 -0.204943
387.0 0.519749 0.335 -0.184749
387.9140625 0.500328 0.234898 -0.26543
388.6875 0.475 0.325 -0.15
389.50390625 0.49779799999999996 0.342798 -0.155
390.30078125 0.46758099999999997 0.288558 -0.179023
391.0859375 0.424859 0.229859 -0.195
391.77734375 0.131933 -0.055 -0.186933
392.59375 0.563605 0.463068 -0.100537
393.51953125 0.47786799999999996 0.214907 -0.262961
394.37890625 0.470758 0.172141 -0.298617
395.15625 0.48657700000000004 0.337426 -0.149151
396.0390625 0.457924 0.334955 -0.122969
396.85546875 0.39109499999999997 0.144972 -0.246123
397.58984375 0.534953 0.449953 -0.085
398.41796875 0.51895 0.411881 -0.107069
399.25 0.438125 0.21 -0.228125
400.1328125 0.541458 0.352366 -0.189092
400.9140625 0.563723 0.479469 -0.084254
401.796875 0.5254840000000001 0.404583 -0.120901
402.59375 0.455505 0.166076 -0.289429
403.37890625 0.6055269999999999 0.548186 -0.057341
404.140625 0.580639 0.485639 -0.095
405.02734375 0.487754 0.112578 -0.375176
405.84375 0.670406 0.516126 -0.15428
406.671875 0.623082 0.533406 -0.089676
407.54296875 0.599945 0.33 -0.269945
408.31640625 0.644135 0.554135 -0.09
409.1328125 0.72109 0.65609 -0.065
409.9765625 0.6367579999999999 0.273578 -0.36318
410.7265625 0.839775 0.615121 -0.224654
411.55859375 0.7874439999999999 0.57083 -0.216614
412.46484375 0.807232 0.442238 -0.364994
413.296875 0.958383 0.741547 -0.216836
414.05859375 0.96092 0.76917 -0.19175
414.921875 0.857464 0.495134 -0.36233
415.703125 1.051873 0.842299 -0.209574
416.42578125 0.999664 0.759664 -0.24
417.33984375 0.945824 0.640835 -0.304989
418.12890625 1.0537260000000002 0.848879 -0.204847
419.0390625 0.973282 0.783423 -0.189859
419.8125 0.8331470000000001 0.607292 -0.225855
420.625 0.9899929999999999 0.72 -0.269993
421.42578125 0.876579 0.530139 -0.34644
422.16796875 1.047516 0.833019 -0.214497
423.0859375 0.927729 0.494896 -0.432833
423.9921875 0.948966 0.481691 -0.467275
424.85546875 1.161539 0.999967 -0.161572
425.6953125 0.944883 0.831323 -0.11356
426.5546875 0.870342 0.617819 -0.252523
427.40625 0.8499399999999999 0.382914 -0.467026
428.26171875 1.032551 0.807551 -0.225
429.1171875 0.9238059999999999 0.589456 -0.33435
429.86328125 0.09679499999999996 -0.282249 -0.379044
430.859375 1.068018 0.899268 -0.16875
431.62109375 0.9481310000000001 0.882623 -0.065508
432.55078125 0.914098 0.773061 -0.141037
433.44921875 0.821796 0.43727 -0.384526
434.27734375 1.0495169999999998 1.000109 -0.049408
435.1640625 0.981082 0.949254 -0.031828
436.06640625 0.879293 0.584263 -0.29503
436.953125 1.04758 0.991528 -0.056052
437.79296875 0.9393009999999999 0.800839 -0.138462
438.60546875 0.8555200000000001 0.504969 -0.350551
439.42578125 1.003976 0.777816 -0.22616
440.16015625 0.900103 0.6634 -0.236703
441.05078125 0.8894880000000001 0.469589 -0.419899
441.98046875 1.034826 0.949853 -0.084973
442.84765625 0.93669 0.584582 -0.352108
443.6875 0.97497 0.783705 -0.191265
444.4453125 0.987609 0.724602 -0.263007
445.3203125 0.9004270000000001 0.495497 -0.40493
446.05078125 0.9735020000000001 0.679022 -0.29448
446.921875 0.9348920000000001 0.669917 -0.264975
447.71875 0.892639 0.458304 -0.434335
448.65625 1.076987 0.84966 -0.227327
449.41796875 0.9983709999999999 0.628875 -0.369496
450.29296875 0.863001 0.423704 -0.439297
451.0546875 1.037929 0.853821 -0.184108
451.8515625 1.00387 0.697693 -0.306177
452.63671875 1.06547 0.850626 -0.214844
453.41796875 0.991685 0.81981 -0.171875
454.3515625 0.940603 0.587977 -0.352626
455.1328125 1.009517 0.676373 -0.333144
455.90625 0.999828 0.497946 -0.501882
456.78515625 1.08571 0.918351 -0.167359
457.5859375 0.9728030000000001 0.704539 -0.268264
458.4140625 0.838854 0.524883 -0.313971
459.0859375 0.24058700000000002 -0.055038 -0.295625
460.046875 1.057199 0.772249 -0.28495
460.84765625 0.947786 0.593203 -0.354583
461.7421875 1.032254 0.669828 -0.362426
462.49609375 0.991843 0.513214 -0.478629
463.40625 0.8705510000000001 0.361179 -0.509372
464.12890625 1.045887 0.708555 -0.337332
465.01953125 0.9219310000000001 0.461322 -0.460609
465.81640625 1.134851 0.929195 -0.205656
466.80859375 0.9756130000000001 0.720076 -0.255537
467.6953125 0.902253 0.528152 -0.374101
468.4765625 0.876979 0.513473 -0.363506
469.296875 1.012093 0.707602 -0.304491
470.02734375 1.004459 0.668677 -0.335782
470.94140625 0.822532 0.325335 -0.497197
471.73828125 1.141665 0.781859 -0.359806
472.66796875 1.012994 0.720494 -0.2925
473.375 0.284706 -0.1 -0.384706
474.296875 1.018332 0.898332 -0.12
475.1015625 1.0314290000000002 0.887418 -0.144011
475.95703125 0.864977 0.480267 -0.38471
476.6953125 1.057042 0.892194 -0.164848
477.5546875 0.9143020000000001 0.556946 -0.357356
478.42578125 1.006814 0.891935 -0.114879
479.18359375 0.961412 0.792938 -0.168474
480.08203125 0.824289 0.427907 -0.396382
480.83203125 0.971901 0.734198 -0.237703
481.6875 0.8156589999999999 0.46347 -0.352189
482.453125 0.912271 0.574522 -0.337749
483.2109375 0.964422 0.698739 -0.265683
484.15234375 0.8787130000000001 0.422777 -0.455936
484.96484375 0.929164 0.564164 -0.365
485.71875 1.0133969999999999 0.705442 -0.307955
486.54296875 0.9300570000000001 0.36598 -0.564077
487.328125 0.972541 0.643185 -0.329356
488.0390625 1.0266440000000001 0.667779 -0.358865
488.9140625 0.914409 0.402609 -0.5118
489.7109375 1.004784 0.704784 -0.3
490.53515625 1.0274969999999999 0.73 -0.297497
491.33203125 0.7307710000000001 0.310779 -0.419992
492.0859375 0.98244 0.732466 -0.249974
492.8984375 0.9284159999999999 0.703213 -0.225203
493.62109375 0.8530659999999999 0.565 -0.288066
494.40234375 0.8385279999999999 0.514716 -0.323812
495.1953125 0.7600290000000001 0.441648 -0.318381
496.01953125 0.89528 0.680566 -0.214714
496.86328125 0.869894 0.558829 -0.311065
497.5625 0.25385199999999997 -0.206 -0.459852
498.4296875 0.915547 0.732398 -0.183149
499.2890625 0.789388 0.619907 -0.169481
499.92578125 0.30816499999999997 0.010964 -0.297201
500.76953125 0.845055 0.739936 -0.105119
501.71484375 0.844959 0.67 -0.174959
502.40234375 0.329267 -0.15249 -0.481757
503.34765625 0.8992899999999999 0.604447 -0.294843
504.0859375 0.779838 0.419979 -0.359859
504.97265625 0.6790769999999999 0.064077 -0.615
505.703125 0.739682 0.439272 -0.30041
506.484375 0.6824410000000001 0.388066 -0.294375
507.34375 0.5528770000000001 0.109205 -0.443672
508.17578125 0.711007 0.403637 -0.30737
508.9296875 0.6304069999999999 0.315407 -0.315
509.8125 0.503578 0.06551 -0.438068
510.58984375 0.627383 0.382383 -0.245
511.375 0.662319 0.465 -0.197319
512.16015625 0.461408 0.062258 -0.39915
512.9453125 0.677062 0.468901 -0.208161
513.7109375 0.544647 0.419647 -0.125
514.625 0.40998500000000004 0.16 -0.249985
515.390625 0.577329 0.46748 -0.109849
516.2265625 0.550585 0.425585 -0.125
516.91015625 0.21452300000000002 -0.045047 -0.25957
517.73828125 0.621038 0.500058 -0.12098
518.5390625 0.573002 0.469314 -0.103688
519.37890625 0.5378130000000001 0.397535 -0.140278
520.23046875 0.5004609999999999 0.309947 -0.190514
520.99609375 0.571461 0.372535 -0.198926
521.87109375 0.441781 0.180412 -0.261369
522.63671875 0.564469 0.339744 -0.224725
523.41796875 0.503201 0.258223 -0.244978
524.23046875 0.512764 0.269364 -0.2434
524.98828125 0.59967 0.36617 -0.2335
525.8984375 0.53132 0.176347 -0.354973
526.68359375 0.46871 0.139266 -0.329444
527.4765625 0.463976 0.223976 -0.24
528.1953125 0.179717 -0.243086 -0.422803
529.11328125 0.6234109999999999 0.319153 -0.304258
529.828125 0.58179 0.279075 -0.302715
530.70703125 0.503861 -0.046842 -0.550703
531.61328125 0.6520900000000001 0.279008 -0.373082
532.484375 0.641873 0.262838 -0.379035
533.3359375 0.592643 0.355 -0.237643
533.78515625 0.9830800000000001 0.753959 -0.229121
534.84765625 0.7283149999999999 0.684565 -0.04375
535.51953125 0.509497 0.144932 -0.364565
536.6796875 0.695055 0.335055 -0.36
537.6796875 0.5282530000000001 0.143606 -0.384647
538.15625 1.0462609999999999 0.841429 -0.204832
539.26171875 0.759462 0.780176 0.020714
539.734375 0.620181 0.372321 -0.24786
540.703125 0.768077 0.603324 -0.164753
541.16015625 0.8904780000000001 0.699972 -0.190506
542.19140625 0.731695 0.390867 -0.340828
542.65234375 0.7858320000000001 0.236543 -0.549289
543.6484375 0.8487750000000001 0.673996 -0.174779
544.1171875 0.819164 0.513251 -0.305913
544.6796875 0.7246600000000001 0.495582 -0.229078
545.15625 0.727008 0.258284 -0.468724
545.67578125 0.6424240000000001 0.129577 -0.512847
546.19140625 0.762869 0.254775 -0.508094
546.42578125 0.07644300000000001 -0.188557 -0.265
546.7265625 0.923287 0.509 -0.414287
547.1484375 0.828372 0.497914 -0.330458
548.203125 0.907258 0.353298 -0.55396
549.3046875 0.9360660000000001 0.526999 -0.409067
550.4296875 1.06415 0.86 -0.20415
551.49609375 0.9452 0.461092 -0.484108
552.5390625 1.258197 1.024933 -0.233264
553.5703125 1.15534 0.805882 -0.349458
554.546875 0.741148 0.343961 -0.397187
555.40625 1.055 1.015 -0.04
556.234375 0.840935 0.525935 -0.315
557.09765625 1.047259 0.896081 -0.151178
557.8359375 0.96731 0.869734 -0.097576
558.66796875 0.94625 0.771359 -0.174891
559.29296875 0.291469 0.197601 -0.093868
559.8671875 1.0007000000000001 0.732651 -0.268049
561.05859375 1.064238 0.924338 -0.1399
561.9765625 0.15387 -0.26613 -0.42
563.0546875 1.0517560000000001 0.856967 -0.194789
563.93359375 0.968337 0.679902 -0.288435
564.8046875 0.950534 0.787126 -0.163408
565.41796875 0.252639 0.218148 -0.034491
566.203125 0.324405 0.219612 -0.104793
567.03515625 1.027514 0.964799 -0.062715
568.40625 0.9874769999999999 0.730192 -0.257285
568.9453125 0.810171 0.31026 -0.499911
570.00390625 0.8297840000000001 0.344835 -0.484949
570.4609375 1.068597 0.553597 -0.515
571.38671875 1.10359 0.93359 -0.17
571.84765625 1.115039 0.892308 -0.222731
572.38671875 0.998127 0.923617 -0.07451
572.84375 1.084009 0.779992 -0.304017
573.68359375 0.9873 0.823081 -0.164219
574.16015625 1.249927 0.865564 -0.384363
574.49609375 1.1663299999999999 0.83678 -0.32955
574.9765625 1.078989 0.818989 -0.26
575.390625 0.044569000000000004 -0.010371 -0.05494
576.140625 1.006034 0.731647 -0.274387
576.63671875 0.04605300000000001 -0.082452 -0.128505
577.203125 1.057769 0.827727 -0.230042
577.70703125 1.088379 0.903914 -0.184465
578.12109375 0.036574999999999996 0.089459 0.052884
578.73828125 1.133346 0.96417 -0.169176
579.19921875 0.933574 0.578257 -0.355317
579.75 1.044986 0.6 -0.444986
580.29296875 1.261616 0.958856 -0.30276
580.80078125 1.093458 0.854602 -0.238856
581.40625 0.345781 0.093906 -0.251875
581.72265625 1.221212 0.963212 -0.258
581.9375 0.049939999999999984 0.18 0.13006
582.26171875 0.972539 0.737927 -0.234612
582.703125 1.041152 0.811297 -0.229855
582.90625 0.069632 0.103848 0.034216
583.16015625 0.972936 0.748703 -0.224233
583.38671875 0.057652 0.089686 0.032034
583.64453125 0.5326960000000001 0.256121 -0.276575
584.6015625 0.9207190000000001 0.611947 -0.308772
585.703125 1.027619 0.73703 -0.290589
586.859375 0.899814 0.489814 -0.41
588.0859375 0.966755 0.617264 -0.349491
589.34375 1.066425 0.844811 -0.221614
590.3515625 0.958889 0.465476 -0.493413
591.25390625 1.01031 0.815341 -0.194969
592.2890625 1.00929 0.874582 -0.134708
593.13671875 0.9157069999999999 0.725644 -0.190063
593.95703125 0.8407519999999999 0.51439 -0.326362
594.78515625 0.95426 0.741228 -0.213032
595.6171875 1.0649330000000001 0.832238 -0.232695
596.39453125 0.817528 0.274904 -0.542624
597.25 1.050723 0.77 -0.280723
598.03515625 0.9388719999999999 0.62557 -0.313302
598.94140625 0.7332810000000001 0.284511 -0.44877
599.72265625 1.065354 0.841225 -0.224129
600.58984375 0.9580500000000001 0.853082 -0.104968
601.234375 0.37753200000000003 -0.063984 -0.441516
602.12109375 1.122916 0.897931 -0.224985
602.98046875 0.9936289999999999 1.005 0.011371
603.8359375 0.764413 0.56468 -0.199733
604.703125 1.031191 0.999546 -0.031645
605.48046875 0.958705 0.905857 -0.052848
606.34375 0.825892 0.449074 -0.376818
607.16796875 0.904726 0.64 -0.264726
607.90234375 0.977678 0.777876 -0.199802
608.76171875 0.9208829999999999 0.697151 -0.223732
609.53515625 0.27278199999999997 -0.095982 -0.368764
610.40234375 1.087567 0.907161 -0.180406
611.3046875 1.047931 0.87348 -0.174451
611.7421875 1.175722 0.915808 -0.259914
612.81640625 1.0554130000000002 0.812173 -0.24324
613.4765625 1.007474 0.708996 -0.298478
614.515625 0.895481 0.643393 -0.252088
615.265625 0.813389 0.500472 -0.312917
616.2109375 0.921587 0.929273 0.007686
616.6875 1.063943 0.979158 -0.084785
617.76171875 0.9051659999999999 0.785387 -0.119779
618.87109375 1.0041959999999999 0.789252 -0.214944
619.32421875 0.8883530000000001 0.379228 -0.509125
620.375 1.1266500000000002 1.11 -0.01665
620.87109375 0.974982 0.814446 -0.160536
622.01953125 0.926877 0.6244 -0.302477
622.5390625 0.946626 0.461646 -0.48498
623.50390625 1.043855 0.947005 -0.09685
623.96484375 1.022966 0.793077 -0.229889
625.015625 0.756248 0.477702 -0.278546
625.4921875 0.958701 0.770996 -0.187705
626.0078125 0.9083640000000001 0.876267 -0.032097
626.6015625 0.7728330000000001 0.707833 -0.065
627.05078125 0.871567 0.557102 -0.314465
627.515625 0.851256 0.546703 -0.304553
627.953125 0.949452 0.799495 -0.149957
628.33984375 0.9710719999999999 0.871319 -0.099753
628.93359375 0.8094239999999999 0.714451 -0.094973
629.36328125 0.055409 -0.061391 -0.1168
629.8984375 1.180817 0.66292 -0.517897
630.36328125 0.9263410000000001 0.570091 -0.35625
630.83984375 0.9106460000000001 0.694813 -0.215833
631.40234375 0.878796 0.548964 -0.329832
631.78125 0.06206699999999998 -0.162865 -0.224932
632.03125 0.020753999999999995 -0.129219 -0.149973
632.28125 0.04346199999999997 -0.245893 -0.289355
632.5 0.017879 -0.0050 -0.022879
632.9140625 1.06661 0.774601 -0.292009
633.23046875 0.030591000000000007 -0.125022 -0.155613
633.43359375 1.00968 0.659836 -0.349844
633.76171875 0.19448300000000002 -0.280364 -0.474847
634.13671875 0.754791 0.242955 -0.511836
634.78515625 0.7015290000000001 0.330474 -0.371055
635.26171875 0.03383899999999998 -0.138386 -0.172225
636.2109375 0.776323 0.351132 -0.425191
636.44921875 0.055409000000000014 -0.225903 -0.281312
636.70703125 0.467651 -0.007193 -0.474844
636.9296875 0.043716000000000005 -0.19616 -0.239876
637.2421875 0.5865130000000001 0.323303 -0.26321
637.78515625 0.142233 0.046696 -0.095537
638.07421875 0.027048000000000003 -0.112892 -0.13994
638.3125 0.02864399999999999 -0.1085 -0.137144
638.5546875 0.162563 -0.115686 -0.278249
639.703125 0.55991 0.46491 -0.095
640.7890625 0.531139 0.394889 -0.13625
641.94140625 0.570512 0.414346 -0.156166
643.09375 0.699496 0.589664 -0.109832
644.16015625 0.527692 0.232985 -0.294707
645.23828125 0.749397 0.619397 -0.13
646.32421875 0.547227 0.273506 -0.273721
647.34375 0.7920790000000001 0.737079 -0.055
648.2109375 0.495483 0.359754 -0.135729
648.90234375 0.199735 -0.114826 -0.314561
649.76953125 0.534333 0.524875 -0.009458
650.51171875 0.52854 0.37854 -0.15
651.23046875 0.190914 -0.199086 -0.39
652.171875 0.541141 0.458069 -0.083072
652.96875 0.502794 0.34785 -0.154944
653.6484375 0.25763 -0.13237 -0.39
654.52734375 0.5625359999999999 0.412608 -0.149928
655.23828125 0.51849 0.327592 -0.190898
656.08984375 0.44778799999999996 0.147888 -0.2999
656.85546875 0.584302 0.474947 -0.109355
657.671875 0.539705 0.464913 -0.074792
658.39453125 0.194094 -0.050548 -0.244642
659.26171875 0.6216149999999999 0.520094 -0.101521
660.0625 0.565543 0.490543 -0.075
660.76953125 0.21458300000000002 -0.035202 -0.249785
661.64453125 0.644413 0.544559 -0.099854
662.390625 0.536538 0.432368 -0.10417
663.11328125 0.182893 -0.041912 -0.224805
664.05859375 0.5950000000000001 0.54 -0.055
664.859375 0.558103 0.463513 -0.09459
665.7265625 0.535499 0.266414 -0.269085
666.51953125 0.680813 0.595813 -0.085
667.2890625 0.7049369999999999 0.589954 -0.114983
667.95703125 0.346361 -0.00241 -0.348771
668.80078125 0.703306 0.610355 -0.092951
669.6640625 0.6756610000000001 0.461569 -0.214092
670.40234375 0.231531 -0.140328 -0.371859
671.25390625 0.7958029999999999 0.615848 -0.179955
672.1171875 0.6822900000000001 0.391968 -0.290322
672.890625 0.804916 0.615 -0.189916
673.59375 0.8160099999999999 0.511276 -0.304734
674.43359375 0.726619 0.335741 -0.390878
674.890625 1.285394 1.01707 -0.268324
675.9765625 1.000919 0.883983 -0.116936
676.46484375 0.893412 0.569063 -0.324349
677.375 0.9608329999999999 0.85 -0.110833
677.83984375 1.059112 0.839259 -0.219853
678.85546875 0.979035 0.76993 -0.209105
679.48828125 0.8129379999999999 0.455905 -0.357033
680.4453125 0.960569 0.795 -0.165569
680.90625 0.967234 0.66359 -0.303644
681.91015625 0.867447 0.635212 -0.232235
682.3828125 1.0182 0.7132 -0.305
683.41796875 0.9259109999999999 0.756052 -0.169859
684.1171875 0.690878 0.308158 -0.38272
685.15625 0.890832 0.788994 -0.101838
685.6015625 0.8476239999999999 0.595706 -0.251918
686.5625 0.7723329999999999 0.477333 -0.295
687.05078125 0.945889 0.558305 -0.387584
688.13671875 0.959267 0.774331 -0.184936
688.94921875 0.7107239999999999 0.264466 -0.446258
689.37109375 1.052039 0.729082 -0.322957
690.4609375 0.9043889999999999 0.649453 -0.254936
691.3125 0.8378289999999999 0.553708 -0.284121
691.76171875 0.988138 0.623718 -0.36442
692.7890625 0.674294 0.294797 -0.379497
693.48828125 0.70167 0.452694 -0.248976
693.9453125 0.614622 0.296274 -0.318348
695.08984375 0.809894 0.547056 -0.262838
695.57421875 0.989169 0.700125 -0.289044
696.1171875 0.961291 0.778938 -0.182353
696.78125 0.985 0.73 -0.255
697.265625 0.7847299999999999 0.484768 -0.299962
697.7734375 0.79488 0.589026 -0.205854
698.24609375 1.070401 0.71796 -0.352441
698.6953125 1.123152 1.001865 -0.121287
698.92578125 0.145743 -0.065116 -0.210859
699.14453125 0.049986 -0.085014 -0.135
699.578125 0.912325 0.753035 -0.15929
700.03125 1.371216 1.122139 -0.249077
700.296875 0.038717 -0.250818 -0.289535
700.59765625 0.923289 0.703966 -0.219323
701.08984375 1.087342 0.805107 -0.282235
701.60546875 0.964687 0.65984 -0.304847
702.109375 1.07999 0.84999 -0.23
702.58203125 1.007997 0.763856 -0.244141
703.015625 1.102528 0.750357 -0.352171
703.44921875 0.999398 0.610047 -0.389351
703.9375 0.9054169999999999 0.40431 -0.501107
704.26171875 0.272263 0.041503 -0.23076
705.53515625 0.993269 0.753269 -0.24
706.59765625 0.9016040000000001 0.546618 -0.354986
707.85546875 1.004861 0.734861 -0.27
709.13671875 0.971746 0.498901 -0.472845
710.34765625 1.387878 1.133972 -0.253906
711.5078125 1.0757370000000002 0.777757 -0.29798
712.44921875 0.856819 0.377382 -0.479437
712.921875 1.386093 1.111145 -0.274948
714.0546875 1.137308 0.987308 -0.15
715.62890625 1.130257 0.88925 -0.241007
716.08984375 1.1490550000000002 0.941532 -0.207523
716.578125 1.2471009999999998 1.069311 -0.17779
717.11328125 0.928064 0.592296 -0.335768
718.2421875 1.117438 0.833261 -0.284177
718.72265625 1.3820759999999999 1.148391 -0.233685
719.9375 1.1181610000000002 0.798672 -0.319489
720.41015625 1.164402 0.705835 -0.458567
721.1015625 1.102669 0.953646 -0.149023
721.51953125 1.426024 1.184798 -0.241226
722.0546875 0.9219919999999999 0.636992 -0.285
722.65625 0.969144 0.526523 -0.442621
723.4296875 1.174669 0.929963 -0.244706
724.12890625 1.113943 0.728943 -0.385
724.4140625 0.04010999999999998 -0.220723 -0.260833
724.64453125 0.03950500000000001 -0.185045 -0.22455
724.859375 0.023839 -0.151161 -0.175
725.296875 1.167497 0.661736 -0.505761
725.76953125 1.2748430000000002 0.889843 -0.385
726.09765625 0.049374 -0.22545 -0.274824
726.359375 1.063569 0.668693 -0.394876
727.0 0.994739 0.52 -0.474739
727.24609375 0.025000000000000022 -0.3 -0.325
727.47265625 0.09429799999999999 -0.265 -0.359298
727.71484375 0.026554999999999995 -0.391957 -0.418512
727.99609375 1.202942 0.723062 -0.47988
728.44921875 1.1851180000000001 0.681276 -0.503842
728.9140625 1.274883 0.788246 -0.486637
729.453125 1.108896 0.519395 -0.589501
729.96875 1.0616970000000001 0.387192 -0.674505
730.4609375 1.159221 0.634257 -0.524964
730.89453125 0.034147999999999984 -0.17 -0.204148
731.46875 1.074896 0.543536 -0.53136
731.94921875 1.20042 0.715001 -0.485419
732.34375 0.056695999999999996 -0.216 -0.272696
732.61328125 0.036280999999999994 -0.108719 -0.145
732.875 1.165553 0.655 -0.510553
733.37890625 1.201119 0.726205 -0.474914
733.890625 1.076283 0.685961 -0.390322
734.38671875 1.254418 0.769478 -0.48494
734.9609375 0.05432799999999999 -0.195281 -0.249609
735.2421875 1.041038 0.536114 -0.504924
735.4453125 0.386155 -0.12222 -0.508375
735.875 0.018153999999999997 -0.04 -0.058154
736.51171875 1.1330390000000001 0.72363 -0.409409
736.86328125 0.03840199999999999 -0.070426 -0.108828
737.13671875 1.017537 0.692104 -0.325433
737.68359375 0.9026879999999999 0.425 -0.477688
738.73828125 1.1237329999999999 0.900785 -0.222948
739.87109375 0.986086 0.667769 -0.318317
741.12890625 1.0880889999999999 0.91814 -0.169949
742.37109375 1.114251 0.89439 -0.219861
742.859375 0.899456 0.509456 -0.39
743.9765625 1.1043560000000001 0.880206 -0.22415
745.12109375 1.244817 0.921643 -0.323174
746.19140625 1.0501369999999999 0.891632 -0.158505
747.26171875 1.094855 0.90072 -0.194135
747.7421875 1.107878 0.812946 -0.294932
748.79296875 1.3231249999999999 1.127673 -0.195452
749.8046875 1.167721 0.812968 -0.354753
750.78515625 1.011222 0.867804 -0.143418
751.22265625 1.158125 0.891702 -0.266423
752.1015625 0.976044 0.856044 -0.12
752.65625 0.813923 0.449872 -0.364051
753.06640625 1.27282 0.839777 -0.433043
754.0546875 0.869826 0.745 -0.124826
754.52734375 0.984988 0.694725 -0.290263
754.92578125 0.803549 0.564811 -0.238738
755.16796875 0.08044599999999999 -0.214064 -0.29451
755.66796875 0.9149830000000001 0.595979 -0.319004
756.171875 0.901143 0.701143 -0.2
756.57421875 0.054895 -0.02136 -0.076255
757.0546875 1.06829 0.884852 -0.183438
757.4609375 0.688609 0.469459 -0.21915
757.90234375 0.599257 0.344347 -0.25491
758.34765625 0.614662 0.46028 -0.154382
758.83984375 0.761767 0.697236 -0.064531
759.37890625 0.708326 0.547069 -0.161257
759.84765625 0.623795 0.434212 -0.189583
761.12890625 0.531357 0.334482 -0.196875
762.06640625 0.567916 0.294718 -0.273198
763.1484375 0.475254 0.190359 -0.284895
764.30078125 0.621267 0.437045 -0.184222
765.51953125 0.7444219999999999 0.444941 -0.299481
766.71484375 0.630256 0.397756 -0.2325
767.2421875 0.559588 0.219588 -0.34
768.05078125 0.599958 0.453376 -0.146582
768.49609375 0.499135 0.262625 -0.23651
769.53125 0.564611 0.330771 -0.23384
770.57421875 0.686257 0.508561 -0.177696
771.0703125 0.465819 0.161207 -0.304612
772.203125 0.6493709999999999 0.43971 -0.209661
772.69921875 0.58204 0.368611 -0.213429
773.0546875 0.07736100000000001 -0.167681 -0.245042
773.5078125 0.614967 0.345 -0.269967
773.87109375 0.809051 0.454175 -0.354876
774.25390625 0.528605 0.272445 -0.25616
774.609375 0.667949 0.507949 -0.16
775.0234375 0.13344 0.028545 -0.104895
775.41015625 0.7452380000000001 0.590238 -0.155
776.43359375 0.664286 0.474712 -0.189574
777.5234375 0.718374 0.6038 -0.114574
778.5859375 0.764807 0.509834 -0.254973
779.60546875 0.992144 0.87 -0.122144
780.515625 0.798106 0.693422 -0.104684
781.32421875 0.602617 0.401117 -0.2015
782.08984375 0.725261 0.647336 -0.077925
782.875 0.709945 0.53 -0.179945
783.70703125 0.660064 0.348843 -0.311221
784.5390625 0.774401 0.614401 -0.16
785.34765625 0.769463 0.465777 -0.303686
786.16796875 0.729459 0.307515 -0.421944
786.9296875 0.878368 0.678368 -0.2
787.7109375 0.807914 0.539694 -0.26822
788.3984375 0.302884 -0.186699 -0.489583
789.31640625 0.973974 0.72906 -0.244914
790.18359375 0.924255 0.664786 -0.259469
791.0390625 0.884123 0.474799 -0.409324
791.78515625 1.0304849999999999 0.94656 -0.083925
792.66796875 1.0265360000000001 1.036572 0.010036
793.10546875 1.230863 1.085863 -0.145
794.22265625 1.180596 1.171445 -0.009151
794.69140625 1.304761 1.134784 -0.169977
795.4921875 1.081959 0.999779 -0.08218
796.78515625 1.279946 1.235 -0.044946
797.3125 1.1883679999999999 0.993269 -0.195099
798.65625 1.212811 1.095531 -0.11728
799.33984375 1.021499 0.756218 -0.265281
800.1640625 1.173868 0.83422 -0.339648
801.4296875 1.024221 0.529481 -0.49474
801.9375 1.0492 0.705976 -0.343224
802.63671875 1.012484 0.66448 -0.348004
803.07421875 1.453179 1.063179 -0.39
803.3984375 0.05568100000000001 -0.172034 -0.227715
803.66015625 0.63338 0.109765 -0.523615
803.89453125 0.049929999999999974 -0.365014 -0.414944
804.296875 1.239181 0.784517 -0.454664
804.5859375 0.027032 -0.274687 -0.301719
804.90234375 1.1072060000000001 0.527116 -0.58009
805.38671875 1.002578 0.429174 -0.573404
805.8671875 1.068297 0.450911 -0.617386
806.18359375 0.05206099999999997 -0.355057 -0.407118
806.45703125 1.1496590000000002 0.506376 -0.643283
806.984375 1.182991 0.577991 -0.605
807.48828125 1.0934949999999999 0.498502 -0.594993
808.56640625 1.095 0.586143 -0.508857
809.59765625 1.133816 0.820593 -0.313223
810.59375 1.013356 0.585329 -0.428027
811.5625 1.250234 0.948099 -0.302135
812.48828125 1.173047 0.948221 -0.224826
813.4609375 1.119549 0.954777 -0.164772
814.44140625 1.052896 0.769952 -0.282944
815.2578125 0.9996450000000001 0.630685 -0.36896
816.0625 1.120123 0.878716 -0.241407
816.84765625 1.060459 0.80372 -0.256739
817.66796875 0.993349 0.579013 -0.414336
818.4140625 1.19695 0.908703 -0.288247
819.23828125 0.949454 0.749454 -0.2
820.1484375 0.957924 0.677973 -0.279951
820.95703125 1.1162459999999998 0.983536 -0.13271
821.77734375 1.0075589999999999 0.777581 -0.229978
822.58203125 0.557078 0.235741 -0.321337
823.3984375 1.025884 0.720884 -0.305
824.18359375 1.023059 0.693569 -0.32949
825.08203125 0.955444 0.610771 -0.344673
825.9609375 0.974749 0.544099 -0.43065
826.76953125 1.099713 0.814876 -0.284837
827.68359375 0.959851 0.707797 -0.252054
828.13671875 1.266003 0.923526 -0.342477
828.81640625 1.08807 0.723581 -0.364489
829.234375 1.5710359999999999 1.431728 -0.139308
829.69921875 1.2458179999999999 1.095818 -0.15
830.19921875 1.0117450000000001 0.842624 -0.169121
830.6484375 0.919112 0.598125 -0.320987
831.11328125 0.92298 0.473605 -0.449375
831.5625 1.0189599999999999 0.81617 -0.20279
832.1171875 1.166932 0.875395 -0.291537
833.33984375 1.160772 0.923076 -0.237696
834.35546875 0.945812 0.70114 -0.244672
835.4296875 1.26873 1.21373 -0.055
836.453125 1.0664099999999999 0.771566 -0.294844
837.5390625 1.3092510000000002 1.299257 -0.009994
838.61328125 1.000169 0.727472 -0.272697
839.07421875 1.369346 0.984301 -0.385045
840.03125 1.358101 1.213125 -0.144976
840.55859375 0.976431 0.643551 -0.33288
841.16015625 0.05928800000000001 -0.280465 -0.339753
842.2109375 1.3148149999999998 1.174815 -0.14
843.19140625 1.03858 0.75443 -0.28415
844.17578125 1.161171 0.881784 -0.279387
844.73046875 0.95722 0.424958 -0.532262
845.11328125 1.5939459999999999 1.203692 -0.390254
845.67578125 0.853715 0.738866 -0.114849
846.13671875 1.036895 0.731895 -0.305
846.52734375 0.03703899999999999 -0.292296 -0.329335
847.6171875 1.047845 0.827888 -0.219957
848.59765625 1.079579 0.949125 -0.130454
849.5390625 1.033973 0.854799 -0.179174
850.40625 0.942969 0.66845 -0.274519
851.2578125 0.9715480000000001 0.381673 -0.589875
852.015625 1.1441599999999998 0.862895 -0.281265
852.796875 0.9748519999999999 0.796712 -0.17814
853.45703125 0.348649 0.05 -0.298649
854.3046875 1.052496 0.809639 -0.242857
855.078125 0.997105 0.700909 -0.296196
855.83203125 0.289599 -0.081003 -0.370602
856.765625 0.904571 0.791548 -0.113023
857.38671875 0.286377 0.162119 -0.124258
858.36328125 0.793577 0.447296 -0.346281
859.12890625 0.8949849999999999 0.609985 -0.285
859.8515625 0.81801 0.69801 -0.12
860.75 0.764607 0.43 -0.334607
861.21875 1.092423 0.491767 -0.600656
862.375 1.0899999999999999 0.965 -0.125
862.8671875 0.9304939999999999 0.694139 -0.236355
863.29296875 0.922903 0.712551 -0.210352
864.203125 0.757037 0.472037 -0.285
864.6484375 1.30624 1.116749 -0.189491
865.2578125 0.842326 0.745393 -0.096933
865.83203125 0.748416 0.298416 -0.45
866.69921875 0.7743249999999999 0.714548 -0.059777
867.16015625 1.007602 0.823096 -0.184506
867.80859375 0.837408 0.743263 -0.094145
868.30859375 0.778591 0.598881 -0.17971
868.7578125 0.7959689999999999 0.531137 -0.264832
869.16015625 0.037063999999999986 -0.312936 -0.35
869.67578125 0.70428 0.241601 -0.462679
870.1484375 0.758498 0.605047 -0.153451
871.203125 0.701904 0.448727 -0.253177
872.10546875 0.609939 0.284939 -0.325
873.28125 0.658344 0.329 -0.329344
874.55859375 0.6666019999999999 0.582525 -0.084077
875.03125 0.863853 0.673853 -0.19
876.296875 0.723425 0.398915 -0.32451
876.87109375 0.571159 0.441159 -0.13
877.17578125 0.25222900000000004 0.107961 -0.144268
877.41796875 0.57334 0.50334 -0.07
878.57421875 0.49836100000000005 0.365868 -0.132493
879.078125 0.669397 0.374454 -0.294943
879.77734375 0.58729 0.68229 0.095
880.2265625 0.8211040000000001 0.843986 0.022882
880.50390625 0.05542999999999999 -0.116133 -0.171563
880.7109375 0.029912 0.044912 0.015
881.75 0.645 0.345 -0.3
882.15625 0.765093 0.253059 -0.512034
882.55078125 0.7450009999999999 0.180001 -0.565
882.953125 0.67875 0.418694 -0.260056
883.2578125 0.032229 0.029729 -0.0025
883.4921875 0.05978900000000001 -0.075211 -0.135
883.77734375 0.07484500000000002 -0.060409 -0.135254
884.0859375 1.039553 0.879553 -0.16
884.41015625 0.01453199999999999 -0.07 -0.084532
884.6953125 0.668971 0.528971 -0.14
885.2890625 0.479647 0.114647 -0.365
885.96875 0.5172669999999999 0.1825 -0.334767
887.203125 0.63 0.38 -0.25
888.33984375 0.594818 -0.055361 -0.650179
889.37109375 0.6736580000000001 0.609952 -0.063706
890.34765625 0.5337419999999999 0.08832 -0.445422
890.82421875 0.762976 0.475662 -0.287314
891.85546875 0.6945629999999999 0.704633 0.01007
892.859375 0.629229 0.262323 -0.366906
893.7734375 0.623772 0.607859 -0.015913
894.70703125 0.571601 0.152214 -0.419387
895.59765625 0.602876 0.617902 0.015026
896.35546875 0.537218 0.399937 -0.137281
897.21484375 0.402823 -0.055108 -0.457931
898.0 0.624569 0.445 -0.179569
898.8046875 0.530584 0.438793 -0.091791
899.60546875 0.396035 0.235832 -0.160203
900.29296875 0.202992 -0.15353 -0.356522
901.14453125 0.599906 0.584995 -0.014911
901.91015625 0.470351 0.476026 0.005675
902.5703125 0.19522799999999998 -0.00384 -0.199068
903.44140625 0.61233 0.659135 0.046805
904.3203125 0.54907 0.46407 -0.085
904.78125 0.795876 0.556211 -0.239665
905.875 0.83625 0.925 0.08875
906.36328125 0.858796 0.799129 -0.059667
907.0234375 0.765074 0.471034 -0.29404
907.90625 0.905442 0.805442 -0.1
908.328125 1.144391 0.829398 -0.314993
908.99609375 0.905689 0.37233 -0.533359
909.4453125 1.20997 0.816936 -0.393034
909.84375 1.236442 0.848384 -0.388058
910.23828125 1.062246 0.824746 -0.2375
910.96484375 0.932334 0.282334 -0.65
911.953125 1.074517 0.874532 -0.199985
912.96484375 0.87982 0.249873 -0.629947
913.81640625 0.964459 0.719685 -0.244774
914.6953125 0.775074 0.52518 -0.249894
915.59375 0.716722 0.102447 -0.614275
916.546875 1.112255 0.963544 -0.148711
917.40234375 1.0113269999999999 1.090293 0.078966
918.2734375 0.99475 0.5 -0.49475
919.1171875 1.12598 1.26098 0.135
919.9375 1.058397 1.210116 0.151719
920.76953125 0.972814 0.359746 -0.613068
921.5390625 1.070568 0.930579 -0.139989
922.01171875 1.041714 0.749132 -0.292582
923.15234375 1.054116 0.612203 -0.441913
924.1953125 1.0720610000000002 0.957061 -0.115
924.63671875 1.227055 0.958752 -0.268303
925.3203125 0.95653 0.490105 -0.466425
925.76953125 1.316385 0.481385 -0.835
926.15234375 1.290351 0.905351 -0.385
926.67578125 1.241339 1.053773 -0.187566
927.08984375 1.5288760000000001 1.325455 -0.203421
927.68359375 1.10393 0.826784 -0.277146
928.171875 1.015848 0.689627 -0.326221
928.66015625 0.9765280000000001 0.485138 -0.49139
928.8671875 0.06152799999999997 -0.265515 -0.327043
929.12109375 0.980054 0.483219 -0.496835
929.33203125 0.09625 -0.125 -0.22125
929.7421875 1.166291 0.821437 -0.344854
930.13671875 1.5484010000000001 1.038016 -0.510385
930.50390625 0.031978000000000006 -0.491021 -0.522999
930.890625 1.197706 0.302706 -0.895
931.421875 1.096409 0.708268 -0.388141
932.0 1.225514 0.8 -0.425514
932.31640625 0.04006900000000002 -0.425 -0.465069
932.53515625 0.023465999999999987 -0.271366 -0.294832
932.765625 1.306588 0.91763 -0.388958
933.015625 0.070361 -0.094639 -0.165
933.26953125 1.152825 0.824777 -0.328048
933.75 1.21 0.9 -0.31
934.23046875 0.03400500000000001 -0.135072 -0.169077
934.61328125 1.213527 0.715 -0.498527
934.953125 0.04400399999999993 -0.63651 -0.680514
935.20703125 0.92016 -0.076626 -0.996786
935.41796875 0.05581199999999997 -0.6 -0.655812
935.8046875 1.410506 0.767065 -0.643441
936.36328125 1.060523 0.630816 -0.429707
937.375 1.080508 1.01 -0.070508
938.38671875 0.9667789999999999 0.502056 -0.464723
939.44140625 1.087964 1.051706 -0.036258
940.68359375 1.155103 0.800177 -0.354926
941.8046875 1.262156 1.20076 -0.061396
942.8671875 1.208242 0.998242 -0.21
943.8984375 0.993646 0.268646 -0.725
944.90625 1.1206930000000002 1.066912 -0.053781
945.73828125 1.005537 0.420537 -0.585
946.58203125 1.172356 0.948251 -0.224105
947.36328125 1.087374 0.962374 -0.125
948.27734375 1.040771 0.869104 -0.171667
949.046875 0.992728 0.598064 -0.394664
949.83203125 0.983334 0.273471 -0.709863
950.61328125 1.0179900000000002 0.530877 -0.487113
951.4296875 1.082964 0.692824 -0.39014
952.23046875 1.112131 0.899995 -0.212136
953.44921875 0.963863 0.401984 -0.561879
954.65625 1.2009720000000002 1.102135 -0.098837
955.6875 1.012756 0.514842 -0.497914
956.125 1.4399359999999999 0.735 -0.704936
957.25390625 1.221285 1.141317 -0.079968
957.74609375 1.165221 0.947472 -0.217749
958.125 1.463198 1.035 -0.428198
958.734375 1.029121 0.644121 -0.385
959.203125 0.924573 0.230198 -0.694375
959.70703125 1.208213 0.495923 -0.71229
960.16015625 1.227536 0.79593 -0.431606
960.59375 1.1998469999999999 0.917534 -0.282313
961.05078125 1.167509 0.878228 -0.289281
961.48046875 1.119559 0.809862 -0.309697
961.89453125 0.27927100000000005 -0.075041 -0.354312
962.1171875 0.13077999999999998 -0.01422 -0.145
962.328125 0.06475600000000001 -0.070217 -0.134973
963.09765625 1.069193 0.21643 -0.852763
963.6015625 1.067948 0.343376 -0.724572
963.92578125 0.43000000000000005 -0.1 -0.53
964.96875 1.378061 1.350461 -0.0276
966.0859375 1.1296680000000001 1.269711 0.140043
967.22265625 0.959598 0.729598 -0.23
968.44140625 0.98519 0.773924 -0.211266
968.91015625 1.359637 1.125178 -0.234459
969.6015625 1.092343 0.338519 -0.753824
970.1875 1.0056850000000002 0.62304 -0.382645
970.6953125 1.14659 0.856589 -0.290001
971.19140625 1.0169350000000001 0.759846 -0.257089
971.9140625 0.974264 0.644264 -0.33
972.8515625 1.0484019999999998 0.514998 -0.533404
973.40625 1.080414 0.827212 -0.253202
973.92578125 1.013596 0.468694 -0.544902
974.50390625 1.16629 0.85129 -0.315
974.93359375 1.199595 0.78 -0.419595
975.57421875 1.043331 0.843331 -0.2
976.12890625 0.8457049999999999 0.555727 -0.289978
976.72265625 0.891192 0.136398 -0.754794
977.3359375 1.034401 0.674468 -0.359933
977.80078125 1.0126089999999999 0.603738 -0.408871
978.41796875 0.7655529999999999 0.560133 -0.20542
978.90234375 0.880016 0.649119 -0.230897
979.4765625 0.871257 0.77315 -0.098107
980.0859375 0.85902 0.42 -0.43902
980.7421875 0.19694100000000003 -0.330271 -0.527212
980.953125 0.05499999999999999 -0.315 -0.37
981.3671875 1.031287 0.961502 -0.069785
981.796875 1.088521 0.994305 -0.094216
982.30859375 0.87811 0.743189 -0.134921
982.96875 0.871267 0.464167 -0.4071
983.48828125 0.724274 0.406112 -0.318162
984.09375 0.75302 0.739062 -0.013958
984.8203125 1.058343 0.968372 -0.089971
985.29296875 1.014141 0.533826 -0.480315
985.5390625 0.05790599999999996 -0.490176 -0.548082
985.86328125 0.9837149999999999 0.262808 -0.720907
986.30078125 1.174533 0.728637 -0.445896
986.984375 1.113563 0.944219 -0.169344
987.21875 0.169411 -0.010589 -0.18
988.1953125 0.999067 0.354962 -0.644105
988.8984375 1.120036 0.890145 -0.229891
989.48046875 0.949267 0.835299 -0.113968
990.0 0.266719 0.185 -0.081719
990.7890625 0.922355 0.689175 -0.23318
991.59375 0.98574 0.243922 -0.741818
992.1328125 0.951751 0.757825 -0.193926
992.83203125 0.871221 0.793828 -0.077393
993.39453125 0.8297840000000001 0.769989 -0.059795
993.62109375 0.226319 0.035958 -0.190361
994.23046875 0.836739 0.364833 -0.471906
994.9609375 0.9494429999999999 0.604443 -0.345
995.44140625 0.197707 -0.005054 -0.202761
995.83984375 0.341174 -0.113742 -0.454916
996.04296875 0.116892 -0.267324 -0.384216
996.375 0.8177840000000001 0.275 -0.542784
996.59375 0.194313 -0.453848 -0.648161
996.9296875 0.839178 0.344559 -0.494619
997.56640625 0.703908 0.722424 0.018516
998.21484375 0.751964 0.766095 0.014131
998.9296875 0.7449749999999999 0.425 -0.319975
999.48828125 0.638751 0.465392 -0.173359
1000.08203125 0.58387 0.605575 0.021705
1000.62109375 0.067452 0.03278 -0.034672
1000.9375 0.705693 0.597162 -0.108531
1001.15625 0.192965 -0.09125 -0.284215
1001.55078125 0.49402499999999994 0.154573 -0.339452
1002.0625 0.703928 0.551364 -0.152564
1002.4765625 0.626471 0.678717 0.052246
1002.88671875 0.649254 0.661725 0.012471
1003.2578125 0.617059 0.612672 -0.004387
1003.83984375 0.554744 0.284744 -0.27
1004.328125 0.62626 0.247119 -0.379141
1004.5703125 0.14031699999999997 -0.05 -0.190317
1005.06640625 0.587981 0.563352 -0.024629
1005.453125 0.06482099999999999 -0.08543 -0.150251
1005.8671875 0.116399 0.011523 -0.104876
1006.12109375 0.6987410000000001 0.374034 -0.324707
1006.36328125 0.10230299999999998 -0.345858 -0.448161
1006.58203125 0.543843 0.173843 -0.37
1006.99609375 0.6853910000000001 0.364754 -0.320637
1007.4375 0.623624 0.383672 -0.239952
1007.93359375 0.65095 0.417148 -0.233802
1008.55078125 0.549075 0.159075 -0.39
1009.3515625 0.040513999999999994 -0.339486 -0.38
1009.60546875 0.039912 -0.330029 -0.369941
1009.890625 0.726051 0.453317 -0.272734
1010.27734375 0.093629 -0.071371 -0.165
1010.62890625 0.6038 0.4288 -0.175
1011.3671875 0.439742 -0.040195 -0.479937
1011.96875 0.615885 0.229381 -0.386504
1012.4140625 0.692002 0.454797 -0.237205
1012.84375 0.52245 0.414263 -0.108187
1013.22265625 0.589634 0.388654 -0.20098
1013.83984375 0.514824 -0.02 -0.534824
1014.72265625 0.552543 0.357543 -0.195
1015.1640625 0.575475 0.389718 -0.185757
1015.78125 0.46181399999999995 0.171814 -0.29
1016.4140625 0.519252 -1.03E-4 -0.519355
1016.93359375 0.522356 0.268912 -0.253444
1017.63671875 0.557957 0.42835 -0.129607
1018.171875 0.49480999999999997 0.24981 -0.245
1018.86328125 0.438683 -0.07171 -0.510393
1019.4453125 0.48917599999999994 0.224851 -0.264325
1020.15625 0.489961 0.384961 -0.105
1020.88671875 0.10185500000000003 -0.175645 -0.2775
1021.65234375 0.596488 0.329863 -0.266625
1022.125 0.585 0.45 -0.135
1022.75390625 0.535987 0.405987 -0.13
1023.3046875 0.499457 0.134467 -0.36499
1023.8515625 0.518131 0.118337 -0.399794
1024.1875 0.03891200000000003 -0.213214 -0.252126
1024.48046875 0.615316 0.444987 -0.170329
1025.05859375 0.568133 0.384154 -0.183979
1025.88671875 0.65272 0.350454 -0.302266
1026.37109375 0.640265 0.300428 -0.339837
1026.76953125 0.6844250000000001 0.399967 -0.284458
1027.5859375 0.498062 0.244729 -0.253333
1028.02734375 0.49550900000000003 0.105509 -0.39
1028.41796875 0.189039 -0.325918 -0.514957
1029.2265625 0.742768 0.096503 -0.646265
1029.94140625 0.65735 0.417379 -0.239971
1030.375 0.765933 0.465 -0.300933
1030.80078125 0.765812 0.431333 -0.334479
1031.26953125 0.652176 0.170562 -0.481614
1031.73046875 0.599965 0.014973 -0.584992
1032.13671875 0.819258 0.384258 -0.435
1032.76171875 0.7492949999999999 0.534295 -0.215
1033.25390625 0.7426360000000001 0.530822 -0.211814
1033.76953125 0.698696 0.369946 -0.32875
1034.3671875 0.651643 0.058169 -0.593474
1034.8203125 0.8391439999999999 0.329655 -0.509489
1035.2265625 0.800387 0.467207 -0.33318
1035.94140625 0.749897 0.634897 -0.115
1036.37109375 0.819904 0.615475 -0.204429
1037.1015625 0.951053 0.438372 -0.512681
1037.30859375 0.09658800000000001 -0.476631 -0.573219
1037.671875 0.962319 0.457866 -0.504453
1037.88671875 0.094108 -0.125 -0.219108
1038.19921875 0.977943 0.76547 -0.212473
1038.609375 0.818426 0.710838 -0.107588
1039.03125 0.9797119999999999 0.777129 -0.202583
1039.37109375 0.06319499999999997 -0.171805 -0.235
1039.76171875 1.11538 0.557577 -0.557803
1040.39453125 0.839785 0.279976 -0.559809
1040.76171875 0.08632500000000001 -0.218133 -0.304458
1041.06640625 1.03848 0.89348 -0.145
1041.2890625 0.085876 -0.016624 -0.1025
1041.5 0.049809000000000006 -0.085 -0.134809
1041.921875 1.020721 0.759913 -0.260808
1042.765625 0.908298 0.243025 -0.665273
1043.0 0.08165 -0.395 -0.47665
1043.28515625 0.962788 0.535809 -0.426979
1044.1015625 1.057738 0.877738 -0.18
1044.47265625 0.18484399999999998 -0.110156 -0.295
1044.71875 0.9659690000000001 0.690969 -0.275
1045.21484375 0.9600009999999999 0.390001 -0.57
1045.52734375 0.08649600000000002 -0.375174 -0.46167
1045.8125 0.795841 0.323284 -0.472557
1046.30078125 0.982923 0.701026 -0.281897
1046.69921875 1.124856 0.821312 -0.303544
1047.109375 1.062148 0.718342 -0.343806
1048.05859375 1.058498 0.674663 -0.383835
1048.7578125 0.9662310000000001 0.574366 -0.391865
1049.2109375 1.175572 0.736784 -0.438788
1049.97265625 1.055322 0.823196 -0.232126
1050.6953125 0.982251 0.472272 -0.509979
1051.0 0.10497299999999998 -0.33 -0.434973
1051.34765625 1.132599 0.587746 -0.544853
1051.74609375 1.2239749999999998 0.666341 -0.557634
1052.15234375 1.179564 0.751441 -0.428123
1052.90234375 1.077574 0.713553 -0.364021
1053.40234375 0.898264 0.403264 -0.495
1053.87890625 0.911225 0.257951 -0.653274
1054.515625 1.085 0.57 -0.515
1055.5078125 1.148547 0.940136 -0.208411
1056.1640625 1.050754 0.841662 -0.209092
1056.8203125 1.02256 0.738372 -0.284188
1057.25 1.228511 0.82 -0.408511
1057.83984375 1.126677 0.686708 -0.439969
1058.22265625 1.38753 1.07253 -0.315
1059.02734375 0.941882 0.438207 -0.503675
1059.828125 1.089474 0.929022 -0.160452
1060.3203125 1.113127 0.833869 -0.279258
1060.734375 1.105967 0.5518 -0.554167
1061.2578125 1.039658 0.299997 -0.739661
1061.8359375 0.9874290000000001 0.304248 -0.683181
1062.2890625 1.149399 0.469484 -0.679915
1062.9296875 1.2365469999999998 1.063327 -0.17322
1063.15234375 0.284836 0.085164 -0.199672
1063.515625 1.113811 0.978811 -0.135
1064.2578125 1.116085 0.991151 -0.124934
1064.984375 1.059271 0.739271 -0.32
1065.62109375 0.969959 0.489972 -0.479987
1066.046875 1.228893 0.758625 -0.470268
1066.42578125 1.0840049999999999 0.775 -0.309005
1066.9765625 0.977986 0.823994 -0.153992
1067.375 1.13555 1.01 -0.12555
1067.7890625 1.164026 0.759202 -0.404824
1068.5078125 1.013769 0.408769 -0.605
1068.74609375 0.24263200000000001 -0.082121 -0.324753
1069.23046875 1.203323 1.039955 -0.163368
1069.4375 0.081238 -0.088705 -0.169943
1069.80078125 0.965345 0.690519 -0.274826
1070.2265625 1.289852 0.709852 -0.58
1070.84765625 1.013943 0.595529 -0.418414
1071.4140625 0.07863500000000001 -0.540076 -0.618711
1071.72265625 1.313145 0.599587 -0.713558
1071.9765625 0.029237000000000013 -0.430294 -0.459531
1072.875 1.063453 0.665 -0.398453
1073.36328125 0.979142 0.341437 -0.637705
1074.00390625 1.1363240000000001 0.691843 -0.444481
1074.734375 1.137623 0.882623 -0.255
1075.328125 0.05906600000000001 -0.185885 -0.244951
1076.55078125 1.200816 1.084913 -0.115903
1077.8203125 1.290026 1.128588 -0.161438
1078.359375 1.005292 0.767726 -0.237566
1079.2734375 1.185653 0.881174 -0.304479
1080.3828125 1.120578 0.728829 -0.391749
1080.8671875 0.6698069999999999 0.149855 -0.519952
1082.015625 1.224141 1.105983 -0.118158
1082.46484375 0.610823 0.375908 -0.234915
1083.7265625 1.2569180000000002 1.011918 -0.245
1084.203125 0.25304 0.055538 -0.197502
1085.421875 1.223922 0.753922 -0.47
1086.57421875 1.3418100000000002 1.273365 -0.068445
1087.6171875 1.274592 1.180363 -0.094229
1088.62109375 1.201 0.675192 -0.525808
1089.0625 1.581444 1.269177 -0.312267
1090.08203125 1.154299 1.160773 0.006474
1091.0859375 0.349694 -0.06348 -0.413174
1091.84375 1.266591 1.331591 0.065
1092.67578125 1.174941 1.075157 -0.099784
1093.4140625 1.0428 0.758919 -0.283881
1094.17578125 1.021772 0.51855 -0.503222
1094.96875 0.9424840000000001 0.197563 -0.744921
1095.765625 1.232166 1.152751 -0.079415
1096.6171875 1.154017 0.961063 -0.192954
1097.46484375 0.839271 0.21731 -0.621961
1098.23828125 1.167723 0.887723 -0.28
1099.01171875 1.102482 0.878752 -0.22373
1099.86328125 0.946915 0.516915 -0.43
1100.625 1.153262 1.045 -0.108262
1101.453125 1.032969 0.880467 -0.152502
1102.30859375 0.945881 0.513766 -0.432115
1103.109375 1.162124 1.032124 -0.13
1103.921875 1.071582 0.808145 -0.263437
1104.73828125 1.0174530000000002 0.759144 -0.258309
1105.4375 1.034059 0.880776 -0.153283
1106.2734375 1.019451 0.734888 -0.284563
1106.9375 0.30501 -0.114643 -0.419653
1107.88671875 0.849972 0.101348 -0.748624
1108.70703125 1.163888 0.851193 -0.312695
1109.55859375 1.07598 0.992973 -0.083007
1110.2265625 0.399621 0.010021 -0.3896
1111.12109375 1.09511 0.93517 -0.15994
1111.84375 1.105864 1.005878 -0.099986
1112.703125 0.960429 0.553324 -0.407105
1113.5 0.9849870000000001 0.885 -0.099987
1114.3125 1.064824 1.033708 -0.031116
1115.1484375 0.935119 0.767995 -0.167124
1115.859375 0.32375 -0.116504 -0.440254
1116.71484375 1.036971 0.900557 -0.136414
1117.5703125 0.9325230000000001 0.931556 -9.67E-4
1118.2109375 0.43568599999999996 0.010686 -0.425
1119.16015625 1.058052 1.062544 0.004492
1119.91796875 0.87174 0.901948 0.030208
1120.35546875 1.374115 1.135298 -0.238817
1121.57421875 1.172495 1.092378 -0.080117
1122.0625 1.087846 0.836855 -0.250991
1123.1171875 1.079373 0.538222 -0.541151
1123.7578125 0.949558 0.45201 -0.497548
1124.69921875 1.042137 1.113093 0.070956
1125.4375 0.902895 0.594444 -0.308451
1125.8671875 1.243436 0.803675 -0.439761
1126.9921875 0.995139 0.910139 -0.085
1127.69921875 0.739136 0.716896 -0.02224
1128.57421875 0.7148140000000001 0.4902 -0.224614
1129.38671875 0.714563 0.619702 -0.094861
1130.2109375 0.633224 0.209301 -0.423923
1130.62890625 1.1344379999999998 0.591 -0.543438
1131.70703125 0.840266 0.765998 -0.074268
1132.18359375 0.75526 0.619764 -0.135496
1133.1796875 0.617966 0.118779 -0.499187
1134.0625 0.6510779999999999 0.478187 -0.172891
1134.88671875 0.551878 0.546878 -0.0050
1135.7109375 0.45962899999999995 0.234863 -0.224766
1136.50390625 0.456459 0.00671 -0.449749
1137.3828125 0.6031070000000001 0.668107 0.065
1138.25390625 0.46499999999999997 0.48 0.015
1139.125 0.483043 0.07 -0.413043
1139.89453125 0.549554 0.399889 -0.149665
1140.7421875 0.538632 0.531139 -0.007493
1141.35546875 0.20002400000000004 -0.149605 -0.349629
1142.30859375 0.542079 0.304558 -0.237521
1143.05078125 0.48373 0.445839 -0.037891
1144.39453125 0.476273 0.135278 -0.340995
1145.48046875 0.574938 0.489994 -0.084944
1145.93359375 0.6637270000000001 0.572926 -0.090801
1146.94140625 0.638701 0.469951 -0.16875
1147.82421875 0.564561 0.309561 -0.255
1148.625 0.618916 0.62 0.001084
1149.07421875 0.845404 0.660436 -0.184968
1150.15234375 0.6664829999999999 0.448115 -0.218368
1150.84375 0.463936 0.388679 -0.075257
1151.953125 0.478003 0.074862 -0.403141
1152.91796875 0.733102 0.733511 4.09E-4
1153.34765625 0.719374 0.639374 -0.08
1154.375 0.713754 0.395 -0.318754
1154.85546875 0.775 0.52 -0.255
1155.87890625 0.718036 0.612606 -0.10543
1156.37890625 0.7078679999999999 0.554086 -0.153782
1157.390625 0.647104 0.33214 -0.314964
1157.8515625 0.871326 0.349712 -0.521614
1158.90625 0.820916 0.742556 -0.07836
1159.53515625 0.560701 0.092765 -0.467936
1160.66015625 0.8114809999999999 0.698081 -0.1134
1161.42578125 0.578453 0.18379 -0.394663
1162.66796875 0.8571949999999999 0.797195 -0.06
1163.16015625 0.8364849999999999 0.761485 -0.075
1164.1484375 0.7640979999999999 0.533662 -0.230436
1164.6171875 0.938623 0.608652 -0.329971
1165.65234375 0.9429299999999999 1.038223 0.095293
1166.109375 0.8705449999999999 0.868593 -0.001952
1167.08984375 0.78772 0.579185 -0.208535
1167.56640625 1.059475 0.96245 -0.097025
1168.66796875 0.873992 0.928758 0.054766
1169.1328125 0.9187590000000001 0.588056 -0.330703
1170.19140625 0.93717 0.889489 -0.047681
1170.6640625 0.9725 0.829689 -0.142811
1171.63671875 0.869319 0.529319 -0.34
1172.07421875 0.913173 0.279016 -0.634157
1173.13671875 0.952147 0.871382 -0.080765
1173.62890625 0.933501 0.683818 -0.249683
1174.65625 0.8975219999999999 0.341756 -0.555766
1175.1328125 1.2028020000000001 0.834134 -0.368668
1175.83203125 1.046684 0.953843 -0.092841
1176.984375 0.988513 0.589032 -0.399481
1178.0703125 1.1445130000000001 1.031992 -0.112521
1178.66015625 0.873756 0.791165 -0.082591
1179.11328125 0.9567319999999999 0.773712 -0.18302
1180.0859375 0.958329 0.809713 -0.148616
1180.58203125 1.654638 1.581255 -0.073383
1181.5234375 0.9791139999999999 0.861895 -0.117219
1182.01171875 1.100547 0.488501 -0.612046
1183.01953125 1.30161 1.219735 -0.081875
1183.4921875 1.0307490000000001 0.793239 -0.23751
1184.4453125 1.081533 0.503854 -0.577679
1184.9296875 1.613167 1.339798 -0.273369
1185.9296875 1.285479 1.105479 -0.18
1186.546875 1.031453 0.531615 -0.499838
1187.5390625 1.190381 0.956646 -0.233735
1188.171875 1.046035 0.908077 -0.137958
1189.1171875 1.189582 0.769816 -0.419766
1189.59765625 1.116279 0.719873 -0.396406
1190.484375 1.338234 1.23497 -0.103264
1191.02734375 1.1342240000000001 0.702584 -0.43164
1192.0 1.288923 1.175 -0.113923
1192.62109375 0.9819260000000001 0.768228 -0.213698
1193.02734375 1.4735 1.11437 -0.35913
1193.88671875 1.259927 1.150819 -0.109108
1194.453125 0.99348 0.76341 -0.23007
1195.31640625 1.1456629999999999 0.879073 -0.26659
1195.90625 0.9741690000000001 0.569254 -0.404915
1196.80078125 1.1088580000000001 0.621788 -0.48707
1197.359375 1.183144 0.723774 -0.45937
1198.3203125 1.1803219999999999 1.02301 -0.157312
1198.90625 0.988861 0.557422 -0.431439
1199.84765625 1.2841 1.104577 -0.179523
1200.40625 1.046538 0.744079 -0.302459
1201.33203125 1.283164 0.823164 -0.46
1201.84375 1.105288 0.926816 -0.178472
1202.75 1.3194229999999998 1.255 -0.064423
1203.3046875 0.969168 0.749012 -0.220156
1203.703125 1.611319 1.421319 -0.19
1204.65234375 1.19318 0.864729 -0.328451
1205.23046875 0.9895720000000001 0.459386 -0.530186
1206.1796875 1.224042 1.17937 -0.044672
1206.6484375 1.0782720000000001 0.73834 -0.339932
1207.5703125 1.4472960000000001 0.96247 -0.484826
1208.08203125 1.06832 0.935844 -0.132476
1209.109375 1.26643 1.074295 -0.192135
1209.60546875 1.1633 0.564744 -0.598556
1210.69140625 1.240824 1.128402 -0.112422
1211.15234375 1.390696 1.188005 -0.202691
1212.1640625 1.078722 0.667171 -0.411551
1212.6484375 1.210959 0.583629 -0.62733
1213.6015625 1.343594 1.317693 -0.025901
1214.0390625 1.259177 1.103985 -0.155192
1215.0625 1.143038 0.8486 -0.294438
1215.546875 1.228717 0.597983 -0.630734
1216.58984375 1.2780200000000002 1.299859 0.021839
1217.0546875 1.25604 1.18746 -0.06858
1218.0859375 1.152988 0.80987 -0.343118
1218.54296875 1.232819 0.62002 -0.612799
1219.546875 1.155798 1.096454 -0.059344
1219.98828125 1.16819 0.944752 -0.223438
1220.3125 1.554264 1.299643 -0.254621
1221.0078125 1.1752090000000002 0.644174 -0.531035
1221.4765625 1.336668 0.631668 -0.705
1222.0625 1.251831 0.9658 -0.286031
1222.57421875 1.097051 0.812449 -0.284602
1222.796875 0.059331999999999996 0.030853 -0.028479
1223.41796875 1.194021 0.62 -0.574021
1223.88671875 1.9137179999999998 1.148718 -0.765
1224.26171875 1.1779169999999999 0.69 -0.487917
1224.66015625 0.027412000000000006 -0.067216 -0.094628
1225.01171875 1.2568899999999998 1.027081 -0.229809
1225.328125 0.039999999999999994 -0.065 -0.105
1225.55859375 1.080767 0.849734 -0.231033
1225.765625 0.10707499999999999 -0.090156 -0.197231
1225.99609375 0.97637 0.47637 -0.5
1226.203125 0.05878899999999998 -0.38957 -0.448359
1226.44921875 1.024659 0.639759 -0.3849
1226.6640625 0.072451 0.01494 -0.057511
1226.9453125 1.170681 1.032737 -0.137944
1228.00390625 0.963363 0.858406 -0.104957
1228.9296875 0.948965 0.42923 -0.519735
1229.99609375 1.149659 1.07722 -0.072439
1231.11328125 1.121223 0.871721 -0.249502
1232.23046875 1.237287 0.94979 -0.287497
1233.36328125 1.332887 0.96701 -0.365877
1233.984375 0.999264 0.739264 -0.26
1235.1484375 1.081353 0.661516 -0.419837
1235.62109375 1.2707220000000001 0.674361 -0.596361
1236.140625 1.09074 0.715891 -0.374849
1237.265625 1.047518 1.021817 -0.025701
1237.7109375 1.436599 1.064574 -0.372025
1238.24609375 0.9987649999999999 0.437985 -0.56078
1239.37109375 1.034117 1.029117 -0.0050
1239.8359375 1.315944 1.239931 -0.076013
1240.5625 1.081904 1.016929 -0.064975
1241.01171875 1.112696 0.694198 -0.418498
1241.48828125 1.1348470000000002 0.492927 -0.64192
1241.8984375 1.2538 1.005621 -0.248179
1242.32421875 1.211053 1.146698 -0.064355
1242.77734375 1.076143 1.008971 -0.067172
1243.2109375 1.10893 0.945 -0.16393
1243.6328125 1.058676 0.686267 -0.372409
1244.14453125 0.967283 0.483455 -0.483828
1245.49609375 1.0775780000000001 1.132829 0.055251
1246.50390625 0.8473089999999999 0.542356 -0.304953
1247.83203125 1.040409 0.751366 -0.289043
1249.140625 1.042749 0.922813 -0.119936
1249.59765625 1.203177 0.763961 -0.439216
1250.12890625 0.8857269999999999 0.320727 -0.565
1251.3984375 0.945186 0.94792 0.002734
1251.89453125 0.884035 0.831074 -0.052961
1252.63671875 0.9302630000000001 0.714747 -0.215516
1253.765625 0.878997 0.904248 0.025251
1254.23828125 1.000613 0.965 -0.035613
1254.9296875 0.853836 0.792575 -0.061261
1255.9765625 0.745622 0.541101 -0.204521
1256.4140625 1.0561159999999998 0.94161 -0.114506
1257.16796875 0.7473650000000001 0.333721 -0.413644
1257.7109375 0.736096 0.344977 -0.391119
1258.32421875 0.690693 0.676604 -0.014089
1258.75390625 0.667165 0.692172 0.025007
1259.171875 0.632637 0.618516 -0.014121
1259.58984375 0.56433 0.235251 -0.329079
1259.79296875 0.09814800000000001 -0.271852 -0.37
1260.01171875 0.04422200000000004 -0.290778 -0.335
1260.2578125 0.592592 0.362592 -0.23
1260.7578125 0.5824710000000001 0.573173 -0.009298
1261.16796875 0.651194 0.568824 -0.08237
1261.58984375 0.04860899999999999 -0.025 -0.073609
1262.234375 0.08528999999999998 -0.2625 -0.34779
1262.57421875 0.7171559999999999 0.30343 -0.413726
1263.04296875 0.7578050000000001 0.696204 -0.061601
1264.32421875 0.7818590000000001 0.662815 -0.119044
1265.4453125 0.705743 0.620743 -0.085
1266.62109375 0.89751 0.668048 -0.229462
1267.71484375 0.647151 0.422515 -0.224636
1268.76171875 0.825203 0.479084 -0.346119
1269.828125 0.829818 0.539818 -0.29
1270.8828125 0.828073 0.604401 -0.223672
1271.43359375 0.65652 0.506567 -0.149953
1272.375 0.907815 0.62 -0.287815
1272.9453125 0.6404350000000001 0.510441 -0.129994
1273.3203125 1.147306 0.872356 -0.27495
1273.8828125 0.643851 0.520843 -0.123008
1274.78125 0.7425889999999999 0.189658 -0.552931
1275.73046875 0.80943 0.734949 -0.074481
1276.3359375 0.627854 0.294854 -0.333
1276.75 1.1836289999999998 0.815 -0.368629
1277.140625 0.8545429999999999 0.692054 -0.162489
1277.64453125 0.8899140000000001 0.744974 -0.14494
1277.9375 0.04867199999999999 -0.065 -0.113672
1278.140625 0.939548 0.678689 -0.260859
1278.36328125 0.148471 0.023842 -0.124629
1278.6328125 0.7288589999999999 0.508478 -0.220381
1278.85546875 0.06797900000000001 -0.134795 -0.202774
1279.08984375 0.036548 -0.226957 -0.263505
1279.30859375 0.036253000000000035 -0.285622 -0.321875
1279.59765625 0.6184620000000001 0.146382 -0.47208
1280.07421875 0.773139 0.688565 -0.084574
1280.42578125 1.2925389999999999 1.169582 -0.122957
1280.8515625 0.858502 0.529631 -0.328871
1281.47265625 0.647711 0.247711 -0.4
1282.25 0.845161 0.64 -0.205161
1283.09375 0.711519 0.532391 -0.179128
1284.00390625 1.051336 0.649069 -0.402267
1284.58984375 0.253836 0.032698 -0.221138
1284.91015625 0.838219 0.592102 -0.246117
1285.1953125 0.254467 0.034467 -0.22
1285.703125 0.792323 0.631047 -0.161276
1286.109375 1.080575 0.705 -0.375575
1286.52734375 0.870468 0.20606 -0.664408
1287.17578125 0.878988 0.649089 -0.229899
1287.5703125 0.08645199999999997 -0.278488 -0.36494
1287.84375 0.8112159999999999 0.446992 -0.364224
1288.265625 1.606274 0.881846 -0.724428
1288.640625 0.5190870000000001 -0.254639 -0.773726
1288.9765625 0.988875 0.803875 -0.185
1289.8828125 1.281007 0.976642 -0.304365
1290.7734375 1.069505 0.624852 -0.444653
1291.62109375 1.049142 0.869142 -0.18
1292.375 0.964259 0.67 -0.294259
1293.18359375 1.01438 0.444614 -0.569766
1293.9765625 1.127148 0.773519 -0.353629
1294.78515625 1.0839370000000002 0.537008 -0.546929
1295.20703125 1.382149 0.743869 -0.63828
1295.640625 0.09903400000000001 -0.165923 -0.264957
1295.99609375 1.216762 0.816823 -0.399939
1296.4765625 1.190881 0.631783 -0.559098
1297.3359375 1.128671 0.9437 -0.184971
1298.24609375 1.198165 0.858165 -0.34
1299.17578125 1.149303 0.809694 -0.339609
1300.109375 1.1556620000000002 1.03635 -0.119312
1300.94140625 1.04698 0.692536 -0.354444
1301.33984375 1.297035 0.732035 -0.565
1301.7109375 1.3392840000000001 0.574284 -0.765
1302.671875 1.192827 1.058669 -0.134158
1303.53515625 1.070157 0.681019 -0.389138
1303.953125 1.272371 0.658465 -0.613906
1304.28125 1.644819 0.896972 -0.747847
1304.7265625 1.144558 0.789766 -0.354792
1305.5078125 1.093331 0.930122 -0.163209
1306.3125 0.924348 0.414375 -0.509973
1307.1875 1.167584 0.611682 -0.555902
1307.94140625 1.226242 0.949652 -0.27659
1308.70703125 1.107197 0.763393 -0.343804
1309.4765625 0.891057 0.299766 -0.591291
1310.1796875 1.267307 1.029872 -0.237435
1310.98828125 1.162029 1.054621 -0.107408
1311.4375 1.337634 1.174562 -0.163072
1312.59375 1.173824 0.688824 -0.485
1313.06640625 1.259659 1.004659 -0.255
1313.7734375 1.106559 0.901559 -0.205
1314.2109375 1.244501 0.899596 -0.344905
1314.6015625 1.2546490000000001 0.704935 -0.549714
1315.625 1.044954 0.975 -0.069954
1316.05859375 1.289377 1.214437 -0.07494
1316.57421875 0.9790719999999999 0.696479 -0.282593
1317.6171875 1.051735 0.939207 -0.112528
1318.0859375 1.4158700000000002 1.324391 -0.091479
1318.640625 0.999355 0.939467 -0.059888
1319.703125 1.277752 0.784914 -0.492838
1320.25390625 1.014136 0.78915 -0.224986
1321.29296875 1.1875149999999999 0.874505 -0.31301
1321.96484375 1.01082 0.214261 -0.796559
1322.3515625 1.4814850000000002 1.042966 -0.438519
1323.38671875 1.156115 0.961132 -0.194983
1323.8984375 0.9634450000000001 0.435 -0.528445
1324.27734375 1.640647 0.956185 -0.684462
1324.7890625 1.4037330000000001 1.159356 -0.244377
1325.28515625 1.0575 0.871938 -0.185562
1326.14453125 1.030235 0.584814 -0.445421
1326.9921875 1.0923800000000001 0.958659 -0.133721
1327.76171875 1.076516 0.657617 -0.418899
1328.66015625 0.954016 0.634485 -0.319531
1329.10546875 1.384793 1.144793 -0.24
1329.5078125 1.088769 0.883857 -0.204912
1329.921875 0.937108 0.50482 -0.432288
1330.4453125 0.885223 0.140479 -0.744744
1331.0546875 1.148752 0.726186 -0.422566
1331.421875 1.774505 1.508002 -0.266503
1331.88671875 1.1337920000000001 0.953987 -0.179805
1332.28515625 0.018884000000000012 -0.170901 -0.189785
1332.48828125 0.10304600000000003 -0.231954 -0.335
1333.01953125 1.722778 0.87 -0.852778
1333.4453125 1.135575 0.716615 -0.41896
1334.3046875 1.068731 0.965485 -0.103246
1335.25 0.981906 0.48 -0.501906
1336.2890625 1.258081 1.07207 -0.186011
1337.24609375 1.009349 0.685621 -0.323728
1338.16796875 0.9874339999999999 0.617494 -0.36994
1339.15625 1.31414 0.859675 -0.454465
1339.9921875 1.212998 0.992238 -0.22076
1340.40625 1.3412439999999999 1.151244 -0.19
1340.80859375 1.066009 0.467867 -0.598142
1341.1953125 1.211659 0.90705 -0.304609
1341.7109375 1.1568100000000001 0.989867 -0.166943
1342.2890625 0.984691 0.839697 -0.144994
1342.96484375 0.9842489999999999 0.138694 -0.845555
1343.46875 1.279772 0.739872 -0.5399
1343.98046875 0.971675 0.664901 -0.306774
1344.21875 0.04683399999999999 -0.135391 -0.182225
1344.46875 1.043203 0.768203 -0.275
1344.890625 0.982063 0.632344 -0.349719
1345.3359375 0.9690350000000001 0.574397 -0.394638
1345.765625 0.869696 0.296703 -0.572993
1346.75390625 1.112161 0.747185 -0.364976
1347.734375 1.013216 0.803276 -0.20994
1348.87109375 1.006765 0.504145 -0.50262
1349.83984375 1.129374 1.094195 -0.035179
1351.0625 1.148684 0.83 -0.318684
1352.265625 1.085692 0.940948 -0.144744
1352.71875 1.324087 1.01692 -0.307167
1353.90234375 1.1613390000000001 0.754036 -0.407303
1354.4140625 1.135761 0.934769 -0.200992
1355.27734375 1.045356 0.799339 -0.246017
1355.7265625 1.148154 0.603154 -0.545
1356.34375 1.2681419999999999 0.853142 -0.415
1356.8125 1.105362 0.817647 -0.287715
1357.21875 0.051761999999999996 -0.04175 -0.093512
1357.5859375 0.06222900000000001 -0.179532 -0.241761
1358.08203125 1.010808 0.273704 -0.737104
1358.41796875 0.473155 -0.356488 -0.829643
1358.890625 1.22961 0.924188 -0.305422
1359.40234375 0.031070000000000007 -0.03893 -0.07
1359.64453125 1.0162 0.744767 -0.271433
1359.8671875 0.044363 -0.070637 -0.115
1360.08203125 0.097937 -0.257063 -0.355
1360.60546875 0.82965 0.034839 -0.794811
1361.0859375 0.9650000000000001 0.5 -0.465
1362.265625 1.146737 0.906737 -0.24
1363.1640625 1.05358 0.959117 -0.094463
1364.19921875 0.886005 0.533738 -0.352267
1365.46484375 0.86494 0.652753 -0.212187
1366.734375 0.9261699999999999 0.307166 -0.619004
1367.875 0.774916 0.56 -0.214916
1368.34375 0.934094 0.504094 -0.43
1369.3828125 0.975854 0.635892 -0.339962
1369.84765625 0.913897 0.669412 -0.244485
1370.6015625 0.793157 0.658157 -0.135
1371.05859375 0.934434 0.404466 -0.529968
1371.796875 0.678717 -0.302064 -0.980781
1372.44921875 0.09961799999999998 -0.690538 -0.790156
1372.859375 0.7671250000000001 0.643773 -0.123352
1373.26171875 1.04449 1.187841 0.143351
1373.53125 0.04999999999999999 0.36 0.31
1373.90234375 0.8765520000000001 1.107722 0.23117
1374.3984375 0.04284200000000005 0.317966 0.275124
1374.96484375 0.62725 0.722383 0.095133
1375.49609375 0.773532 0.707568 -0.065964
1375.94921875 0.79188 0.817578 0.025698
1376.18359375 0.03494499999999999 0.145 0.110055
1376.4140625 0.03453200000000001 0.159971 0.125439
1376.8984375 1.122617 0.887617 -0.235
1377.9453125 0.744484 0.729484 -0.015
1378.9609375 0.7395229999999999 0.624559 -0.114964
1379.94921875 0.5845290000000001 0.400699 -0.18383
1381.1640625 0.620023 0.319868 -0.300155
1382.4140625 0.658381 0.459713 -0.198668
1383.46875 0.530894 0.113333 -0.417561
1383.93359375 0.9318029999999999 0.449697 -0.482106
1384.5625 0.589668 0.285547 -0.304121
1385.01171875 0.57974 0.14474 -0.435
1385.44140625 0.626325 0.324577 -0.301748
1385.89453125 0.579637 0.264888 -0.314749
1386.35546875 0.565428 0.215557 -0.349871
1386.7890625 0.618035 0.279734 -0.338301
1387.1640625 0.03694 -0.190168 -0.227108
1387.421875 0.49294899999999997 0.203624 -0.289325
1387.796875 0.05885400000000002 -0.170677 -0.229531
1388.46875 0.520782 0.361016 -0.159766
1389.58203125 0.53895 0.410476 -0.128474
1390.64453125 0.479247 0.214273 -0.264974
1391.94921875 0.669733 0.332363 -0.33737
1393.1953125 0.60327 0.138346 -0.464924
1394.19921875 0.811745 0.791745 -0.02
1395.12109375 0.708372 0.42986 -0.278512
1396.16796875 0.8114210000000001 0.55227 -0.259151
1396.62109375 1.201486 1.11178 -0.089706
1397.76953125 0.9499369999999999 0.874937 -0.075
1398.77734375 0.735119 0.241384 -0.493735
1399.21484375 1.315264 0.705725 -0.609539
1399.8828125 1.04889 0.959137 -0.089753
1400.27734375 1.372804 1.178015 -0.194789
1400.83203125 0.943943 0.402506 -0.541437
1401.25390625 1.7464439999999999 1.339882 -0.406562
1402.4296875 1.101978 1.102601 6.23E-4
1403.34765625 0.981624 0.372168 -0.609456
1404.23828125 1.155933 0.720933 -0.435
1405.078125 1.0345309999999999 0.419219 -0.615312
1405.890625 1.025201 0.44 -0.585201
1406.71875 1.076664 0.826923 -0.249741
1407.5703125 0.927359 0.33758 -0.589779
1408.40625 1.084339 0.854425 -0.229914
1409.16796875 0.988413 0.74521 -0.243203
1410.0390625 0.929747 0.274343 -0.655404
1410.4609375 1.637194 1.329577 -0.307617
1411.5390625 1.2021 1.099611 -0.102489
1412.61328125 1.097206 0.856738 -0.240468
1413.0859375 1.304331 1.049331 -0.255
1413.78515625 1.255562 1.046416 -0.209146
1414.22265625 1.394508 0.986807 -0.407701
1414.53125 0.033401000000000014 -0.202344 -0.235745
1414.76953125 1.160834 0.676329 -0.484505
1415.00390625 0.053005 -0.174757 -0.227762
1415.27734375 1.014055 0.644055 -0.37
1415.6953125 0.050497000000000014 -0.192659 -0.243156
1416.375 0.928708 0.395 -0.533708
1417.3515625 1.2027899999999998 0.565993 -0.636797
1418.33984375 1.2344849999999998 0.825 -0.409485
1419.41015625 0.922947 0.215725 -0.707222
1420.234375 1.0709620000000002 0.646341 -0.424621
1421.0546875 1.083753 0.942593 -0.14116
1421.890625 1.034001 0.844851 -0.18915
1422.57421875 0.35188699999999995 -0.108067 -0.459954
1423.44140625 1.107227 0.973369 -0.133858
1424.18359375 1.076841 0.984798 -0.092043
1425.05078125 0.910855 0.762158 -0.148697
1425.89453125 0.994918 0.749918 -0.245
1426.671875 1.117074 0.958849 -0.158225
1427.55859375 1.0696409999999998 0.87745 -0.192191
1428.0 1.2947099999999998 1.005 -0.28971
1428.7109375 1.14452 0.66952 -0.475
1430.07421875 1.060654 0.840458 -0.220196
1430.8046875 0.880045 0.432595 -0.44745
1432.03125 1.057496 0.757496 -0.3
1432.51953125 1.06571 0.735564 -0.330146
1433.21875 1.0568490000000001 0.733346 -0.323503
1434.40625 1.179129 0.865938 -0.313191
1435.39453125 1.151206 0.999773 -0.151433
1435.828125 1.291991 0.991225 -0.300766
1436.421875 1.067027 0.624821 -0.442206
1436.85546875 1.41438 0.89986 -0.51452
1437.1640625 0.15997100000000003 -0.375029 -0.535
1437.42578125 1.241181 0.892983 -0.348198
1438.0625 0.968341 0.728341 -0.24
1438.92578125 1.012694 0.698901 -0.313793
1440.09375 0.978154 0.673272 -0.304882
1441.23828125 1.129099 0.93 -0.199099
1441.7265625 1.0376219999999998 0.641793 -0.395829
1442.44140625 1.053101 0.669902 -0.383199
1443.66796875 1.224194 1.074972 -0.149222
1444.85546875 1.2752080000000001 0.954786 -0.320422
1445.42578125 0.993632 0.695398 -0.298234
1445.9453125 0.08175 -0.002472 -0.084222
1446.28515625 1.007854 0.908655 -0.099199
1447.2890625 1.072028 0.964821 -0.107207
1448.3984375 1.108965 1.027934 -0.081031
1448.91796875 0.9886959999999999 0.90948 -0.079216
1449.48828125 1.0125 0.924454 -0.088046
1450.6171875 0.9255229999999999 0.568444 -0.357079
1451.08984375 1.567369 1.317369 -0.25
1451.59765625 1.16942 1.01942 -0.15
1452.21875 1.042552 0.940145 -0.102407
1452.67578125 1.106983 0.758964 -0.348019
1453.078125 1.027718 0.658824 -0.368894
1453.48046875 1.194757 0.889947 -0.30481
1453.87890625 1.2247020000000002 0.973937 -0.250765
1454.27734375 0.036543000000000006 -0.023232 -0.059775
1454.52734375 0.966503 0.863425 -0.103078
1455.89453125 1.214795 1.0199 -0.194895
1457.1875 1.069407 0.691339 -0.378068
1458.390625 1.215028 1.060028 -0.155
1459.484375 1.218989 0.739456 -0.479533
1460.05859375 1.034236 0.714236 -0.32
1460.4765625 1.237295 0.982295 -0.255
1461.51953125 1.00121 0.72991 -0.2713
1462.01171875 1.405581 1.069906 -0.335675
1463.10546875 1.187066 1.05493 -0.132136
1463.74609375 0.883767 0.684361 -0.199406
1464.16796875 0.9851289999999999 0.880161 -0.104968
1464.7265625 0.8521890000000001 0.660375 -0.191814
1465.1875 0.985309 0.516803 -0.468506
1465.76953125 0.727714 0.573183 -0.154531
1466.13671875 1.66057 1.446061 -0.214509
1466.5703125 1.0524360000000001 0.712435 -0.340001
1466.95703125 1.214793 1.08504 -0.129753
1467.69140625 0.8257779999999999 0.659731 -0.166047
1468.83984375 0.7839700000000001 0.643057 -0.140913
1469.9296875 0.7926340000000001 0.362634 -0.43
1470.37890625 1.187321 0.824882 -0.362439
1471.08984375 0.9611810000000001 0.819246 -0.141935
1471.5 1.367653 1.085 -0.282653
1471.9921875 0.918329 0.343717 -0.574612
1473.2578125 1.168733 1.019121 -0.149612
1474.42578125 0.7409939999999999 0.558572 -0.182422
1475.59765625 1.059872 0.984872 -0.075
1476.671875 0.8352839999999999 0.543159 -0.292125
1477.70703125 1.067923 0.886021 -0.181902
1478.70703125 1.099059 0.629938 -0.469121
1479.66015625 0.872733 0.697924 -0.174809
1480.12109375 1.038486 0.873716 -0.16477
1480.49609375 0.9520299999999999 0.748853 -0.203177
1481.0234375 0.669003 0.399003 -0.27
1481.47265625 0.108259 -0.020818 -0.129077
1482.10546875 0.059993000000000005 0.089993 0.03
1482.35546875 0.034280000000000005 0.039689 0.005409
1482.578125 0.7656099999999999 0.545391 -0.220219
1482.82421875 0.036604 -0.212103 -0.248707
1483.0546875 0.760219 0.240875 -0.519344
1483.2578125 0.11074300000000001 -0.248507 -0.35925
1483.5 1.130913 0.63 -0.500913
1483.9921875 0.965893 0.714608 -0.251285
1484.5390625 0.845262 0.644409 -0.200853
1485.03125 0.7083550000000001 0.614773 -0.093582
1485.91796875 0.866026 0.742806 -0.12322
1486.8984375 0.817509 0.217932 -0.599577
1487.9296875 0.892737 0.625055 -0.267682
1488.859375 0.843591 0.128591 -0.715
1489.76953125 1.0646309999999999 1.134898 0.070267
1490.60546875 0.963187 1.084962 0.121775
1490.9140625 0.707457 0.479773 -0.227684
1491.35546875 0.5699339999999999 0.149934 -0.42
1492.3046875 1.071824 0.756553 -0.315271
1493.1171875 0.757076 0.612607 -0.144469
1494.0625 0.5850000000000001 0.555 -0.03
1494.82421875 0.605858 0.491896 -0.113962
1495.61328125 0.655 0.495 -0.16
1496.37890625 0.563156 0.359137 -0.204019
1497.1953125 0.67113 0.35755 -0.31358
1497.6484375 1.067455 0.791443 -0.276012
1498.01171875 1.167254 0.892283 -0.274971
1498.49609375 0.581948 0.37828 -0.203668
1498.875 1.209444 0.81 -0.399444
1499.796875 0.92508 0.537119 -0.387961
1500.4453125 0.9280360000000001 0.763252 -0.164784
1500.98828125 0.10236700000000001 -0.110314 -0.212681
1501.421875 0.625677 0.343129 -0.282548
1501.640625 0.10576699999999999 -0.120078 -0.225845
1501.87109375 0.043792 -0.202121 -0.245913
1502.29296875 0.046372000000000024 -0.332065 -0.378437
1502.52734375 0.27555999999999997 -0.13444 -0.41
1502.91015625 0.9601900000000001 0.480509 -0.479681
1503.1875 0.062054 -0.19 -0.252054
1503.44921875 0.669689 0.255874 -0.413815
1503.8515625 1.052163 0.516749 -0.535414
1504.17578125 0.049518999999999924 -0.498856 -0.548375
1504.46875 0.79565 0.363814 -0.431836
1505.046875 0.6481319999999999 0.343763 -0.304369
1505.48828125 0.705038 0.481038 -0.224
1505.80859375 0.043807 -0.076193 -0.12
1506.0546875 0.043438000000000004 -0.06 -0.103438
1506.33203125 0.727479 0.51827 -0.209209
1506.80859375 0.5664279999999999 0.279701 -0.286727
1507.01953125 0.049212000000000006 -0.140007 -0.189219
1507.26953125 0.06994599999999998 -0.205022 -0.274968
1507.66796875 0.03991600000000001 -0.13 -0.169916
1507.9140625 0.44865900000000003 0.037324 -0.411335
1508.28125 1.0272359999999998 0.423129 -0.604107
1509.28125 0.791563 0.616563 -0.175
1510.31640625 0.877815 0.554951 -0.322864
1511.28515625 0.872645 0.820747 -0.051898
1512.24609375 1.02321 0.742377 -0.280833
1513.16796875 0.8317370000000001 0.731913 -0.099824
1513.92578125 0.6956600000000001 0.539379 -0.156281
1514.68359375 0.664188 0.25953 -0.404658
1515.47265625 0.8389650000000001 0.69559 -0.143375
1516.24609375 0.8189 0.675828 -0.143072
1517.015625 0.6917599999999999 0.39676 -0.295
1517.76953125 0.919782 0.689839 -0.229943
1518.5078125 0.915088 0.776668 -0.13842
1519.10546875 0.463237 0.050371 -0.412866
1519.94921875 1.088519 0.787658 -0.300861
1520.6640625 1.0197829999999999 0.644262 -0.375521
1521.44921875 0.8711059999999999 0.486358 -0.384748
1522.21484375 1.081586 0.836611 -0.244975
1523.00390625 0.9848990000000001 0.704899 -0.28
1523.765625 0.8924000000000001 0.538057 -0.354343
1524.41796875 0.37683500000000003 -0.071235 -0.44807
1525.2578125 0.966915 0.695598 -0.271317
1525.98828125 0.950765 0.673792 -0.276973
1526.76953125 0.9248569999999999 0.569857 -0.355
1527.578125 0.999565 0.784728 -0.214837
1528.3671875 1.029917 0.786972 -0.242945
1529.16015625 0.876846 0.555178 -0.321668
1529.9375 1.011931 0.7645 -0.247431
1530.64453125 1.0672679999999999 0.799949 -0.267319
1531.50390625 0.9891129999999999 0.730961 -0.258152
1532.25 1.005117 0.67 -0.335117
1533.01171875 1.0656759999999998 0.850903 -0.214773
1533.84375 0.965465 0.80968 -0.155785
1534.55078125 0.26037600000000005 -0.06658 -0.326956
1535.078125 1.373793 1.028064 -0.345729
1535.765625 1.04165 0.644969 -0.396681
1536.19140625 1.427561 1.157656 -0.269905
1536.58203125 1.122968 0.753011 -0.369957
1536.93359375 0.05493000000000001 -0.16507 -0.22
1537.3671875 0.03904399999999997 -0.265956 -0.305
1537.78125 0.035468 -0.35043 -0.385898
1538.0 0.969122 0.545 -0.424122
1538.41796875 1.088521 0.683526 -0.404995
1538.85546875 1.0899670000000001 0.694967 -0.395
1539.3828125 1.093302 0.656295 -0.437007
1539.93359375 1.062171 0.600921 -0.46125
1540.33203125 0.073658 -0.271332 -0.34499
1540.71875 0.01757399999999998 -0.288281 -0.305855
1541.2734375 1.247658 0.841893 -0.405765
1541.703125 1.233439 0.799894 -0.433545
1542.1328125 1.120033 0.649069 -0.470964
1542.5703125 1.0062980000000001 0.476356 -0.529942
1543.01953125 1.132599 0.624964 -0.507635
1543.4765625 1.088984 0.824487 -0.264497
1543.94921875 0.09895 0.104002 0.005052
1544.73046875 1.13484 0.71484 -0.42
1545.234375 0.898729 0.423729 -0.475
1546.55859375 1.099156 0.903812 -0.195344
1547.484375 0.9336519999999999 0.608652 -0.325
1548.625 1.103262 0.885 -0.218262
1549.89453125 0.977211 0.652263 -0.324948
1551.1484375 1.1726159999999999 1.052951 -0.119665
1552.2578125 0.948094 0.488071 -0.460023
1553.1953125 1.0733030000000001 0.909428 -0.163875
1554.16015625 1.039486 0.867814 -0.171672
1554.94140625 0.934572 0.7 -0.234572
1555.69140625 0.9023669999999999 0.558472 -0.343895
1556.42578125 0.874792 0.495923 -0.378869
1557.234375 0.906765 0.652702 -0.254063
1558.03125 1.025994 0.782205 -0.243789
1558.91015625 1.000058 0.584374 -0.415684
1559.73828125 0.9237090000000001 0.606145 -0.317564
1560.46875 0.9747680000000001 0.75229 -0.222478
1561.26171875 0.980788 0.722455 -0.258333
1561.9453125 0.36723 0.01379 -0.35344
1562.84765625 0.9979169999999999 0.738619 -0.259298
1563.69140625 0.960923 0.596714 -0.364209
1564.54296875 0.951862 0.416884 -0.534978
1565.3359375 1.029272 0.723994 -0.305278
1566.09375 1.027059 0.704746 -0.322313
1566.97265625 0.959271 0.586287 -0.372984
1567.64453125 0.39038300000000004 -0.145369 -0.535752
1568.53125 1.089703 0.845585 -0.244118
1569.3828125 0.980567 0.705754 -0.274813
1569.82421875 1.350536 1.012278 -0.338258
1570.43359375 1.150734 0.528945 -0.621789
1570.90234375 1.109753 0.665 -0.444753
1571.33203125 1.127559 0.810508 -0.317051
1571.89453125 0.03995 -0.03505 -0.075
1572.21875 1.060618 0.593214 -0.467404
1572.5625 0.04942099999999999 -0.2485 -0.297921
1573.0234375 1.0756649999999999 0.413359 -0.662306
1573.47265625 1.106714 0.546396 -0.560318
1573.875 1.007514 0.58 -0.427514
1574.3203125 1.129732 0.649732 -0.48
1574.765625 1.112768 0.667768 -0.445
1575.21484375 0.912595 0.137622 -0.774973
1575.6796875 0.9836940000000001 0.200092 -0.783602
1576.1484375 1.172015 0.737015 -0.435
1576.64453125 1.189719 0.814824 -0.374895
1577.08984375 1.062791 0.808472 -0.254319
1577.61328125 1.0147240000000002 0.755573 -0.259151
1578.484375 0.992722 0.392722 -0.6
1579.6171875 1.126074 0.981128 -0.144946
1580.859375 1.038764 0.638764 -0.4
1582.19921875 0.998911 0.879696 -0.119215
1583.45703125 1.208213 0.718895 -0.489318
1584.5234375 1.157117 0.80575 -0.351367
1585.40625 1.092568 0.883684 -0.208884
1585.8359375 1.339165 1.213986 -0.125179
1586.39453125 1.261957 1.089926 -0.172031
1586.87109375 0.9767060000000001 0.571571 -0.405135
1587.26953125 1.05592 0.494224 -0.561696
1587.859375 1.075234 0.645234 -0.43
1589.0390625 1.351991 1.295 -0.056991
1590.15234375 1.0903420000000001 0.672791 -0.417551
1591.20703125 1.103945 0.93896 -0.164985
1592.22265625 1.241826 0.743754 -0.498072
1593.26171875 1.172549 0.803759 -0.36879
1594.29296875 1.00299 0.853096 -0.149894
1595.1484375 0.881474 0.446685 -0.434789
1595.5703125 1.34816 0.808323 -0.539837
1595.96484375 1.193347 0.63494 -0.558407
1596.92578125 1.0003250000000001 0.867276 -0.133049
1597.75390625 0.9202569999999999 0.655322 -0.264935
1598.1640625 1.235837 0.828676 -0.407161
1598.52734375 1.038114 0.491602 -0.546512
1598.91796875 1.078545 0.643565 -0.43498
1599.3828125 1.125218 0.780996 -0.344222
1599.96484375 0.5706960000000001 0.268274 -0.302422
1600.49609375 0.950249 0.510308 -0.439941
1601.1328125 0.9476009999999999 0.353253 -0.594348
1601.5390625 1.14711 0.754565 -0.392545
1602.125 0.907183 0.575 -0.332183
1602.8515625 0.903998 0.521586 -0.382412
1603.40625 0.812216 0.382733 -0.429483
1603.8984375 0.863273 0.444023 -0.41925
1604.26171875 0.94119 0.616358 -0.324832
1604.69140625 0.846357 0.519841 -0.326516
1605.4140625 0.7635700000000001 0.474316 -0.289254
1606.01953125 0.7203660000000001 0.309945 -0.410421
1606.89453125 0.74465 0.34965 -0.395
1607.29296875 1.192388 0.828853 -0.363535
1607.65234375 0.8874420000000001 0.438136 -0.449306
1608.046875 0.805121 0.441304 -0.363817
1608.44140625 0.816891 0.481969 -0.334922
1608.84765625 0.7615099999999999 0.41751 -0.344
1609.3046875 0.712154 0.267519 -0.444635
1609.9609375 0.694596 0.37558 -0.319016
1610.4609375 0.641626 0.366626 -0.275
1610.9296875 0.765664 0.476045 -0.289619
1611.4765625 0.624963 0.226645 -0.398318
1612.16796875 0.643331 0.311164 -0.332167
1612.72265625 0.804271 0.433264 -0.371007
1613.15625 0.786643 0.47415 -0.312493
1613.56640625 0.799272 0.505 -0.294272
1613.98046875 0.679956 0.334627 -0.345329
1614.53515625 0.609999 0.291203 -0.318796
1615.18359375 0.676521 0.464716 -0.211805
1615.75390625 0.574956 0.28 -0.294956
1616.2578125 0.55767 0.269337 -0.288333
1616.60546875 0.099995 -0.309734 -0.409729
1616.8515625 0.605831 0.136644 -0.469187
1617.5 0.728688 0.38 -0.348688
1617.75 0.17710800000000002 -0.145 -0.322108
1617.96875 0.11400000000000002 -0.161 -0.275
1618.33203125 0.7845679999999999 0.414568 -0.37
1618.671875 0.08533300000000002 -0.228988 -0.314321
1619.015625 0.47348100000000004 0.148481 -0.325
1619.40234375 0.628389 0.13902 -0.489369
1619.8203125 0.171609 -0.422659 -0.594268
1620.0546875 0.6853440000000001 0.058856 -0.626488
1620.375 0.17111900000000002 -0.285 -0.456119
1620.6171875 0.828712 0.560755 -0.267957
1620.828125 0.141932 -0.286842 -0.428774
1621.26953125 0.599287 0.229273 -0.370014
1621.98828125 0.55435 0.534975 -0.019375
1622.5390625 0.569081 0.499737 -0.069344
1623.046875 0.475788 0.243682 -0.232106
1623.8359375 0.464559 -0.005441 -0.47
1624.40234375 0.56341 0.327619 -0.235791
1625.00390625 0.556284 0.476284 -0.08
1625.26953125 0.038915 -0.055043 -0.093958
1625.58984375 0.483284 0.389354 -0.09393
1626.19921875 0.522269 0.209108 -0.313161
1626.921875 0.580265 0.044572 -0.535693
1627.3984375 0.6001559999999999 0.29789 -0.302266
1627.85546875 0.10453399999999999 -0.035027 -0.139561
1628.109375 0.707435 0.628343 -0.079092
1628.4375 0.091846 0.001667 -0.090179
1628.640625 0.5961069999999999 0.437396 -0.158711
1628.84375 0.23041999999999999 0.030161 -0.200259
1629.0546875 0.08644199999999999 -0.145824 -0.232266
1629.33984375 0.44537 0.111026 -0.334344
1629.5546875 0.036446000000000034 -0.431872 -0.468318
1629.82421875 0.19903599999999994 -0.380964 -0.58
1630.03515625 0.221424 -0.272216 -0.49364
1630.3671875 0.687268 0.433614 -0.253654
1630.58984375 0.15659399999999998 0.017231 -0.139363
1630.87890625 0.492326 0.38 -0.112326
1631.26171875 0.536437 0.446475 -0.089962
1631.63671875 0.59512 0.485244 -0.109876
1631.890625 0.07617399999999999 -0.143826 -0.22
1632.24609375 0.512907 0.144077 -0.36883
1632.453125 0.24516899999999997 -0.257352 -0.502521
1632.8359375 0.667222 0.289701 -0.377521
1633.33984375 0.05013100000000001 -0.025849 -0.07598
1633.88671875 0.045000000000000005 -0.025 -0.07
1634.3359375 0.608144 0.486101 -0.122043
1634.98828125 0.405103 0.125244 -0.279859
1635.2578125 0.1063 -0.329946 -0.436246
1635.68359375 0.42842 0.274503 -0.153917
1635.953125 0.09300399999999999 -0.070124 -0.163128
1636.34765625 0.042885 0.036218 -0.006667
1636.7734375 0.604121 0.499121 -0.105
1637.1015625 0.163008 0.045 -0.118008
1637.38671875 0.37956599999999996 0.204722 -0.174844
1637.8203125 0.099775 -0.27 -0.369775
1638.08203125 0.5 0.09 -0.41
1638.73046875 0.571873 0.41994 -0.151933
1638.93359375 0.22444199999999997 0.044806 -0.179636
1639.1796875 0.569544 0.40751 -0.162034
1639.484375 0.158438 -0.039746 -0.198184
1640.15625 0.471227 0.084321 -0.386906
1640.84765625 0.452306 0.147306 -0.305
1641.28515625 0.085894 -0.157936 -0.24383
1641.5703125 0.61086 0.390743 -0.220117
1641.8828125 0.06922599999999998 -0.137083 -0.206309
1642.28515625 0.082001 -0.117267 -0.199268
1642.703125 0.6449149999999999 0.349915 -0.295
1643.23046875 0.19409699999999996 -0.250622 -0.444719
1643.62109375 0.206191 -0.118558 -0.324749
1644.140625 0.781191 0.601328 -0.179863
1644.5 0.227353 -0.03 -0.257353
1644.84765625 0.14008800000000002 -0.016781 -0.156869
1645.0703125 0.785614 0.600614 -0.185
1645.53515625 0.21542500000000003 -0.097647 -0.313072
1646.1640625 0.674736 0.254757 -0.419979
1646.609375 0.933703 0.753142 -0.180561
1647.015625 0.063414 0.047422 -0.015992
1647.453125 0.803677 0.736104 -0.067573
1648.05859375 0.707626 0.454951 -0.252675
1648.44921875 1.244001 0.916286 -0.327715
1648.81640625 0.894702 0.599712 -0.29499
1649.171875 0.865777 0.664256 -0.201521
1649.87109375 0.7031160000000001 0.643143 -0.059973
1650.30078125 0.095186 -0.05 -0.145186
1650.57421875 0.819859 0.605 -0.214859
1650.96875 1.268793 0.91 -0.358793
1651.53125 0.896436 0.577311 -0.319125
1651.90234375 0.05327000000000001 -0.155656 -0.208926
1652.12890625 0.926148 0.651236 -0.274912
1652.609375 0.801803 0.696771 -0.105032
1653.04296875 0.933986 0.655 -0.278986
1653.48046875 0.9134800000000001 0.624969 -0.288511
1653.9375 1.001867 0.556316 -0.445551
1654.5859375 0.929756 0.719873 -0.209883
1655.078125 1.0115189999999998 0.679314 -0.332205
1655.6953125 0.977621 0.730062 -0.247559
1656.2890625 0.9269719999999999 0.539434 -0.387538
1656.9140625 1.004957 0.674957 -0.33
1657.60546875 0.8913949999999999 0.709989 -0.181406
1658.09765625 0.9425540000000001 0.664116 -0.278438
1658.55078125 0.97981 0.717779 -0.262031
1659.08984375 1.010712 0.563346 -0.447366
1659.53125 1.021145 0.596413 -0.424732
1660.3125 0.9566180000000001 0.811934 -0.144684
1660.84375 0.954655 0.7226 -0.232055
1661.23046875 1.117789 0.839773 -0.278016
1661.6953125 1.04249 0.631791 -0.410699
1662.515625 1.049713 0.742899 -0.306814
1663.015625 0.052676000000000014 -0.073418 -0.126094
1663.30078125 1.082845 0.913686 -0.169159
1663.953125 1.050831 0.836102 -0.214729
1664.4375 0.902773 0.612773 -0.29
1665.19921875 1.132137 0.725 -0.407137
1665.63671875 1.342586 1.099722 -0.242864
1666.34375 0.988089 0.859306 -0.128783
1666.91796875 0.890777 0.675806 -0.214971
1667.125 0.204299 -0.125 -0.329299
1667.41015625 0.939568 0.496654 -0.442914
1667.98046875 0.09485099999999999 -0.025051 -0.119902
1668.25 1.062586 1.0 -0.062586
1668.69140625 0.251706 0.150124 -0.101582
1669.0625 1.105959 0.948589 -0.15737
1669.62109375 0.9854210000000001 0.480239 -0.505182
1669.9921875 0.998155 0.583279 -0.414876
1670.5234375 0.16339399999999998 0.094882 -0.068512
1670.77734375 1.236928 1.18568 -0.051248
1671.26953125 0.17396199999999998 0.175 0.001038
1671.47265625 1.169986 1.085148 -0.084838
1672.07421875 1.0566529999999998 0.57458 -0.482073
1672.8984375 1.218163 1.013304 -0.204859
1673.38671875 1.161023 1.094161 -0.066862
1674.15234375 1.1409559999999999 1.131406 -0.00955
1674.78515625 0.885255 0.487292 -0.397963
1675.2421875 0.9207970000000001 0.363204 -0.557593
1675.8828125 1.191673 1.191673 0.0
1676.29296875 1.09377 1.098828 0.005058
1677.02734375 1.033483 1.01883 -0.014653
1677.52734375 0.960653 0.589094 -0.371559
1678.06640625 0.999674 0.52289 -0.476784
1678.88671875 1.078304 1.139762 0.061458
1679.73046875 1.10353 1.085858 -0.017672
1680.27734375 1.098578 0.738754 -0.359824
1680.7578125 0.950631 0.440631 -0.51
1681.07421875 0.351599 -0.093401 -0.445
1681.59375 1.21217 1.12467 -0.0875
1682.04296875 1.214496 0.87053 -0.343966
1682.6328125 0.9932449999999999 0.747099 -0.246146
1683.21484375 1.01855 0.397765 -0.620785
1683.765625 1.05 0.686667 -0.363333
1684.20703125 1.210726 0.970726 -0.24
1684.54296875 0.114063 -0.050753 -0.164816
1684.9921875 1.071564 0.954046 -0.117518
1685.48046875 1.008933 0.695299 -0.313634
1686.19921875 1.184737 0.517296 -0.667441
1686.74609375 1.121094 0.808277 -0.312817
1687.30859375 1.003769 0.788851 -0.214918
1687.52734375 0.248785 0.018853 -0.229932
1687.90234375 1.03392 0.798569 -0.235351
1688.1640625 0.293137 -0.044578 -0.337715
1688.5859375 1.0373320000000001 0.549768 -0.487564
1688.81640625 0.041047 -0.358953 -0.4
1689.13671875 0.997302 0.653259 -0.344043
1689.4296875 0.158364 -0.004587 -0.162951
1689.8046875 0.208675 0.053781 -0.154894
1690.38671875 1.100438 0.876023 -0.224415
1690.671875 0.09183 -0.082761 -0.174591
1690.90234375 0.6589160000000001 0.394346 -0.26457
1691.33984375 1.119238 0.520508 -0.59873
1691.765625 1.126617 0.774129 -0.352488
1692.421875 1.177862 0.958099 -0.219763
1692.625 0.351667 0.07 -0.281667
1693.109375 1.046116 0.748499 -0.297617
1693.890625 1.057545 0.477885 -0.57966
1694.41015625 1.018404 0.613685 -0.404719
1694.859375 1.202453 0.88154 -0.320913
1695.40625 1.033469 0.740918 -0.292551
1695.91015625 0.17535199999999998 -0.103183 -0.278535
1696.12109375 1.102117 0.781284 -0.320833
1696.703125 1.0004499999999998 0.6 -0.40045
1697.37890625 1.010312 0.785367 -0.224945
1698.171875 1.0767120000000001 0.881712 -0.195
1698.6171875 1.130908 0.753495 -0.377413
1699.1796875 0.915 0.63 -0.285
1699.8046875 0.9019459999999999 0.711946 -0.19
1700.2265625 1.133208 0.838507 -0.294701
1700.6484375 1.145306 0.792102 -0.353204
1700.9765625 0.12268100000000001 -0.146303 -0.268984
1701.1875 0.15748600000000001 -0.1025 -0.259986
1701.4453125 1.0435370000000002 0.664301 -0.379236
1702.12890625 1.016615 0.711615 -0.305
1702.5625 1.176064 0.802 -0.374064
1703.12109375 0.20123200000000002 -0.070876 -0.272108
1703.38671875 0.964281 0.631885 -0.332396
1704.01953125 0.284195 -0.075072 -0.359267
1704.37890625 1.152619 0.751103 -0.401516
1705.0234375 0.25751 -0.057452 -0.314962
1705.45703125 1.057023 0.677072 -0.379951
1705.81640625 0.12926900000000002 -0.175724 -0.304993
1706.05859375 1.035793 0.739335 -0.296458
1706.4765625 0.222267 -0.13 -0.352267
1706.68359375 1.107594 0.633615 -0.473979
1707.265625 1.042551 0.28 -0.762551
1707.98046875 1.134909 0.734909 -0.4
1708.44921875 1.239497 0.880439 -0.359058
1709.1640625 1.180675 0.907163 -0.273512
1709.59375 1.097849 0.483462 -0.614387
1710.14453125 1.085894 0.558734 -0.52716
1710.52734375 1.5480230000000001 1.263513 -0.28451
1710.88671875 1.211691 1.032002 -0.179689
1711.4375 1.006132 0.730136 -0.275996
1712.27734375 1.0646930000000001 0.356197 -0.708496
1713.05859375 1.063008 0.675 -0.388008
1713.41015625 0.06896100000000001 -0.08572 -0.154681
1713.859375 1.158836 1.135139 -0.023697
1714.73828125 1.0708870000000001 0.962215 -0.108672
1715.32421875 0.920623 0.512399 -0.408224
1716.0390625 1.041085 0.628732 -0.412353
1716.51953125 1.0253729999999999 0.829934 -0.195439
1716.94140625 1.087742 1.106865 0.019123
1717.2265625 0.34353700000000004 0.313711 -0.029826
1717.64453125 1.144865 1.139949 -0.004916
1718.12109375 1.024069 0.889069 -0.135
1718.53515625 0.951341 0.538308 -0.413033
1718.9296875 1.100718 0.642034 -0.458684
1719.56640625 1.1497169999999999 0.925871 -0.223846
1720.39453125 1.085384 0.994138 -0.091246
1720.86328125 0.986504 0.772165 -0.214339
1721.07421875 0.33537 0.033435 -0.301935
1721.51953125 1.020003 0.519983 -0.50002
1722.04296875 0.97631 0.431742 -0.544568
1722.4453125 1.2270269999999999 0.942027 -0.285
1723.0234375 1.124231 0.89453 -0.229701
1723.64453125 1.062529 0.894995 -0.167534
1724.07421875 1.10064 0.64564 -0.455
1724.859375 1.1099999999999999 0.62 -0.49
1725.3125 1.3031 0.9934 -0.3097
1726.1171875 1.1458249999999999 0.97842 -0.167405
1726.62109375 1.044447 0.778201 -0.266246
1727.12890625 0.1898 -0.205966 -0.395766
1727.4921875 1.091657 0.726657 -0.365
1728.04296875 1.13021 0.871574 -0.258636
1728.51953125 1.064803 0.799803 -0.265
1728.9921875 0.24144500000000002 -0.034539 -0.275984
1729.234375 1.0662530000000001 0.696253 -0.37
1729.9140625 1.056865 0.549588 -0.507277
1730.65625 1.158737 0.935352 -0.223385
1731.29296875 0.936504 0.632017 -0.304487
1731.94140625 1.008119 0.666697 -0.341422
1732.8203125 1.0583520000000002 0.648395 -0.409957
1733.2890625 1.094687 0.809854 -0.284833
1733.94140625 1.111593 0.922516 -0.189077
1734.56640625 0.90526 0.619186 -0.286074
1734.96875 1.02327 0.679051 -0.344219
1735.66796875 1.125931 0.796434 -0.329497
1736.47265625 1.148714 1.034593 -0.114121
1737.08203125 0.907705 0.816315 -0.09139
1737.48046875 1.25471 1.094843 -0.159867
1738.19921875 1.022496 0.752496 -0.27
1738.66796875 1.0923509999999998 0.796631 -0.29572
1739.46484375 0.937047 0.929615 -0.007432
1739.875 1.478891 1.47 -0.008891
1740.26171875 1.007388 0.927264 -0.080124
1740.8828125 0.901537 0.716537 -0.185
1741.55078125 0.938675 0.923675 -0.015
1742.47265625 0.838482 0.833737 -0.004745
1742.875 0.254753 0.08 -0.174753
1743.125 0.804952 0.52 -0.284952
1743.75390625 0.688952 0.274446 -0.414506
1743.96875 0.132031 -0.172344 -0.304375
1744.30859375 0.866198 0.651979 -0.214219
1744.63671875 0.13273000000000001 -0.08227 -0.215
1744.875 0.8297460000000001 0.67 -0.159746
1745.08984375 0.03398999999999999 -0.130785 -0.164775
1745.32421875 0.267732 0.083884 -0.183848
1745.625 0.66 0.54 -0.12
1745.9921875 0.195262 -0.111846 -0.307108
1746.33984375 0.6992449999999999 0.299378 -0.399867
1746.87109375 0.58859 0.199235 -0.389355
1747.3203125 0.270235 0.060251 -0.209984
1747.7734375 0.053684 -0.056316 -0.11
1747.98828125 0.222207 0.064714 -0.157493
1748.3671875 0.627315 0.481104 -0.146211
1748.90625 0.538459 0.329987 -0.208472
1749.32421875 0.58894 0.16994 -0.419
1749.69921875 0.7161420000000001 0.249419 -0.466723
1750.0234375 0.04436999999999999 -0.221172 -0.265542
1750.48046875 0.624439 0.500289 -0.12415
1750.94140625 0.179642 0.034642 -0.145
1751.1484375 0.362589 0.177822 -0.184767
1751.734375 0.41921699999999995 0.184217 -0.235
1752.09765625 0.10947999999999997 -0.312356 -0.421836
1752.453125 0.564612 0.054612 -0.51
1752.7890625 0.20076399999999994 -0.320029 -0.520793
1753.296875 0.722893 0.503384 -0.219509
1753.90625 0.541802 0.417116 -0.124686
1754.57421875 0.54957 0.31957 -0.23
1755.06640625 0.460603 0.084568 -0.376035
1755.4765625 0.547146 0.287412 -0.259734
1755.79296875 0.229337 -0.030397 -0.259734
1756.18359375 0.702373 0.609055 -0.093318
1756.81640625 0.444853 0.454599 0.009746
1757.328125 0.413953 0.22708 -0.186873
1757.68359375 0.10892000000000002 -0.27884 -0.38776
1758.08203125 0.49506100000000003 0.091866 -0.403195
1758.5234375 0.25067 -0.051172 -0.301842
1759.0234375 0.030848 0.104067 0.073219
1759.3359375 0.653941 0.624889 -0.029052
1759.81640625 0.45810500000000004 0.439877 -0.018228
1760.30859375 0.12918000000000002 -0.080742 -0.209922
1760.55078125 0.460741 0.141071 -0.31967
1761.36328125 0.54779 0.412984 -0.134806
1761.7421875 0.140935 0.066415 -0.07452
1762.05078125 0.5262 0.5262 0.0
1762.53125 0.490617 0.381906 -0.108711
1762.7890625 0.129786 0.009977 -0.119809
1763.171875 0.41511000000000003 0.282326 -0.132784
1763.6015625 0.504364 0.184364 -0.32
1764.234375 0.21992399999999998 -0.020076 -0.24
1764.47265625 0.623797 0.593797 -0.03
1764.96484375 0.643562 0.673562 0.03
1765.41015625 0.141387 0.102733 -0.038654
1765.62109375 0.750418 0.69452 -0.055898
1766.2109375 0.569828 0.254828 -0.315
1766.546875 0.16249999999999998 -0.2575 -0.42
1766.76171875 0.529881 0.356369 -0.173512
1767.12109375 0.122551 -0.022121 -0.144672
1767.51171875 0.626968 0.588397 -0.038571
1768.109375 0.14884799999999998 -0.076582 -0.22543
1768.375 0.581882 0.375 -0.206882
1769.15625 0.259355 -0.24043 -0.499785
1769.60546875 0.476477 0.275784 -0.200693
1770.12109375 0.44947899999999996 0.29967 -0.149809
1770.3671875 0.095 -0.07 -0.165
1770.625 0.542726 0.37 -0.172726
1771.15625 0.636037 0.356037 -0.28
1771.7109375 0.574495 0.174866 -0.399629
1772.00390625 0.232306 -0.127479 -0.359785
1772.3515625 0.727506 0.527506 -0.2
1772.66796875 0.196959 -0.038202 -0.235161
1773.2421875 0.526297 0.406611 -0.119686
1773.68359375 1.168959 0.910851 -0.258108
1774.02734375 0.08052000000000001 -0.205 -0.28552
1774.5546875 0.122025 -0.297975 -0.42
1774.97265625 0.743602 0.516376 -0.227226
1775.37109375 1.0713430000000002 0.941343 -0.13
1775.63671875 0.066727 -0.031279 -0.098006
1775.921875 0.08052000000000001 0.03 -0.05052
1776.83203125 0.620906 0.291047 -0.329859
1777.4140625 0.6225499999999999 0.309599 -0.312951
1777.87109375 0.741271 0.554132 -0.187139
1778.0859375 0.154225 0.034838 -0.119387
1778.515625 0.738635 0.638652 -0.099983
1778.76953125 0.284971 0.094971 -0.19
1779.19921875 0.569034 0.459034 -0.11
1779.7578125 0.6343859999999999 0.339562 -0.294824
1779.97265625 0.21280099999999996 -0.163781 -0.376582
1780.3984375 0.663605 0.1688 -0.494805
1780.98828125 0.295807 -0.010286 -0.306093
1781.203125 0.950059 0.770465 -0.179594
1781.703125 0.7641249999999999 0.654125 -0.11
1782.12890625 0.7489809999999999 0.653148 -0.095833
1782.484375 1.041822 0.854271 -0.187551
1782.6875 0.272815 -0.050962 -0.323777
1783.0546875 0.846957 0.448303 -0.398654
1783.64453125 0.848935 0.48458 -0.364355
1784.234375 0.7350129999999999 0.553182 -0.181831
1784.96875 0.156759 -0.012539 -0.169298
1785.3515625 0.12497200000000003 -0.129486 -0.254458
1785.9375 0.855721 0.196375 -0.659346
1786.53515625 0.9244650000000001 0.606944 -0.317521
1786.87109375 0.267111 -0.071014 -0.338125
1787.1328125 0.792881 0.538839 -0.254042
1787.66796875 0.8303830000000001 0.583767 -0.246616
1787.91796875 0.106358 -0.092734 -0.199092
1788.22265625 0.204344 -0.160656 -0.365
1788.54296875 0.950101 0.517068 -0.433033
1789.0078125 0.958139 0.293917 -0.664222
1789.375 0.300227 -0.09 -0.390227
1789.578125 0.966586 0.761586 -0.205
1789.96484375 1.098001 0.926763 -0.171238
1790.17578125 0.28557099999999996 0.027811 -0.25776
1790.65234375 0.882438 0.638844 -0.243594
1791.1640625 0.9683839999999999 0.404117 -0.564267
1791.62109375 0.987676 0.362958 -0.624718
1792.0703125 0.294629 -0.335 -0.629629
1792.34375 1.0466769999999999 0.692391 -0.354286
1792.87890625 0.955534 0.718692 -0.236842
1793.24609375 1.164349 0.96466 -0.199689
1793.76953125 0.265618 0.054993 -0.210625
1794.39453125 0.9999830000000001 0.479983 -0.52
1794.60546875 0.28564400000000006 -0.384356 -0.67
1795.03515625 0.07202199999999997 -0.387645 -0.459667
1795.28125 1.1764700000000001 0.856533 -0.319937
1795.72265625 1.299168 0.939258 -0.35991
1796.3359375 1.010697 0.80913 -0.201567
1797.15625 1.105745 0.431178 -0.674567
1797.59765625 1.275207 0.552465 -0.722742
1798.296875 1.108745 0.873716 -0.235029
1798.76171875 1.090942 0.747551 -0.343391
1799.2265625 0.967557 0.753047 -0.21451
1800.15234375 1.0490270000000002 0.49207 -0.556957
1800.66796875 1.104145 0.579291 -0.524854
1801.13671875 0.292969 0.014636 -0.278333
1801.375 1.087946 0.83 -0.257946
1801.78515625 0.29657300000000003 0.034509 -0.262064
1802.0 1.067892 0.785 -0.282892
1802.73828125 0.920037 0.486912 -0.433125
1803.21484375 1.146607 0.45219 -0.694417
1803.65625 1.189319 0.944933 -0.244386
1804.4453125 0.9230860000000001 0.74314 -0.179946
