4.1328125 1.8925910000000001 0.682946 -1.209645
4.8046875 1.899562 0.722331 -1.177231
5.4609375 1.922558 0.764143 -1.158415
6.1328125 1.8537240000000001 0.733724 -1.12
6.80078125 1.890932 0.789347 -1.101585
7.4765625 1.8465449999999999 0.756045 -1.0905
8.15234375 1.9067370000000001 0.758326 -1.148411
8.84375 1.897078 0.726429 -1.170649
9.54296875 1.88 0.695 -1.185
10.23828125 1.859397 0.674397 -1.185
10.9296875 1.898832 0.688832 -1.21
11.6171875 1.8850280000000001 0.645477 -1.239551
12.30078125 1.959978 0.757075 -1.202903
13.00390625 1.927073 0.723638 -1.203435
13.703125 1.9340100000000002 0.704678 -1.229332
14.3984375 1.934952 0.685 -1.249952
15.07421875 1.9239519999999999 0.726317 -1.197635
15.7734375 1.959345 0.749475 -1.20987
16.47265625 1.992661 0.788614 -1.204047
17.1640625 1.91673 0.756011 -1.160719
17.828125 1.803506 0.704542 -1.098964
18.5546875 1.8741690000000002 0.709437 -1.164732
19.23828125 1.9016979999999999 0.667773 -1.233925
19.90234375 1.8848730000000002 0.65 -1.234873
20.57421875 1.79 0.606933 -1.183067
21.2734375 1.846314 0.61709 -1.229224
21.953125 1.8447330000000002 0.606918 -1.237815
22.63671875 1.981297 0.603976 -1.377321
23.26953125 1.800571 0.494978 -1.305593
23.9375 1.671891 0.46875 -1.203141
24.609375 1.804151 0.497884 -1.306267
25.26953125 1.854978 0.594993 -1.259985
25.92578125 1.7320639999999998 0.50842 -1.223644
26.5859375 1.745671 0.494978 -1.250693
27.265625 1.817188 0.427425 -1.389763
27.94140625 1.806295 0.42994 -1.376355
28.60546875 1.979886 0.56 -1.419886
29.26171875 1.762012 0.49 -1.272012
29.95703125 1.764781 0.653359 -1.111422
30.64453125 1.854886 0.629994 -1.224892
31.328125 1.864763 0.653496 -1.211267
32.0234375 1.985139 0.724847 -1.260292
32.71875 1.916849 0.739 -1.177849
33.41796875 1.836264 0.766264 -1.07
34.11328125 1.7975789999999998 0.703134 -1.094445
34.828125 1.886533 0.759081 -1.127452
35.53515625 1.853873 0.707329 -1.146544
36.23828125 1.8796460000000002 0.693486 -1.18616
36.9296875 1.968631 0.81307 -1.155561
37.6484375 1.9462359999999999 0.791248 -1.154988
38.34765625 1.979107 0.799501 -1.179606
39.04296875 1.898772 0.758772 -1.14
39.7265625 1.9374230000000001 0.782726 -1.154697
40.4296875 1.938475 0.80707 -1.131405
41.125 2.008812 0.96 -1.048812
41.8125 1.92666 0.981667 -0.944993
42.51171875 1.920889 0.967655 -0.953234
43.22265625 1.942227 0.884852 -1.057375
43.91796875 1.9699529999999998 0.854953 -1.115
44.61328125 1.9650729999999998 0.819986 -1.145087
45.30859375 1.949803 0.769803 -1.18
46.01171875 1.9675699999999998 0.729397 -1.238173
46.71875 1.948666 0.671346 -1.27732
47.42578125 1.975864 0.709253 -1.266611
48.109375 1.990863 0.798374 -1.192489
48.80859375 1.899909 0.71994 -1.179969
49.51953125 1.868776 0.634912 -1.233864
50.22265625 1.8991310000000001 0.598585 -1.300546
50.9296875 1.933657 0.617407 -1.31625
51.65625 1.936253 0.675 -1.261253
52.3828125 1.9866000000000001 0.799085 -1.187515
53.08984375 1.929628 0.770071 -1.159557
53.7734375 1.8436560000000002 0.738684 -1.104972
54.5234375 1.8458320000000001 0.668492 -1.17734
55.234375 1.8956110000000002 0.58583 -1.309781
55.9609375 1.843042 0.579944 -1.263098
56.66796875 1.998278 0.718469 -1.279809
57.39453125 1.898533 0.73 -1.168533
58.0703125 1.83206 0.71 -1.12206
58.7890625 1.814937 0.669937 -1.145
59.5 1.875654 0.58 -1.295654
60.2109375 2.068546 0.684774 -1.383772
60.87109375 1.918974 0.604066 -1.314908
61.546875 1.852133 0.72 -1.132133
62.234375 1.8574760000000001 0.617793 -1.239683
62.9375 1.883448 0.588462 -1.294986
63.62109375 1.951072 0.6638 -1.287272
64.2890625 1.925541 0.709869 -1.215672
64.9453125 1.8306620000000002 0.590461 -1.240201
65.65234375 1.899083 0.509849 -1.389234
66.33203125 1.875936 0.46 -1.415936
67.0234375 1.986855 0.604598 -1.382257
67.7109375 1.989326 0.66475 -1.324576
68.40234375 1.9294479999999998 0.709448 -1.22
69.09765625 1.8937270000000002 0.699046 -1.194681
69.79296875 1.92054 0.703457 -1.217083
70.4921875 1.920146 0.707366 -1.21278
71.19921875 1.938647 0.800965 -1.137682
71.890625 1.9369649999999998 0.770361 -1.166604
72.578125 2.0437339999999997 0.199365 -1.844369
73.26171875 1.983165 -0.210585 -2.19375
73.9609375 1.994734 0.16 -1.834734
74.640625 2.0175359999999998 0.623672 -1.393864
75.3203125 1.995686 0.897375 -1.098311
75.99609375 1.972708 1.029266 -0.943442
76.69921875 1.907727 1.023494 -0.884233
77.38671875 1.9346020000000002 1.032493 -0.902109
78.07421875 1.881865 1.012209 -0.869656
78.7734375 1.912369 0.997369 -0.915
79.484375 1.934515 0.9821 -0.952415
80.1875 1.927 0.942 -0.985
80.8984375 1.9048699999999998 0.844736 -1.060134
81.60546875 1.9574099999999999 0.769988 -1.187422
82.3125 1.892827 0.678611 -1.214216
83.02734375 1.975715 0.714465 -1.26125
83.73828125 1.938185 0.711614 -1.226571
84.453125 1.9738580000000001 0.791066 -1.182792
85.1640625 1.980556 0.810556 -1.17
85.8359375 1.895804 0.734792 -1.161012
86.52734375 1.879086 0.668411 -1.210675
87.2265625 1.8230650000000002 0.567694 -1.255371
87.92578125 1.918254 0.549553 -1.368701
88.625 1.955 0.63 -1.325
89.27734375 1.887248 0.604306 -1.282942
89.9609375 1.759581 0.579944 -1.179637
90.66796875 1.8274219999999999 0.607422 -1.22
91.35546875 1.8597569999999999 0.554954 -1.304803
92.05078125 1.8811280000000001 0.5683 -1.312828
92.765625 1.915299 0.632838 -1.282461
93.43359375 1.789688 0.609753 -1.179935
94.12890625 1.7481149999999999 0.594302 -1.153813
94.8203125 1.826375 0.523352 -1.303023
95.53515625 1.850533 0.487515 -1.363018
96.19921875 1.906901 0.637256 -1.269645
96.87109375 1.782198 0.59276 -1.189438
97.53515625 1.7709769999999998 0.6602 -1.110777
98.2265625 1.8286310000000001 0.542186 -1.286445
98.890625 1.863828 0.529209 -1.334619
99.5625 1.915125 0.600125 -1.315
100.21484375 1.919112 0.644623 -1.274489
100.875 1.862491 0.67 -1.192491
101.5703125 1.796814 0.58 -1.216814
102.24609375 1.8268560000000003 0.538101 -1.288755
102.9296875 1.825828 0.660649 -1.165179
103.6328125 1.8926379999999998 0.798992 -1.093646
104.32421875 1.9258449999999998 0.857134 -1.068711
105.0 1.856542 0.75 -1.106542
105.69140625 1.888536 0.624951 -1.263585
106.39453125 1.867705 0.514978 -1.352727
107.08984375 1.9384480000000002 0.525 -1.413448
107.7890625 1.9400689999999998 0.505556 -1.434513
108.49609375 1.975416 0.551391 -1.424025
109.2265625 1.9502579999999998 0.505311 -1.444947
109.953125 1.963089 0.498568 -1.464521
110.66796875 1.9724439999999999 0.552444 -1.42
111.37890625 1.9542199999999998 0.588979 -1.365241
112.109375 1.93709 0.605 -1.33209
112.8125 1.971635 0.59875 -1.372885
113.53515625 1.980968 0.585906 -1.395062
114.2421875 1.933586 0.599485 -1.334101
114.97265625 1.9484500000000002 0.613654 -1.334796
115.68359375 1.9971959999999997 0.694282 -1.302914
116.40234375 2.028164 0.765 -1.263164
117.11328125 1.9144580000000002 0.728025 -1.186433
117.83203125 1.9805000000000001 0.715582 -1.264918
118.54296875 1.9258289999999998 0.640829 -1.285
119.25390625 1.9154069999999999 0.66553 -1.249877
119.984375 1.9681730000000002 0.708365 -1.259808
120.70703125 2.010596 0.770739 -1.239857
121.4296875 1.919928 0.738128 -1.1818
122.1328125 1.902343 0.704777 -1.197566
122.87109375 1.985868 0.694097 -1.291771
123.61328125 1.949422 0.659422 -1.29
124.37890625 2.057018 0.777041 -1.279977
125.12109375 1.9197440000000001 0.745997 -1.173747
125.859375 1.886691 0.757891 -1.1288
126.59765625 1.896267 0.715 -1.181267
127.32421875 1.9169640000000001 0.707343 -1.209621
128.0625 2.005 0.775 -1.23
128.79296875 1.92814 0.761498 -1.166642
129.50390625 1.906468 0.797844 -1.108624
130.203125 1.944785 0.71 -1.234785
130.9296875 1.9007180000000001 0.657267 -1.243451
131.6484375 1.987867 0.751276 -1.236591
132.34765625 1.9127800000000001 0.754849 -1.157931
133.04296875 1.927025 0.762025 -1.165
133.76953125 1.8699059999999998 0.639986 -1.22992
134.46875 1.8876840000000001 0.595412 -1.292272
135.1640625 1.894914 0.619914 -1.275
135.8515625 1.994831 0.740023 -1.254808
136.55859375 1.858203 0.74 -1.118203
137.23828125 1.7903250000000002 0.739272 -1.051053
137.94140625 1.889536 0.724536 -1.165
138.625 1.959911 0.76 -1.199911
139.328125 1.941824 0.769162 -1.172662
140.01171875 1.983347 0.844128 -1.139219
140.6875 1.939841 0.869853 -1.069988
141.38671875 1.887312 0.797667 -1.089645
142.0859375 1.954825 0.749825 -1.205
142.77734375 1.9230420000000001 0.705 -1.218042
143.45703125 2.013327 0.828442 -1.184885
144.12109375 1.9026999999999998 0.739739 -1.162961
144.828125 1.8812799999999998 0.759551 -1.121729
145.5078125 1.8817500000000003 0.684289 -1.197461
146.19140625 1.901295 0.671295 -1.23
146.85546875 1.9449840000000003 0.699984 -1.245
147.5390625 2.018688 0.790496 -1.228192
148.1953125 2.001855 0.82 -1.181855
148.875 1.955265 0.81 -1.145265
149.56640625 1.992504 0.794897 -1.197607
150.265625 2.0108509999999997 0.792864 -1.217987
150.953125 2.058938 0.863938 -1.195
151.62890625 2.023797 0.894077 -1.12972
152.32421875 1.896187 0.802508 -1.093679
153.0390625 1.938856 0.814877 -1.123979
153.73046875 1.963896 0.770271 -1.193625
154.4296875 1.992323 0.799428 -1.192895
155.1015625 2.02971 0.901248 -1.128462
155.78515625 1.976797 0.845241 -1.131556
156.46875 1.969763 0.782422 -1.187341
157.16015625 1.938996 0.72 -1.218996
157.859375 1.90459 0.699794 -1.204796
158.5625 1.938617 0.758594 -1.180023
159.26171875 1.921664 0.824128 -1.097536
159.9609375 1.8788140000000002 0.789977 -1.088837
160.671875 1.9617330000000002 0.809629 -1.152104
161.41015625 1.961322 0.761322 -1.2
162.14453125 1.9724940000000002 0.774946 -1.197548
162.87890625 1.958997 0.809052 -1.149945
163.58984375 1.947089 0.822834 -1.124255
164.3359375 1.943352 0.804795 -1.138557
165.07421875 1.964826 0.809567 -1.155259
165.828125 1.898415 0.773415 -1.125
166.5859375 1.968243 0.884774 -1.083469
167.32421875 1.894991 0.862235 -1.032756
168.03515625 1.8491499999999998 0.739953 -1.109197
168.75 1.9298009999999999 0.745 -1.184801
169.4921875 1.916997 0.692261 -1.224736
170.2109375 1.979305 0.749945 -1.22936
170.9296875 1.9330319999999999 0.732473 -1.200559
171.62109375 1.926135 0.765759 -1.160376
172.37890625 1.900389 0.699035 -1.201354
173.1171875 1.907005 0.694796 -1.212209
173.86328125 1.9193580000000001 0.702979 -1.216379
174.6171875 2.0093199999999998 0.835 -1.17432
175.3515625 1.981928 0.87828 -1.103648
176.0703125 1.9009770000000001 0.857743 -1.043234
176.796875 1.904905 0.804905 -1.1
177.53515625 1.926447 0.772477 -1.15397
178.28515625 2.051411 0.907691 -1.14372
179.0390625 1.972936 0.919918 -1.053018
179.7890625 1.954841 0.884841 -1.07
180.57421875 1.9280059999999999 0.786053 -1.141953
181.3828125 1.915903 0.788303 -1.1276
182.21875 1.844916 0.721953 -1.122963
183.08203125 1.8583500000000002 0.702414 -1.155936
183.96875 1.8852470000000001 0.800714 -1.084533
184.82421875 1.953348 0.863348 -1.09
185.7265625 1.9838879999999999 0.861968 -1.12192
186.640625 2.000182 0.956902 -1.04328
187.50390625 1.9114309999999999 0.913954 -0.997477
188.3515625 1.949465 0.854121 -1.095344
189.18359375 1.944814 0.829697 -1.115117
189.984375 1.954577 0.84 -1.114577
190.76171875 1.9389189999999998 0.869752 -1.069167
191.53125 1.925942 0.798125 -1.127817
192.296875 1.969396 0.799396 -1.17
193.0625 2.023385 0.863438 -1.159947
193.80859375 1.963168 0.879063 -1.084105
194.5546875 1.913365 0.855 -1.058365
195.29296875 1.9327899999999998 0.76279 -1.17
196.0390625 1.9378380000000002 0.75988 -1.177958
196.76953125 2.019925 0.814925 -1.205
197.515625 2.013218 0.845513 -1.167705
198.22265625 1.93377 0.809318 -1.124452
198.9375 1.883606 0.798625 -1.084981
199.65625 1.8916460000000002 0.707566 -1.18408
200.3828125 1.9688999999999999 0.789561 -1.179339
201.09765625 1.977753 0.84345 -1.134303
201.7890625 1.8844180000000001 0.819689 -1.064729
202.4921875 1.8834719999999998 0.848472 -1.035
203.1875 1.8940960000000002 0.800385 -1.093711
203.89453125 1.9018810000000002 0.755322 -1.146559
204.57421875 1.9837799999999999 0.824796 -1.158984
205.29296875 2.0075570000000003 0.917557 -1.09
205.96875 1.942047 0.892047 -1.05
206.6484375 1.898244 0.893303 -1.004941
207.34765625 1.950087 0.846255 -1.103832
208.05078125 1.940312 0.80732 -1.132992
208.7421875 1.9517930000000001 0.781247 -1.170546
209.4296875 1.9933109999999998 0.846961 -1.14635
210.10546875 1.9603329999999999 0.809948 -1.150385
210.8125 1.9483290000000002 0.814531 -1.133798
211.49609375 1.860877 0.705 -1.155877
212.19921875 1.8406829999999998 0.706902 -1.133781
212.859375 1.805209 0.730809 -1.0744
213.546875 1.6632760000000002 0.674224 -0.989052
214.234375 1.494284 0.477386 -1.016898
214.91796875 1.599901 0.498772 -1.101129
215.609375 1.7109100000000002 0.571066 -1.139844
216.31640625 2.003152 0.804883 -1.198269
216.9921875 2.031323 0.862903 -1.16842
217.6796875 1.945477 0.792535 -1.152942
218.36328125 1.962621 0.820214 -1.142407
219.08984375 1.984783 0.825 -1.159783
219.78515625 2.001758 0.822517 -1.179241
220.5 1.9674930000000002 0.83 -1.137493
221.1953125 1.9575230000000001 0.848032 -1.109491
221.91796875 1.936923 0.821204 -1.115719
222.63671875 1.8944930000000002 0.794636 -1.099857
223.359375 1.996406 0.861406 -1.135
224.08984375 1.9990379999999999 0.900569 -1.098469
224.80859375 1.9743519999999999 0.934739 -1.039613
225.51171875 1.906991 0.814335 -1.092656
226.21875 1.945946 0.793711 -1.152235
226.94921875 1.984557 0.791161 -1.193396
227.65234375 1.987342 0.779041 -1.208301
228.37109375 2.03323 0.810042 -1.223188
229.0625 2.040509 0.86 -1.180509
229.77734375 1.919714 0.796768 -1.122946
230.46875 1.962168 0.788781 -1.173387
231.16796875 1.945884 0.74291 -1.202974
231.875 1.985 0.74 -1.245
232.58984375 2.081863 0.827762 -1.254101
233.2734375 2.016014 0.851028 -1.164986
233.96484375 1.9313479999999998 0.82 -1.111348
234.65625 1.970449 0.781377 -1.189072
235.3671875 2.018769 0.804216 -1.214553
236.0625 1.955644 0.779 -1.176644
236.76953125 2.05851 0.919904 -1.138606
237.4453125 1.944702 0.876702 -1.068
238.15625 1.8799599999999999 0.806719 -1.073241
238.86328125 1.979042 0.759042 -1.22
239.5625 1.985538 0.753947 -1.231591
240.2890625 1.9991700000000001 0.799374 -1.199796
241.0 1.982284 0.835 -1.147284
241.703125 1.887707 0.78 -1.107707
242.390625 1.895653 0.729287 -1.166366
243.109375 1.975 0.755 -1.22
243.83203125 2.004568 0.829568 -1.175
244.546875 2.029239 0.929654 -1.099585
245.2421875 1.98279 0.95677 -1.02602
245.9609375 1.910758 0.840992 -1.069766
246.67578125 1.9660389999999999 0.817186 -1.148853
247.38671875 1.9688020000000002 0.848802 -1.12
248.109375 2.015444 0.896902 -1.118542
248.83984375 2.001071 0.852064 -1.149007
249.55859375 1.934776 0.779806 -1.15497
250.29296875 1.995782 0.805782 -1.19
251.02734375 1.991043 0.873143 -1.1179
251.77734375 2.0619840000000003 0.92451 -1.137474
252.5 1.96082 0.855 -1.10582
253.2421875 1.953725 0.8198 -1.133925
253.96484375 1.9119389999999998 0.804706 -1.107233
254.703125 1.97131 0.894707 -1.076603
255.42578125 1.989792 0.94 -1.049792
256.14453125 1.920248 0.86996 -1.050288
256.87109375 1.9096760000000002 0.859676 -1.05
257.6015625 1.9496860000000003 0.855311 -1.094375
258.32421875 2.042413 0.912768 -1.129645
259.03515625 2.0158899999999997 0.86181 -1.15408
259.77734375 1.911368 0.694672 -1.216696
260.51171875 1.942212 0.637561 -1.304651
261.25 1.9684570000000001 0.645 -1.323457
261.9765625 2.018295 0.723889 -1.294406
262.734375 1.937163 0.732715 -1.204448
263.46875 1.899 0.679 -1.22
264.21484375 1.905178 0.63527 -1.269908
264.96875 1.948819 0.644271 -1.304548
265.734375 2.018199 0.758199 -1.26
266.47265625 1.96856 0.754132 -1.214428
267.20703125 1.938173 0.694438 -1.243735
267.9609375 1.989976 0.659976 -1.33
268.6875 1.938615 0.628636 -1.309979
269.421875 1.990581 0.708977 -1.281604
270.1328125 1.9405940000000002 0.753241 -1.187353
270.8515625 1.919733 0.717471 -1.202262
271.5625 1.985275 0.7 -1.285275
272.296875 1.97682 0.696035 -1.280785
273.015625 2.012521 0.778203 -1.234318
273.7421875 2.006024 0.823945 -1.182079
274.4453125 1.9382099999999998 0.794437 -1.143773
275.15625 1.947361 0.713359 -1.234002
275.86328125 1.971533 0.719023 -1.25251
276.60546875 2.0266669999999998 0.815 -1.211667
277.31640625 1.9604949999999999 0.854162 -1.106333
278.01953125 1.934944 0.815 -1.119944
278.71875 1.8884050000000001 0.685833 -1.202572
279.4375 1.9268229999999997 0.616875 -1.309948
280.13671875 1.932029 0.605 -1.327029
280.83203125 1.977698 0.672944 -1.304754
281.5390625 1.981534 0.714757 -1.266777
282.234375 1.838851 0.680781 -1.15807
282.9375 1.925814 0.660833 -1.264981
283.65625 1.903286 0.694641 -1.208645
284.421875 1.9343110000000001 0.764798 -1.169513
285.203125 1.97485 0.824551 -1.150299
286.015625 1.912665 0.776447 -1.136218
286.82421875 1.965683 0.677883 -1.2878
287.64453125 2.109814 0.389967 -1.719847
288.4296875 1.968262 0.445 -1.523262
289.2265625 1.997872 0.698245 -1.299627
290.015625 2.027234 0.932451 -1.094783
290.796875 1.96 1.005 -0.955
291.546875 2.012578 1.099592 -0.912986
292.28515625 2.0011 1.051861 -0.949239
293.0625 1.9216250000000001 1.001667 -0.919958
293.8203125 1.986351 1.112391 -0.87396
294.578125 2.006224 1.099542 -0.906682
295.30859375 1.924817 1.019817 -0.905
296.08203125 1.943179 0.977683 -0.965496
296.85546875 1.996855 0.970249 -1.026606
297.625 1.963735 0.95 -1.013735
298.40234375 1.902053 0.824299 -1.077754
299.171875 1.943135 0.81386 -1.129275
299.92578125 1.9394529999999999 0.82173 -1.117723
300.6875 1.9805130000000002 0.883611 -1.096902
301.4453125 1.947204 0.844535 -1.102669
302.1640625 1.896181 0.799945 -1.096236
302.90625 1.8992589999999998 0.726536 -1.172723
303.625 1.963812 0.74 -1.223812
304.37109375 1.945 0.76 -1.185
305.109375 1.975909 0.785909 -1.19
305.86328125 1.9211839999999998 0.688711 -1.232473
306.62890625 1.929894 0.663033 -1.266861
307.3984375 1.9577390000000001 0.472739 -1.485
308.16015625 2.070154 0.460555 -1.609599
308.90234375 1.8967459999999998 0.629844 -1.266902
309.6875 1.973799 0.731 -1.242799
310.453125 2.008886 0.857025 -1.151861
311.19921875 2.019097 0.967085 -1.052012
311.92578125 1.969258 0.97 -0.999258
312.66796875 1.961649 0.921649 -1.04
313.40625 1.96822 0.88207 -1.08615
314.140625 2.001317 0.945 -1.056317
314.8828125 1.988009 0.948701 -1.039308
315.58984375 1.9596939999999998 0.910238 -1.049456
316.3046875 2.0128459999999997 0.878844 -1.134002
317.01171875 1.991901 0.879355 -1.112546
317.76171875 1.968743 0.913085 -1.055658
318.4609375 1.964976 1.009976 -0.955
319.16015625 1.988619 0.964298 -1.024321
319.84765625 1.8904809999999999 0.892349 -0.998132
320.56640625 1.908012 0.78653 -1.121482
321.25390625 1.882336 0.732697 -1.149639
321.95703125 1.954313 0.759576 -1.194737
322.640625 1.921517 0.707838 -1.213679
323.33984375 1.868541 0.705661 -1.16288
324.01953125 1.928862 0.699939 -1.228923
324.70703125 1.9586929999999998 0.653785 -1.304908
325.390625 1.9995850000000002 0.701016 -1.298569
326.06640625 1.921272 0.609749 -1.311523
326.73046875 1.899844 0.619977 -1.279867
327.4140625 1.912166 0.644943 -1.267223
328.0703125 1.948734 0.599428 -1.349306
328.75390625 1.991645 0.705415 -1.28623
329.40234375 1.9326120000000002 0.679809 -1.252803
330.05859375 1.874929 0.675 -1.199929
330.7421875 1.9588809999999999 0.693881 -1.265
331.4296875 1.937513 0.647375 -1.290138
332.09375 1.9308740000000002 0.654629 -1.276245
332.765625 2.036112 0.791765 -1.244347
333.41796875 1.9811070000000002 0.806107 -1.175
334.12890625 1.853282 0.758127 -1.095155
334.8203125 1.921255 0.75 -1.171255
335.515625 2.006272 0.82583 -1.180442
336.1953125 1.930136 0.787743 -1.142393
336.90625 1.939642 0.741461 -1.198181
337.60546875 1.977414 0.810271 -1.167143
338.3125 2.026816 0.916538 -1.110278
339.03125 1.969491 0.916591 -1.0529
339.7578125 1.947962 0.886596 -1.061366
340.47265625 1.9664100000000002 0.824258 -1.142152
341.1875 2.029115 0.873646 -1.155469
341.92578125 2.040984 0.834138 -1.206846
342.64453125 1.969881 0.704901 -1.26498
343.37890625 1.92092 0.670393 -1.250527
344.0859375 2.0099489999999998 0.759949 -1.25
344.8203125 1.989258 0.745 -1.244258
345.55859375 1.953099 0.694945 -1.258154
346.3046875 1.9730949999999998 0.752452 -1.220643
347.05078125 2.018049 0.85149 -1.166559
347.7890625 2.025991 0.900991 -1.125
348.51171875 1.954857 0.85 -1.104857
349.25 1.955 0.835 -1.12
349.99609375 2.0364780000000002 0.921973 -1.114505
350.73828125 1.997892 0.912892 -1.085
351.47265625 1.943304 0.818831 -1.124473
352.1953125 1.9004119999999998 0.735 -1.165412
352.94921875 1.987941 0.777272 -1.210669
353.67578125 2.005 0.825 -1.18
354.390625 1.947514 0.764234 -1.18328
355.13671875 1.945452 0.742817 -1.202635
355.890625 1.958946 0.8179 -1.141046
356.61328125 1.9810969999999999 0.882979 -1.098118
357.3359375 1.9111980000000002 0.835112 -1.076086
358.0703125 1.912127 0.829422 -1.082705
358.82421875 1.9853520000000002 0.917209 -1.068143
359.546875 2.003067 0.919375 -1.083692
360.2578125 1.9097840000000001 0.822518 -1.087266
360.9765625 1.9395499999999999 0.784206 -1.155344
361.69921875 1.9681060000000001 0.78883 -1.179276
362.40234375 1.979619 0.834258 -1.145361
363.1171875 1.92649 0.784796 -1.141694
363.83984375 1.9712749999999999 0.767593 -1.203682
364.5546875 1.956994 0.80228 -1.154714
365.26171875 1.951152 0.768616 -1.182536
365.95703125 1.869621 0.688442 -1.181179
366.67578125 1.8803489999999998 0.651379 -1.22897
367.38671875 1.884392 0.637361 -1.247031
368.09375 1.89006 0.68957 -1.20049
368.7734375 1.969932 0.77 -1.199932
369.47265625 1.883348 0.744022 -1.139326
370.16796875 1.906332 0.746332 -1.16
370.85546875 1.9319160000000002 0.759972 -1.171944
371.5390625 1.8667569999999998 0.679863 -1.186894
372.2421875 1.9414719999999999 0.784187 -1.157285
372.90625 1.914079 0.772132 -1.141947
373.58203125 1.8927930000000002 0.77787 -1.114923
374.24609375 1.902472 0.782564 -1.119908
374.9375 1.839335 0.800446 -1.038889
375.58203125 1.985889 0.85659 -1.129299
376.234375 1.858215 0.734004 -1.124211
376.87109375 1.849271 0.735759 -1.113512
377.55078125 1.8126700000000002 0.74941 -1.06326
378.18359375 1.929558 0.784599 -1.144959
378.84375 1.963575 0.774188 -1.189387
379.47265625 1.9129610000000001 0.684857 -1.228104
380.1171875 1.85926 0.704355 -1.154905
380.7890625 2.198528 0.809861 -1.388667
0.0 0.34881399999999996 -1.0 -1.348814
382.078125 2.113238 0.93873 -1.174508
382.71875 1.9884880000000003 0.974141 -1.014347
383.37109375 2.037904 1.247999 -0.789905
384.0078125 1.968453 1.088616 -0.879837
384.6484375 2.016239 0.916282 -1.099957
385.26171875 1.921395 0.884023 -1.037372
385.8984375 1.8962150000000002 0.846221 -1.049994
386.53515625 1.937662 0.807662 -1.13
387.15234375 1.9561069999999998 0.839857 -1.11625
387.765625 1.930094 0.821543 -1.108551
388.3984375 1.908825 0.828864 -1.079961
389.05078125 1.936959 0.783528 -1.153431
389.68359375 1.971493 0.75153 -1.219963
390.29296875 2.0549999999999997 0.825 -1.23
390.91015625 1.924696 0.759904 -1.164792
391.5625 1.96197 0.807045 -1.154925
392.20703125 1.938145 0.768258 -1.169887
392.84765625 1.94364 0.759258 -1.184382
393.453125 2.043964 0.83401 -1.209954
394.08984375 1.922062 0.773043 -1.149019
394.7265625 1.890526 0.789019 -1.101507
395.375 1.866264 0.75 -1.116264
396.01953125 1.9396849999999999 0.729685 -1.21
396.671875 1.912823 0.719118 -1.193705
397.32421875 2.011388 0.788626 -1.222762
397.94921875 1.942746 0.814548 -1.128198
398.5859375 1.9169140000000002 0.839918 -1.076996
399.25 1.903738 0.835 -1.068738
399.91796875 1.911589 0.826589 -1.085
400.5703125 1.969173 0.821248 -1.147925
401.23828125 2.026798 0.867516 -1.159282
401.8515625 1.9946670000000002 0.848966 -1.145701
402.5234375 1.9289020000000001 0.778923 -1.149979
403.17578125 1.938298 0.719306 -1.218992
403.83203125 1.939875 0.665203 -1.274672
404.4921875 1.911314 0.664239 -1.247075
405.171875 2.000804 0.77377 -1.227034
405.84375 1.994258 0.8 -1.194258
406.48046875 1.93441 0.81996 -1.11445
407.15234375 1.954234 0.825 -1.129234
407.83203125 1.914424 0.755188 -1.159236
408.51171875 2.007961 0.829002 -1.178959
409.18359375 2.03 0.9 -1.13
409.82421875 1.89 0.825 -1.065
410.47265625 1.893291 0.858606 -1.034685
411.15625 1.874207 0.849648 -1.024559
411.8125 1.911655 0.771667 -1.139988
412.484375 1.954545 0.725 -1.229545
413.1640625 2.045854 0.754857 -1.290997
413.84765625 1.9180190000000001 0.644219 -1.2738
414.484375 1.9572699999999998 0.742754 -1.214516
415.171875 1.883003 0.704876 -1.178127
415.84765625 1.9866489999999999 0.744369 -1.24228
416.55078125 2.003279 0.792274 -1.211005
417.21875 2.006805 0.868333 -1.138472
417.88671875 1.917677 0.823229 -1.094448
418.5703125 1.8501370000000001 0.74144 -1.108697
419.26171875 1.926933 0.753254 -1.173679
419.9453125 1.918974 0.709456 -1.209518
420.6484375 1.885291 0.701968 -1.183323
421.34375 2.00313 0.814271 -1.188859
422.05078125 1.8648500000000001 0.723672 -1.141178
422.73828125 1.8483180000000001 0.746013 -1.102305
423.42578125 1.96033 0.75649 -1.20384
424.1171875 1.9456849999999999 0.718154 -1.227531
424.8203125 2.034535 0.814535 -1.22
425.50390625 1.904298 0.766805 -1.137493
426.18359375 1.864672 0.795 -1.069672
426.859375 1.970358 0.840625 -1.129733
427.5546875 2.0142670000000003 0.821675 -1.192592
428.23828125 1.978667 0.844711 -1.133956
428.921875 1.993813 0.814802 -1.179011
429.6328125 1.9419689999999998 0.786814 -1.155155
430.3515625 1.93525 0.715 -1.22025
431.0625 2.0313410000000003 0.813542 -1.217799
431.76171875 2.004143 0.818284 -1.185859
432.4921875 1.972884 0.803033 -1.169851
433.2109375 1.941526 0.756526 -1.185
433.9453125 1.980906 0.794422 -1.186484
434.66796875 2.080766 0.874586 -1.20618
435.41015625 2.0377270000000003 0.891165 -1.146562
436.125 1.9452 0.825 -1.1202
436.859375 1.9679760000000002 0.808301 -1.159675
437.609375 1.970385 0.825385 -1.145
438.3671875 1.961362 0.814187 -1.147175
439.10546875 1.9354909999999999 0.774944 -1.160547
439.84765625 1.894276 0.699859 -1.194417
440.6171875 1.904072 0.699783 -1.204289
441.375 1.995853 0.79 -1.205853
442.13671875 2.007319 0.827248 -1.180071
442.86328125 1.9178640000000002 0.805 -1.112864
443.6171875 1.935336 0.826622 -1.108714
444.375 1.968494 0.8 -1.168494
445.12890625 1.9919609999999999 0.757335 -1.234626
445.87890625 1.943595 0.768127 -1.175468
446.62109375 1.8668110000000002 0.733369 -1.133442
447.3515625 1.8598439999999998 0.735 -1.124844
448.078125 1.932959 0.711052 -1.221907
448.83984375 1.973064 0.738474 -1.23459
449.5859375 1.982738 0.799948 -1.18279
450.3125 1.9637470000000001 0.793824 -1.169923
451.015625 1.923889 0.77 -1.153889
451.7578125 1.9912420000000002 0.701944 -1.289298
452.48046875 2.022945 0.704945 -1.318
453.20703125 2.042605 0.711771 -1.330834
453.94140625 2.009338 0.705817 -1.303521
454.65625 1.9578959999999999 0.729609 -1.228287
455.35546875 1.9513340000000001 0.804988 -1.146346
456.06640625 2.008296 0.774336 -1.23396
456.78125 2.056873 0.783333 -1.27354
457.5 1.947336 0.72 -1.227336
458.19921875 1.981485 0.777209 -1.204276
458.87890625 1.878708 0.697879 -1.180829
459.55859375 1.8545919999999998 0.759648 -1.094944
460.2421875 1.873532 0.672848 -1.200684
460.94140625 1.973499 0.684523 -1.288976
461.640625 1.9878019999999998 0.691447 -1.296355
462.34765625 2.044445 0.78 -1.264445
463.0546875 1.969982 0.806571 -1.163411
463.74609375 1.903311 0.76 -1.143311
464.47265625 1.8841329999999998 0.744673 -1.13946
465.2421875 1.930081 0.714028 -1.216053
466.01953125 2.0 0.83 -1.17
466.796875 1.9671250000000002 0.783977 -1.183148
467.55078125 1.970786 0.741233 -1.229553
468.34765625 2.02935 0.868474 -1.160876
469.1171875 2.006368 0.857412 -1.148956
469.88671875 2.013761 0.85 -1.163761
470.6640625 2.046064 0.889891 -1.156173
471.44140625 2.032419 0.914174 -1.118245
472.1953125 2.06458 0.940343 -1.124237
472.953125 2.026134 0.889531 -1.136603
473.7421875 1.9797250000000002 0.812412 -1.167313
474.50390625 2.032876 0.848605 -1.184271
475.26953125 2.016365 0.914981 -1.101384
476.03125 1.979355 0.92 -1.059355
476.7890625 1.9988069999999998 0.829714 -1.169093
477.5546875 1.976763 0.782341 -1.194422
478.32421875 2.105874 0.902731 -1.203143
479.08203125 2.021774 0.877336 -1.144438
479.8125 1.949979 0.835 -1.114979
480.5625 1.967127 0.836346 -1.130781
481.30078125 2.050798 0.892812 -1.157986
482.06640625 2.112316 0.982316 -1.13
482.796875 2.030271 0.949317 -1.080954
483.515625 1.952421 0.917942 -1.034479
484.25 1.9249999999999998 0.84 -1.085
484.98046875 1.984376 0.794913 -1.189463
485.71875 2.001796 0.819241 -1.182555
486.44921875 2.050162 0.89149 -1.158672
487.19921875 1.998733 0.901601 -1.097132
487.9140625 1.9254470000000001 0.854789 -1.070658
488.640625 1.981549 0.840328 -1.141221
489.375 2.0174220000000003 0.805 -1.212422
490.1328125 2.079605 0.844534 -1.235071
490.86328125 2.045659 0.911827 -1.133832
491.58203125 2.0427429999999998 0.94612 -1.096623
492.30078125 1.953789 0.805 -1.148789
493.03125 2.03154 0.833309 -1.198231
493.7578125 1.98906 0.845559 -1.143501
494.484375 2.033998 0.914121 -1.119877
495.21484375 2.060641 0.959345 -1.101296
495.91796875 1.978033 0.938033 -1.04
496.64453125 1.9761350000000002 0.869695 -1.10644
497.359375 2.012366 0.782864 -1.229502
498.1015625 2.01011 0.740356 -1.269754
498.8125 2.123507 0.849531 -1.273976
499.53125 2.003696 0.8213 -1.182396
500.2109375 2.061035 0.89 -1.171035
500.9296875 2.002009 0.793755 -1.208254
501.63671875 2.014464 0.736757 -1.277707
502.33984375 2.038277 0.723375 -1.314902
503.0390625 2.048315 0.774703 -1.273612
503.73046875 1.970803 0.749986 -1.220817
504.421875 1.911889 0.794519 -1.11737
505.109375 1.9869720000000002 0.697545 -1.289427
505.8046875 1.975632 0.611888 -1.363744
506.5234375 2.07395 0.75396 -1.31999
507.21484375 2.059185 0.79428 -1.264905
507.890625 1.9772530000000001 0.765 -1.212253
508.59375 1.975009 0.72707 -1.247939
509.3125 1.984963 0.71 -1.274963
510.015625 2.062957 0.843242 -1.219715
510.71484375 1.963628 0.83406 -1.129568
511.421875 1.981065 0.795 -1.186065
512.13671875 1.98 0.745 -1.235
512.83984375 1.994269 0.73471 -1.259559
513.55859375 2.117772 0.849286 -1.268486
514.265625 2.02341 0.900643 -1.122767
514.984375 1.941614 0.870913 -1.070701
515.703125 1.9444780000000002 0.889684 -1.054794
516.43359375 2.04242 0.979146 -1.063274
517.1484375 2.028457 0.993474 -1.034983
517.87109375 2.013947 1.009093 -1.004854
518.58984375 2.004988 0.916766 -1.088222
519.31640625 1.962489 0.87995 -1.082539
520.0625 2.014601 0.964643 -1.049958
520.80859375 1.9962659999999999 1.004254 -0.992012
521.5546875 1.9997539999999998 1.044754 -0.955
522.29296875 1.980537 0.950537 -1.03
523.08203125 2.03221 0.998457 -1.033753
523.8359375 2.0188509999999997 1.009792 -1.009059
524.609375 1.96795 0.802739 -1.165211
525.37109375 2.090953 0.850953 -1.24
526.16796875 2.084066 0.915324 -1.168742
526.9453125 2.035615 0.838229 -1.197386
527.75 2.0310040000000003 0.825 -1.206004
528.5703125 2.109567 0.96488 -1.144687
529.3515625 2.014211 0.939618 -1.074593
530.1171875 2.003857 0.873945 -1.129912
530.90234375 2.014218 0.784276 -1.229942
531.69140625 1.9812569999999998 0.769867 -1.21139
532.48828125 2.04336 0.915 -1.12836
533.25390625 1.9662700000000002 0.940719 -1.025551
534.03125 1.90612 0.876719 -1.029401
534.79296875 2.001619 0.838487 -1.163132
535.578125 2.017208 0.87401 -1.143198
536.37890625 2.0667299999999997 0.99237 -1.07436
537.1875 1.9538030000000002 0.948611 -1.005192
537.97265625 1.93857 0.869022 -1.069548
538.734375 2.004892 0.840385 -1.164507
539.54296875 2.070877 0.955877 -1.115
540.31640625 2.007629 0.931347 -1.076282
541.08984375 1.978559 0.81 -1.168559
541.8515625 2.0149999999999997 0.831221 -1.183779
542.625 2.015 0.955 -1.06
543.36328125 1.987383 0.919723 -1.06766
544.1171875 2.0087829999999998 0.834321 -1.174462
544.89453125 2.0138540000000003 0.779946 -1.233908
545.64453125 2.062533 0.779949 -1.282584
546.3828125 2.113645 0.908645 -1.205
547.1171875 1.982013 0.889561 -1.092452
547.875 1.958785 0.81 -1.148785
548.62109375 2.067447 0.808285 -1.259162
549.3828125 2.094894 0.89442 -1.200474
550.1484375 2.0432740000000003 0.85328 -1.189994
550.9140625 2.031164 0.815771 -1.215393
551.69140625 2.013637 0.362148 -1.651489
552.48046875 2.077416 0.48563 -1.591786
553.265625 2.034284 0.634766 -1.399518
554.04296875 2.04789 0.740954 -1.306936
554.8203125 2.06873 0.957391 -1.111339
555.59765625 1.993394 1.014237 -0.979157
556.36328125 2.021445 1.019739 -1.001706
557.15625 2.0108550000000003 1.011136 -0.999719
557.9140625 2.005898 1.019769 -0.986129
558.67578125 2.044019 1.091348 -0.952671
559.42578125 2.004538 1.048754 -0.955784
560.171875 1.977354 0.899396 -1.077958
560.953125 2.011717 0.879396 -1.132321
561.73046875 2.0349589999999997 0.949959 -1.085
562.46875 1.960915 0.929648 -1.031267
563.2109375 1.917386 0.854875 -1.062511
563.98828125 1.945411 0.73 -1.215411
564.7421875 1.978027 0.699561 -1.278466
565.50390625 2.038929 0.814052 -1.224877
566.2578125 2.027959 0.871452 -1.156507
567.0078125 1.9683060000000001 0.843498 -1.124808
567.7578125 2.0032389999999998 0.799239 -1.204
568.53125 2.02275 0.794096 -1.228654
569.31640625 2.030415 0.859681 -1.170734
570.07421875 1.9584540000000001 0.864548 -1.093906
570.83203125 1.985544 0.82 -1.165544
571.609375 1.953043 0.764844 -1.188199
572.39453125 2.023171 0.834984 -1.188187
573.1640625 2.036493 0.835 -1.201493
573.92578125 1.961144 0.724462 -1.236682
574.6953125 1.978231 0.774781 -1.20345
575.4609375 2.07976 0.92976 -1.15
576.21875 1.9776349999999998 0.903679 -1.073956
576.97265625 2.014645 0.874864 -1.139781
577.75390625 1.9908700000000001 0.761391 -1.229479
578.515625 2.014282 0.815508 -1.198774
579.265625 2.014866 0.832282 -1.182584
580.0390625 2.0165189999999997 0.774877 -1.241642
580.8125 1.98 0.755 -1.225
581.60546875 2.074811 0.894931 -1.17988
582.40625 2.077046 1.045 -1.032046
583.234375 2.027911 0.963203 -1.064708
584.03125 2.03561 0.934205 -1.101405
584.83984375 2.091554 0.912762 -1.178792
585.66015625 2.081385 0.842329 -1.239056
586.4453125 2.035578 0.771337 -1.264241
587.24609375 2.0858280000000002 0.785828 -1.3
588.0390625 2.0623240000000003 0.78481 -1.277514
588.8203125 2.009684 0.752024 -1.25766
589.57421875 2.0318560000000003 0.71343 -1.318426
590.33203125 2.025326 0.687491 -1.337835
591.10546875 2.080499 0.739952 -1.340547
591.8515625 2.042763 0.772817 -1.269946
592.59375 1.96932 0.71 -1.25932
593.35546875 2.0664629999999997 0.754956 -1.311507
594.1328125 2.078264 0.758456 -1.319808
594.8828125 2.104419 0.798945 -1.305474
595.625 1.979976 0.74 -1.239976
596.3984375 1.920249 0.655 -1.265249
597.16796875 2.055896 0.745896 -1.31
597.94140625 2.05121 0.765701 -1.285509
598.671875 2.000305 0.744382 -1.255923
599.4609375 2.055889 0.789823 -1.266066
600.22265625 2.082615 0.791348 -1.291267
600.96875 2.042821 0.797821 -1.245
601.7265625 1.9754049999999999 0.732778 -1.242627
602.4921875 2.003932 0.679401 -1.324531
603.23828125 2.0137780000000003 0.719042 -1.294736
603.95703125 2.005829 0.730829 -1.275
604.734375 1.968203 0.678203 -1.29
605.4921875 2.081423 0.72 -1.361423
606.24609375 2.054315 0.726018 -1.328297
606.96484375 2.057175 0.735126 -1.322049
607.7109375 2.010688 0.714584 -1.296104
608.4453125 2.0239450000000003 0.808945 -1.215
609.1796875 1.9873750000000001 0.812375 -1.175
609.91796875 1.965414 0.780414 -1.185
610.65234375 2.042851 0.839306 -1.203545
611.3828125 2.095683 0.872992 -1.222691
612.09375 2.0923439999999998 0.912852 -1.179492
612.80859375 1.970805 0.820848 -1.149957
613.53125 2.001126 0.892047 -1.109079
614.24609375 1.980407 0.810902 -1.169505
614.93359375 2.000238 0.826606 -1.173632
615.625 2.0047889999999997 0.77 -1.234789
616.3046875 1.930416 0.73644 -1.193976
617.0 1.971074 0.815 -1.156074
617.69140625 1.94482 0.709725 -1.235095
618.38671875 1.9907409999999999 0.698451 -1.29229
619.08203125 1.982284 0.747284 -1.235
619.74609375 1.92329 0.725403 -1.197887
620.4296875 1.956719 0.766719 -1.19
621.12890625 2.040871 0.741093 -1.299778
621.828125 1.980528 0.654559 -1.325969
622.5078125 2.056026 0.765 -1.291026
623.1640625 1.9530509999999999 0.709893 -1.243158
623.84375 2.001031 0.803068 -1.197963
624.5234375 1.941484 0.685 -1.256484
625.19140625 1.986105 0.679648 -1.306457
625.8671875 2.062745 0.739301 -1.323444
626.5234375 1.922122 0.686674 -1.235448
627.203125 1.983748 0.783844 -1.199904
627.8671875 1.9179 0.723881 -1.194019
628.546875 1.957445 0.764542 -1.192903
629.23828125 2.031647 0.859727 -1.17192
629.94140625 2.0455900000000002 0.899487 -1.146103
630.6328125 1.925936 0.83139 -1.094546
631.33984375 1.9466519999999998 0.795 -1.151652
632.03515625 2.033537 0.798431 -1.235106
632.75 2.03514 0.83 -1.20514
633.45703125 1.952369 0.7968 -1.155569
634.1796875 2.037312 0.782523 -1.254789
634.9140625 2.10622 0.814472 -1.291748
635.62890625 2.030664 0.835838 -1.194826
636.33203125 1.9480179999999998 0.848318 -1.0997
637.03125 2.012489 0.866377 -1.146112
637.7578125 2.002227 0.837408 -1.164819
638.46875 2.0242649999999998 0.844265 -1.18
639.18359375 2.079723 0.924254 -1.155469
639.8671875 1.9547889999999999 0.835 -1.119789
640.58984375 1.952154 0.802635 -1.149519
641.29296875 1.935 0.78 -1.155
642.01171875 2.047664 0.753545 -1.294119
642.73046875 2.046034 0.79021 -1.255824
643.46484375 2.0167 0.752231 -1.264469
644.1875 2.0555529999999997 0.760588 -1.294965
644.91796875 2.070843 0.814299 -1.256544
645.6484375 2.04206 0.83709 -1.20497
646.390625 2.0331989999999998 0.833127 -1.200072
647.1171875 1.972285 0.74 -1.232285
647.859375 2.014656 0.771016 -1.24364
648.60546875 2.011846 0.794971 -1.216875
649.34375 2.024137 0.80457 -1.219567
650.08203125 2.0002519999999997 0.758424 -1.241828
650.8125 1.963933 0.705 -1.258933
651.55859375 2.046389 0.759487 -1.286902
652.3125 1.9918770000000001 0.747083 -1.244794
653.08203125 2.050972 0.842219 -1.208753
653.828125 2.03313 0.874224 -1.158906
654.60546875 1.970701 0.84 -1.130701
655.37109375 2.007142 0.822993 -1.184149
656.109375 2.095507 0.951309 -1.144198
656.859375 2.0386509999999998 0.950625 -1.088026
657.60546875 1.98461 0.884968 -1.099642
658.3515625 1.999463 0.845 -1.154463
659.10546875 2.044463 0.9 -1.144463
659.8671875 2.06327 0.928088 -1.135182
660.59375 2.016517 0.874141 -1.142376
661.3359375 1.971597 0.809887 -1.16171
662.09375 2.029211 0.809654 -1.219557
662.8359375 2.047357 0.884979 -1.162378
663.55078125 1.9693 0.805242 -1.164058
664.26953125 2.0755350000000004 0.865542 -1.209993
665.00390625 2.050699 0.853285 -1.197414
665.72265625 2.070868 0.904119 -1.166749
666.4375 2.030074 0.855357 -1.174717
667.16796875 2.03511 0.84511 -1.19
667.8984375 1.99956 0.829618 -1.169942
668.625 2.074869 0.89 -1.184869
669.359375 2.007257 0.867257 -1.14
670.0703125 1.998513 0.83884 -1.159673
670.8203125 1.998717 0.829226 -1.169491
671.53515625 2.0511749999999997 0.84243 -1.208745
672.2578125 2.062104 0.904553 -1.157551
672.95703125 2.053258 0.908424 -1.144834
673.671875 2.024849 0.948262 -1.076587
674.390625 2.00748 0.870192 -1.137288
675.1015625 2.0483789999999997 0.858379 -1.19
675.8359375 2.050939 0.894948 -1.155991
676.5703125 2.132312 0.974851 -1.157461
677.29296875 2.05 0.96 -1.09
678.00390625 2.0137039999999997 0.868979 -1.144725
678.75 2.052035 0.87 -1.182035
679.4765625 2.021489 0.811489 -1.21
680.203125 2.08334 0.929909 -1.153431
680.90625 2.066494 0.952879 -1.113615
681.6328125 2.029924 0.92826 -1.101664
682.34765625 2.012261 0.883396 -1.128865
683.05859375 2.035125 0.914946 -1.120179
683.765625 1.9411079999999998 0.878672 -1.062436
684.46875 1.97222 0.859629 -1.112591
685.15234375 2.022245 0.824849 -1.197396
685.83984375 2.001466 0.702754 -1.298712
686.51953125 2.1122810000000003 0.784678 -1.327603
687.18359375 2.173144 0.864553 -1.308591
687.8515625 2.034716 0.767573 -1.267143
688.51953125 2.039944 0.829987 -1.209957
689.15234375 2.163754 0.829525 -1.334229
689.80078125 1.961991 0.68432 -1.277671
690.44140625 1.996984 0.834789 -1.162195
691.08984375 1.952023 0.83192 -1.120103
691.7421875 1.938094 0.818675 -1.119419
692.41796875 1.9977900000000002 0.79279 -1.205
693.05078125 2.039028 0.885 -1.154028
693.6953125 1.9362219999999999 0.832931 -1.103291
694.34375 1.8726530000000001 0.781591 -1.091062
695.03125 1.933635 0.797132 -1.136503
695.6875 1.913316 0.799687 -1.113629
696.35546875 2.0249379999999997 0.864938 -1.16
696.9921875 1.953994 0.869068 -1.084926
697.6796875 1.8958329999999999 0.829683 -1.06615
698.34765625 1.939141 0.749681 -1.18946
699.015625 1.962342 0.708242 -1.2541
699.6875 1.998272 0.795 -1.203272
700.375 1.944271 0.8 -1.144271
701.03515625 1.906901 0.837662 -1.069239
701.71484375 1.921364 0.866766 -1.054598
702.390625 1.95453 0.815443 -1.139087
703.0859375 1.9870839999999999 0.7948 -1.192284
703.765625 1.997365 0.822864 -1.174501
704.4453125 2.0129859999999997 0.881704 -1.131282
705.1171875 1.982783 0.86 -1.122783
705.8125 1.950744 0.800227 -1.150517
706.49609375 1.964343 0.774343 -1.19
707.1953125 2.0263999999999998 0.807523 -1.218877
707.890625 2.054447 0.864794 -1.189653
708.6015625 2.0471909999999998 0.873177 -1.174014
709.29296875 1.955122 0.860122 -1.095
710.00390625 1.9505759999999999 0.795719 -1.154857
710.6953125 1.980913 0.762489 -1.218424
711.4140625 1.948492 0.729701 -1.218791
712.109375 2.02315 0.812326 -1.210824
712.8125 1.953385 0.778409 -1.174976
713.48828125 1.916542 0.804222 -1.11232
714.2109375 1.9875420000000001 0.80495 -1.182592
714.9140625 1.926097 0.754832 -1.171265
715.6171875 2.0284240000000002 0.864239 -1.164185
716.33203125 2.0049219999999996 0.825 -1.179922
717.06640625 1.915752 0.835765 -1.079987
717.77734375 1.9415300000000002 0.814347 -1.127183
718.4921875 1.9753090000000002 0.791562 -1.183747
719.22265625 1.992845 0.789279 -1.203566
719.96875 2.05351 0.874621 -1.178889
720.68359375 1.938772 0.809806 -1.128966
721.40234375 1.904216 0.819701 -1.084515
722.1328125 1.992955 0.808611 -1.184344
722.8515625 1.923864 0.773864 -1.15
723.57421875 2.066064 0.861423 -1.204641
724.30078125 2.000136 0.802126 -1.19801
725.02734375 1.902231 0.725 -1.177231
725.75 1.94 0.735 -1.205
726.4765625 1.991504 0.716559 -1.274945
727.1953125 2.008594 0.709344 -1.29925
727.92578125 1.930593 0.690593 -1.24
728.62890625 1.894881 0.710393 -1.184488
729.35546875 1.9219389999999998 0.729995 -1.191944
730.05078125 1.972578 0.745 -1.227578
730.78125 2.037215 0.793173 -1.244042
731.5 2.058241 0.785 -1.273241
732.2109375 1.97724 0.784826 -1.192414
732.921875 1.8793130000000002 0.779807 -1.099506
733.6640625 1.975829 0.764795 -1.211034
734.3828125 1.9814690000000001 0.784043 -1.197426
735.09765625 2.028106 0.869318 -1.158788
735.82421875 1.933665 0.852346 -1.081319
736.5625 1.916897 0.824038 -1.092859
737.296875 1.979999 0.812025 -1.167974
738.03125 2.012721 0.784187 -1.228534
738.7890625 2.076041 0.919589 -1.156452
739.52734375 1.9978249999999997 0.914673 -1.083152
740.2578125 1.977134 0.904805 -1.072329
741.015625 2.003487 0.915 -1.088487
741.77734375 2.031308 0.903945 -1.127363
742.51953125 2.0588699999999998 0.959981 -1.098889
743.26171875 1.973521 0.904355 -1.069166
744.02734375 1.955111 0.88 -1.075111
744.79296875 1.998552 0.874973 -1.123579
745.5546875 2.054173 0.927415 -1.126758
746.3125 2.0480210000000003 0.899038 -1.148983
747.0703125 1.942888 0.823486 -1.119402
747.828125 1.9803389999999998 0.829081 -1.151258
748.6015625 1.957051 0.77 -1.187051
749.37109375 2.001066 0.835 -1.166066
750.171875 2.0626759999999997 0.914272 -1.148404
750.9453125 2.023272 0.899226 -1.124046
751.7109375 2.014468 0.856011 -1.158457
752.49609375 1.998614 0.820954 -1.17766
753.28125 2.073665 0.84425 -1.229415
754.05859375 2.045273 0.869888 -1.175385
754.8125 2.006898 0.851944 -1.154954
755.59375 2.041676 0.820771 -1.220905
756.34765625 2.059491 0.789491 -1.27
757.11328125 2.029922 0.785657 -1.244265
757.8984375 2.0695319999999997 0.859532 -1.21
758.66796875 1.9935580000000002 0.819444 -1.174114
759.43359375 1.986468 0.79153 -1.194938
760.2265625 2.060963 0.83144 -1.229523
761.078125 2.066052 0.849242 -1.21681
761.89453125 2.0546170000000004 0.859944 -1.194673
762.6875 2.0311760000000003 0.807083 -1.224093
763.4921875 2.060815 0.771562 -1.289253
764.29296875 2.105105 0.780105 -1.325
765.10546875 2.084941 0.829994 -1.254947
765.890625 2.048553 0.8 -1.248553
766.671875 1.961057 0.796578 -1.164479
767.453125 2.028197 0.769444 -1.258753
768.2265625 2.069052 0.779475 -1.289577
769.015625 2.034068 0.835 -1.199068
769.765625 2.013904 0.819217 -1.194687
770.515625 2.0480150000000004 0.798027 -1.249988
771.25 1.968224 0.72 -1.248224
772.0 2.019914 0.8 -1.219914
772.74609375 2.0513890000000004 0.863094 -1.188295
773.47265625 1.9678200000000001 0.862476 -1.105344
774.2265625 2.028013 0.863187 -1.164826
774.99609375 2.018735 0.825 -1.193735
775.76171875 2.113254 0.898254 -1.215
776.5234375 2.028475 0.848505 -1.17997
777.3125 1.930743 0.773571 -1.157172
778.07421875 1.980599 0.794735 -1.185864
778.86328125 2.045 0.855 -1.19
779.6171875 1.9978159999999998 0.823611 -1.174205
780.3828125 2.024512 0.839312 -1.1852
781.1640625 2.024973 0.859973 -1.165
781.9609375 2.0370749999999997 0.925 -1.112075
782.7421875 2.027892 0.921544 -1.106348
783.5 2.0098409999999998 0.895 -1.114841
784.26171875 1.997921 0.849707 -1.148214
785.02734375 1.965407 0.781162 -1.184245
785.80078125 2.094824 0.862508 -1.232316
786.5546875 1.961888 0.822502 -1.139386
787.29296875 1.977591 0.850654 -1.126937
788.046875 2.034585 0.855 -1.179585
788.8046875 2.0595 0.864456 -1.195044
789.5625 2.053395 0.953462 -1.099933
790.30859375 1.9859489999999997 0.941691 -1.044258
791.0546875 1.945135 0.888688 -1.056447
791.79296875 1.9249999999999998 0.84 -1.085
792.52734375 1.9871560000000001 0.883641 -1.103515
793.27734375 2.074892 0.978742 -1.09615
794.0390625 2.0488660000000003 0.929789 -1.119077
794.765625 1.885663 0.753857 -1.131806
795.48828125 1.909443 0.754443 -1.155
796.25390625 1.9323329999999999 0.746789 -1.185544
796.9921875 1.928976 0.769802 -1.159174
797.73828125 1.988688 0.849272 -1.139416
798.4921875 1.905478 0.796596 -1.108882
799.25390625 1.940633 0.840719 -1.099914
799.9921875 1.902368 0.747986 -1.154382
800.7578125 1.964953 0.815 -1.149953
801.5234375 1.956321 0.806321 -1.15
802.265625 1.8868779999999998 0.800561 -1.086317
803.0234375 1.937617 0.840517 -1.0971
803.75 1.980556 0.85 -1.130556
804.51171875 2.060561 0.8618 -1.198761
805.24609375 1.9580229999999998 0.853023 -1.105
805.984375 1.935 0.87 -1.065
806.7265625 1.956201 0.881321 -1.07488
807.51953125 1.980191 0.934908 -1.045283
808.28515625 1.99307 0.92935 -1.06372
809.04296875 2.0017180000000003 0.925022 -1.076696
809.82421875 1.9679769999999999 0.909696 -1.058281
810.5625 1.901341 0.842045 -1.059296
811.328125 1.912502 0.797559 -1.114943
812.06640625 1.9561600000000001 0.785 -1.17116
812.83203125 1.984118 0.825582 -1.158536
813.5703125 2.036064 0.85136 -1.184704
814.30078125 1.929473 0.771161 -1.158312
815.0390625 1.896839 0.739945 -1.156894
815.78515625 1.9812589999999999 0.801947 -1.179312
816.515625 1.947772 0.768262 -1.17951
817.2578125 2.037512 0.8598 -1.177712
818.03125 1.955616 0.810818 -1.144798
818.7734375 1.880723 0.770745 -1.109978
819.546875 1.949209 0.794907 -1.154302
820.328125 2.0195309999999997 0.849531 -1.17
821.12890625 2.003885 0.834217 -1.169668
821.91015625 2.002454 0.782356 -1.220098
822.6953125 2.0262919999999998 0.814437 -1.211855
823.5 2.001436 0.79 -1.211436
824.29296875 2.0384349999999998 0.778435 -1.26
825.10546875 2.018646 0.779992 -1.238654
825.8984375 1.9774279999999997 0.787441 -1.189987
826.67578125 1.896933 0.821933 -1.075
827.45703125 1.9685069999999998 0.84353 -1.124977
828.20703125 1.968074 0.853291 -1.114783
828.99609375 2.106959 0.938058 -1.168901
829.7421875 1.975249 0.844187 -1.131062
830.46875 1.924303 0.862031 -1.062272
831.21484375 1.956305 0.846861 -1.109444
831.96484375 2.0528 0.856123 -1.196677
832.69921875 2.0586130000000002 0.888512 -1.170101
833.41796875 1.9361960000000003 0.816196 -1.12
834.16015625 1.8935520000000001 0.804509 -1.089043
834.8984375 1.968213 0.833264 -1.134949
835.62890625 2.0043550000000003 0.838033 -1.166322
836.34765625 2.042666 0.868866 -1.1738
837.09765625 2.022044 0.834701 -1.187343
837.80859375 2.011015 0.854949 -1.156066
838.5390625 2.039949 0.849949 -1.19
839.27734375 2.043617 0.833654 -1.209963
840.015625 1.9933740000000002 0.818374 -1.175
840.75 2.01 0.86 -1.15
841.46875 1.948574 0.814187 -1.134387
842.1875 1.9249459999999998 0.85 -1.074946
842.9140625 1.9731670000000001 0.844975 -1.128192
843.63671875 2.058085 0.883085 -1.175
844.3515625 2.042916 0.885729 -1.157187
845.06640625 2.009675 0.884675 -1.125
845.79296875 1.957004 0.807004 -1.15
846.5390625 2.007522 0.844732 -1.16279
847.2890625 2.008206 0.824216 -1.18399
848.05859375 2.033158 0.829916 -1.203242
848.8359375 2.0211069999999998 0.789811 -1.231296
849.60546875 2.024632 0.759945 -1.264687
850.37890625 2.008574 0.788906 -1.219668
851.19921875 2.021917 0.757296 -1.264621
851.984375 2.076728 0.747231 -1.329497
852.78515625 2.024545 0.79 -1.234545
853.6015625 1.992994 0.80641 -1.186584
854.3828125 2.069068 0.949068 -1.12
855.1796875 2.0861039999999997 0.971104 -1.115
855.9921875 2.032897 0.943374 -1.089523
856.78515625 2.011442 0.936875 -1.074567
857.55078125 1.979755 0.876697 -1.103058
858.32421875 1.973914 0.839569 -1.134345
859.12890625 2.046036 0.864052 -1.181984
859.91015625 2.003707 0.779847 -1.22386
860.71484375 2.032958 0.808489 -1.224469
861.50390625 1.9952860000000001 0.800954 -1.194332
862.32421875 2.05652 0.889533 -1.166987
863.1171875 2.001953 0.837895 -1.164058
863.89453125 1.9299879999999998 0.819994 -1.109994
864.70703125 1.969829 0.785391 -1.184438
865.51953125 2.053341 0.89991 -1.153431
866.28515625 1.959697 0.84358 -1.116117
867.0625 1.9312740000000002 0.81733 -1.113944
867.859375 2.0290109999999997 0.865386 -1.163625
868.61328125 1.9337210000000002 0.813721 -1.12
869.36328125 1.9479739999999999 0.833451 -1.114523
870.1484375 1.9747879999999998 0.782288 -1.1925
870.89453125 2.039392 0.884392 -1.155
871.62109375 1.978719 0.836723 -1.141996
872.3671875 1.929996 0.798984 -1.131012
873.12109375 2.013354 0.838445 -1.174909
873.84765625 2.003693 0.849306 -1.154387
874.57421875 1.9361199999999998 0.864415 -1.071705
875.31640625 1.924283 0.86153 -1.062753
876.04296875 1.974927 0.878368 -1.096559
876.78125 2.0235849999999997 0.902094 -1.121491
877.5078125 1.952272 0.794567 -1.157705
878.25 1.9698829999999998 0.735 -1.234883
878.9765625 2.031327 0.817655 -1.213672
879.703125 1.919258 0.749258 -1.17
880.4375 1.902534 0.702847 -1.199687
881.18359375 2.011561 0.754796 -1.256765
881.91015625 1.996878 0.809312 -1.187566
882.62109375 1.96 0.775 -1.185
883.33984375 1.924852 0.77175 -1.153102
884.08203125 1.9594500000000001 0.72445 -1.235
884.8203125 1.9991729999999999 0.748817 -1.250356
885.54296875 2.004096 0.778442 -1.225654
886.265625 1.974103 0.775361 -1.198742
886.99609375 1.931083 0.695546 -1.235537
887.73046875 1.975613 0.709988 -1.265625
888.46875 1.9833319999999999 0.71707 -1.266262
889.2265625 2.007104 0.762104 -1.245
889.9609375 1.9704989999999998 0.765551 -1.204948
890.69140625 1.9589789999999998 0.744282 -1.214697
891.4375 1.956747 0.751786 -1.204961
892.19921875 2.01539 0.836652 -1.178738
892.91796875 1.9313150000000001 0.765 -1.166315
893.65234375 1.963016 0.769501 -1.193515
894.375 2.005654 0.83 -1.175654
895.09765625 1.988661 0.809844 -1.178817
895.82421875 1.950028 0.762376 -1.187652
896.5625 1.9822419999999998 0.762083 -1.220159
897.31640625 1.983088 0.809796 -1.173292
898.0390625 1.9799499999999999 0.80995 -1.17
898.7734375 1.956341 0.791384 -1.164957
899.5 1.97 0.79 -1.18
900.24609375 2.025022 0.865 -1.160022
900.97265625 2.042708 0.863364 -1.179344
901.6875 1.89702 0.812778 -1.084242
902.38671875 1.9385379999999999 0.804707 -1.133831
903.1015625 1.987787 0.818264 -1.169523
903.80859375 2.042907 0.904545 -1.138362
904.5 1.924169 0.835 -1.089169
905.20703125 1.927263 0.862431 -1.064832
905.9140625 1.9732759999999998 0.871487 -1.101789
906.60546875 1.980038 0.869906 -1.110132
907.29296875 2.058246 0.937592 -1.120654
907.98828125 1.930427 0.864732 -1.065695
908.67578125 1.9143780000000001 0.905355 -1.009023
909.36328125 1.902635 0.87647 -1.026165
910.04296875 1.942874 0.864916 -1.077958
910.734375 1.963675 0.822891 -1.140784
911.41015625 1.998333 0.864298 -1.134035
912.078125 1.886406 0.762645 -1.123761
912.7578125 1.857443 0.853764 -1.003679
913.44921875 1.940734 0.849663 -1.091071
914.1328125 1.914996 0.806522 -1.108474
914.80859375 1.9748919999999999 0.869872 -1.10502
915.49609375 1.9691939999999999 0.868118 -1.101076
916.1953125 1.9470489999999998 0.813352 -1.133697
916.8984375 1.920454 0.799941 -1.120513
917.609375 1.944883 0.76 -1.184883
918.3125 2.02212 0.830446 -1.191674
919.03515625 2.021011 0.859847 -1.161164
919.734375 2.0252689999999998 0.893199 -1.13207
920.45703125 1.937885 0.853735 -1.08415
921.1875 1.947053 0.822083 -1.12497
921.9453125 1.984207 0.814526 -1.169681
922.6796875 2.0246839999999997 0.861961 -1.162723
923.40625 1.981328 0.848437 -1.132891
924.125 1.965859 0.87 -1.095859
924.87890625 2.025834 0.865997 -1.159837
925.62109375 2.067287 0.918135 -1.149152
926.35546875 2.092037 0.959954 -1.132083
927.09765625 2.027078 0.94396 -1.083118
927.83203125 2.00098 0.832511 -1.168469
928.58203125 2.010332 0.825582 -1.18475
929.3359375 2.0307820000000003 0.875 -1.155782
930.12109375 2.092883 0.9538 -1.139083
930.84765625 1.9835280000000002 0.889344 -1.094184
931.58984375 2.102158 1.001319 -1.100839
932.3515625 2.059745 0.9 -1.159745
933.11328125 2.055725 0.928445 -1.12728
933.85546875 1.999725 0.949986 -1.049739
934.56640625 1.9980360000000001 0.959184 -1.038852
935.31640625 2.0137739999999997 0.905 -1.108774
936.04296875 2.0423359999999997 0.872336 -1.17
936.7890625 2.1 0.885 -1.215
937.5234375 2.018217 0.78828 -1.229937
938.2734375 2.0123949999999997 0.792548 -1.219847
938.99609375 2.077453 0.773638 -1.303815
939.7265625 2.1214910000000002 0.836674 -1.284817
940.44921875 2.04999 0.832285 -1.217705
941.17578125 1.993549 0.809491 -1.184058
941.9140625 2.004769 0.824769 -1.18
942.640625 2.028467 0.858199 -1.170268
943.375 2.1057390000000002 0.91 -1.195739
944.10546875 2.048592 0.895259 -1.153333
944.84375 1.965662 0.824651 -1.141011
945.59375 2.0101329999999997 0.778359 -1.231774
946.36328125 2.037335 0.787516 -1.249819
947.109375 2.080734 0.861696 -1.219038
947.828125 1.960139 0.814794 -1.145345
948.55078125 1.889684 0.750383 -1.139301
949.30078125 2.0133900000000002 0.810798 -1.202592
950.02734375 2.02793 0.719347 -1.308583
950.75390625 2.068791 0.758791 -1.31
951.4765625 1.994052 0.705 -1.289052
952.19140625 1.974433 0.709581 -1.264852
952.9140625 2.00488 0.755544 -1.249336
953.6484375 2.0152 0.804941 -1.210259
954.390625 2.087318 0.833804 -1.253514
955.109375 1.987925 0.847925 -1.14
955.85546875 1.961655 0.814964 -1.146691
956.59765625 1.9923510000000002 0.774862 -1.217489
957.375 2.059977 0.84 -1.219977
958.1328125 2.003015 0.799151 -1.203864
958.88671875 1.943257 0.794343 -1.148914
959.640625 2.023473 0.780768 -1.242705
960.40234375 2.091523 0.869664 -1.221859
961.16015625 2.035302 0.882354 -1.152948
961.94140625 2.04396 0.89574 -1.14822
962.71484375 2.123457 0.924339 -1.199118
963.48046875 2.047043 0.87996 -1.167083
964.25 2.017284 0.87 -1.147284
965.01953125 2.019994 0.859994 -1.16
965.8203125 2.0040750000000003 0.861888 -1.142187
966.59765625 2.047028 0.899687 -1.147341
967.35546875 2.00442 0.894923 -1.109497
968.125 2.040749 0.92 -1.120749
968.88671875 1.9979239999999998 0.863644 -1.13428
969.62109375 1.964003 0.817951 -1.146052
970.37890625 2.053969 0.849086 -1.204883
971.15234375 2.027244 0.81949 -1.207754
971.9140625 2.049352 0.839352 -1.21
972.6953125 2.018532 0.806433 -1.212099
973.48046875 2.049888 0.845 -1.204888
974.25390625 2.017895 0.827974 -1.189921
974.9921875 1.935454 0.773328 -1.162126
975.734375 1.9674710000000002 0.768042 -1.199429
976.47265625 2.048562 0.774448 -1.274114
977.2109375 2.047982 0.794937 -1.253045
977.9453125 2.0668699999999998 0.813132 -1.253738
978.66796875 1.992561 0.827561 -1.165
979.41796875 2.012476 0.847476 -1.165
980.13671875 1.988216 0.826253 -1.161963
980.8671875 1.9939529999999999 0.834534 -1.159419
981.5859375 2.026859 0.904912 -1.121947
982.32421875 1.967686 0.87451 -1.093176
983.03125 1.9476179999999998 0.879187 -1.068431
983.7421875 1.9396930000000001 0.79 -1.149693
984.4453125 1.9832539999999999 0.794781 -1.188473
985.1640625 2.052713 0.879869 -1.172844
985.859375 1.9934029999999998 0.804121 -1.189282
986.55859375 1.909081 0.794081 -1.115
987.26953125 1.9176069999999998 0.715 -1.202607
987.984375 1.9711830000000001 0.726183 -1.245
988.67578125 1.940633 0.744491 -1.196142
989.375 1.880537 0.705 -1.175537
990.09375 1.913472 0.725 -1.188472
990.80078125 1.9624039999999998 0.737883 -1.224521
991.51171875 1.997682 0.747493 -1.250189
992.21484375 1.9976880000000001 0.733508 -1.26418
992.9375 1.995453 0.761518 -1.233935
993.65625 2.0415859999999997 0.788813 -1.252773
994.390625 1.987114 0.703206 -1.283908
995.1328125 2.015347 0.717917 -1.29743
995.89453125 2.069372 0.754924 -1.314448
996.65625 2.0295360000000002 0.768 -1.261536
997.42578125 1.967493 0.75 -1.217493
998.22265625 1.9985169999999999 0.764276 -1.234241
999.0234375 1.991167 0.761968 -1.229199
999.859375 2.0791340000000003 0.886183 -1.192951
1000.6328125 1.970577 0.797848 -1.172729
1001.44140625 1.9886720000000002 0.79446 -1.194212
1002.24609375 2.040454 0.756517 -1.283937
1003.04296875 2.082971 0.822971 -1.26
1003.83984375 1.999298 0.854298 -1.145
1004.609375 1.932484 0.793092 -1.139392
1005.390625 1.9900479999999998 0.810361 -1.179687
1006.19140625 1.9834209999999999 0.839888 -1.143533
1007.0078125 2.042488 0.944789 -1.097699
1007.7890625 1.989153 0.849153 -1.14
1008.5546875 1.93996 0.834781 -1.105179
1009.34375 1.9803 0.862786 -1.117514
1010.125 1.999672 0.83 -1.169672
1010.90625 2.070139 0.880412 -1.189727
1011.6875 1.968378 0.785833 -1.182545
1012.4453125 1.9570859999999999 0.759451 -1.197635
1013.2265625 1.966444 0.691591 -1.274853
1014.01171875 2.002875 0.728254 -1.274621
1014.83203125 2.037897 0.823033 -1.214864
1015.64453125 1.9939879999999999 0.79992 -1.194068
1016.43359375 1.998794 0.734577 -1.264217
1017.21875 1.989814 0.69 -1.299814
1018.0078125 2.052412 0.762412 -1.29
1018.79296875 2.0300000000000002 0.825 -1.205
1019.55859375 1.9747439999999998 0.809813 -1.164931
1020.34375 2.045157 0.81884 -1.226317
1021.109375 2.070198 0.817925 -1.252273
1021.8671875 2.0561119999999997 0.859105 -1.197007
1022.625 1.974948 0.845 -1.129948
1023.3828125 2.012512 0.8498 -1.162712
1024.1328125 1.986095 0.796287 -1.189808
1024.875 2.0499400000000003 0.875 -1.17494
1025.6484375 2.107535 0.937617 -1.169918
1026.40234375 2.0377840000000003 0.899859 -1.137925
1027.12109375 1.9756040000000001 0.852871 -1.122733
1027.875 2.0505370000000003 0.855 -1.195537
1028.62109375 2.015803 0.812445 -1.203358
1029.3515625 2.087955 0.848292 -1.239663
1030.08203125 2.0682970000000003 0.853494 -1.214803
1030.80078125 1.9555879999999999 0.789523 -1.166065
1031.5234375 2.028876 0.883953 -1.144923
1032.234375 2.0059139999999998 0.825703 -1.180211
1032.9453125 2.023775 0.8194 -1.204375
1033.671875 2.0505199999999997 0.855 -1.19552
1034.3671875 1.9586869999999998 0.779268 -1.179419
1035.05859375 1.9839259999999999 0.794739 -1.189187
1035.76953125 2.009936 0.764968 -1.244968
1036.47265625 2.019604 0.724859 -1.294745
1037.16796875 2.0880330000000002 0.768033 -1.32
1037.8671875 2.109319 0.859521 -1.249798
1038.55078125 2.049783 0.83 -1.219783
1039.25 1.9684 0.855 -1.1134
1039.94140625 1.942727 0.79 -1.152727
1040.640625 1.9976790000000002 0.782822 -1.214857
1041.3203125 2.0269880000000002 0.788132 -1.238856
1042.03515625 2.0718769999999997 0.857588 -1.214289
1042.73046875 1.999743 0.834935 -1.164808
1043.421875 1.969408 0.784408 -1.185
1044.12890625 1.9984129999999998 0.759011 -1.239402
1044.85546875 2.028155 0.734973 -1.293182
1045.5625 2.027633 0.728698 -1.298935
1046.2734375 2.0411770000000002 0.804927 -1.23625
1046.99609375 2.013235 0.827223 -1.186012
1047.71875 1.954032 0.841 -1.113032
1048.4296875 2.031668 0.888514 -1.143154
1049.1484375 1.991467 0.86141 -1.130057
1049.890625 2.074017 0.92915 -1.144867
1050.6171875 2.051262 0.975 -1.076262
1051.3359375 1.9860769999999999 0.960514 -1.025563
1052.07421875 2.034057 0.939057 -1.095
1052.8359375 2.066538 0.939889 -1.126649
1053.57421875 2.125332 0.976245 -1.149087
1054.3125 2.061103 0.955 -1.106103
1055.03515625 2.0485379999999997 0.949236 -1.099302
1055.7890625 2.004714 0.854714 -1.15
1056.53125 2.041328 0.848535 -1.192793
1057.28125 2.0689699999999998 0.904635 -1.164335
1058.01953125 1.9923009999999999 0.924932 -1.067369
1058.7421875 1.989875 0.872946 -1.116929
1059.47265625 2.0262890000000002 0.814068 -1.212221
1060.203125 2.0061620000000002 0.759766 -1.246396
1060.96484375 2.081283 0.826509 -1.254774
1061.6875 1.9689990000000002 0.81875 -1.150249
1062.4140625 1.939845 0.784845 -1.155
1063.13671875 2.0293419999999998 0.754707 -1.274635
1063.8984375 2.026332 0.735023 -1.291309
1064.6328125 2.0861359999999998 0.783374 -1.302762
1065.36328125 2.015924 0.789222 -1.226702
1066.08203125 1.971296 0.761296 -1.21
1066.8125 2.033449 0.753462 -1.279987
1067.55078125 2.00529 0.788174 -1.217116
1068.29296875 2.06 0.89 -1.17
1069.0390625 2.009571 0.834773 -1.174798
1069.76953125 2.014951 0.794994 -1.219957
1070.515625 2.019155 0.8429 -1.176255
1071.25390625 2.008252 0.867871 -1.140381
1072.015625 2.037579 0.94125 -1.096329
1072.7421875 1.987591 0.899289 -1.088302
1073.484375 1.961654 0.797925 -1.163729
1074.21875 2.042883 0.8225 -1.220383
1074.96875 2.07366 0.864656 -1.209004
1075.71875 2.075718 0.963375 -1.112343
1076.45703125 1.983378 0.873457 -1.109921
1077.21484375 2.028088 0.805969 -1.222119
1077.96875 2.006037 0.758781 -1.247256
1078.71875 2.128375 0.893814 -1.234561
1079.453125 2.0503679999999997 0.883118 -1.16725
1080.19140625 1.985995 0.85995 -1.126045
1080.93359375 1.9809649999999999 0.774949 -1.206016
1081.66015625 2.022262 0.818624 -1.203638
1082.37890625 2.042768 0.858048 -1.18472
1083.11328125 2.000649 0.93 -1.070649
1083.81640625 1.949351 0.87467 -1.074681
1084.52734375 1.921507 0.863831 -1.057676
1085.25 1.983809 0.815 -1.168809
1085.98828125 2.040136 0.867856 -1.17228
1086.6953125 2.018994 0.905 -1.113994
1087.40234375 1.902295 0.848023 -1.054272
1088.12890625 1.908833 0.848833 -1.06
1088.859375 1.9737879999999999 0.78415 -1.189638
1089.5859375 2.0048880000000002 0.775 -1.229888
1090.3046875 1.9950320000000001 0.857514 -1.137518
1091.00390625 1.897881 0.79828 -1.099601
1091.7109375 1.932202 0.884746 -1.047456
1092.4140625 1.964773 0.789773 -1.175
1093.12109375 2.002791 0.753107 -1.249684
1093.83203125 2.055261 0.886649 -1.168612
1094.52734375 2.006753 0.903804 -1.102949
1095.2109375 1.870874 0.864854 -1.00602
1095.91015625 1.942745 0.841907 -1.100838
1096.6328125 2.0140890000000002 0.889089 -1.125
1097.34765625 2.031592 0.899619 -1.131973
1098.06640625 2.087791 0.952864 -1.134927
1098.74609375 1.9385720000000002 0.854011 -1.084561
1099.48046875 1.989667 0.809652 -1.180015
1100.1953125 2.002349 0.78307 -1.219279
1100.921875 2.01379 0.779909 -1.233881
1101.671875 2.081695 0.913672 -1.168023
1102.43359375 2.0179 0.9 -1.1179
1103.17578125 1.984603 0.834814 -1.149789
1103.92578125 2.064933 0.843512 -1.221421
1104.71484375 2.04471 0.88471 -1.16
1105.4765625 1.991952 0.901144 -1.090808
1106.2421875 1.963908 0.836177 -1.127731
1106.99609375 2.033908 0.87 -1.163908
1107.78515625 2.056326 0.934904 -1.121422
1108.55078125 2.026065 0.942274 -1.083791
1109.328125 2.002438 0.809908 -1.19253
1110.1171875 2.013199 0.804011 -1.209188
1110.88671875 2.041832 0.873295 -1.168537
1111.6640625 2.023462 0.934742 -1.08872
1112.41015625 1.975885 0.862699 -1.113186
1113.19921875 1.997532 0.774108 -1.223424
1113.96875 2.075766 0.771719 -1.304047
1114.7421875 2.128033 0.87 -1.258033
1115.50390625 2.072958 0.882958 -1.19
1116.265625 1.9719259999999998 0.878154 -1.093772
1117.02734375 1.981479 0.813345 -1.168134
1117.796875 2.03893 0.784396 -1.254534
1118.59375 2.046876 0.829641 -1.217235
1119.36328125 2.067012 0.933908 -1.133104
1120.109375 2.073597 0.974121 -1.099476
1120.890625 2.018777 0.86392 -1.154857
1121.68359375 2.049808 0.839883 -1.209925
1122.4921875 2.057961 0.795 -1.262961
1123.30078125 2.078315 0.935242 -1.143073
1124.1328125 2.019461 0.905461 -1.114
1124.95703125 2.02279 0.84779 -1.175
1125.796875 2.09185 0.903792 -1.188058
1126.65234375 2.108475 1.018773 -1.089702
1127.44921875 2.060645 0.969216 -1.091429
1128.2265625 2.034337 0.911559 -1.122778
1129.02734375 2.087539 0.902539 -1.185
1129.8046875 2.113189 0.989781 -1.123408
1130.5546875 1.945723 0.96 -0.985723
1131.28515625 1.915 0.98 -0.935
1132.046875 1.97065 0.856797 -1.113853
1132.78125 2.044339 0.837031 -1.207308
1133.53125 2.03377 0.824205 -1.209565
1134.28125 2.063077 0.887012 -1.176065
1135.01953125 1.9994360000000002 0.834987 -1.164449
1135.75390625 1.97253 0.795 -1.17753
1136.484375 2.014465 0.727545 -1.28692
1137.234375 1.9699460000000002 0.725 -1.244946
1137.9921875 2.0544909999999996 0.825 -1.229491
1138.73828125 2.0376279999999998 0.833181 -1.204447
1139.4609375 1.98488 0.76988 -1.215
1140.22265625 2.045421 0.759861 -1.28556
1140.984375 2.060571 0.795254 -1.265317
1141.74609375 2.029628 0.795 -1.234628
1142.53125 1.959312 0.76 -1.199312
1143.32421875 2.110837 0.777985 -1.332852
1144.09375 2.138725 0.893799 -1.244926
1144.859375 2.100829 0.91 -1.190829
1145.6328125 1.989636 0.827917 -1.161719
1146.39453125 2.080283 0.770289 -1.309994
1147.15625 2.1010809999999998 0.787536 -1.313545
1147.90234375 2.102925 0.895 -1.207925
1148.6484375 2.020441 0.884081 -1.13636
1149.38671875 2.007 0.84 -1.167
1150.14453125 1.988112 0.764925 -1.223187
1150.90234375 2.08 0.81 -1.27
1151.6484375 2.023279 0.793301 -1.229978
1152.39453125 2.10629 0.924951 -1.181339
1153.1328125 2.027985 0.959079 -1.068906
1153.890625 2.023254 0.857183 -1.166071
1154.62890625 2.0985519999999998 0.84372 -1.254832
1155.37890625 2.069345 0.825 -1.244345
1156.125 2.135066 0.91 -1.225066
1156.875 1.995 0.895 -1.1
1157.6328125 2.039298 0.851575 -1.187723
1158.4140625 2.089687 0.839687 -1.25
1159.21484375 2.06425 0.834461 -1.229789
1160.0078125 2.07897 0.90397 -1.175
1160.78515625 1.9126 0.7176 -1.195
1161.578125 2.062173 0.774643 -1.28753
1162.39453125 2.070234 0.770234 -1.3
1163.1875 2.081735 0.837045 -1.24469
1163.9453125 2.017289 0.769437 -1.247852
1164.74609375 2.069906 0.788135 -1.281771
1165.53515625 2.086109 0.771109 -1.315
1166.33203125 2.063347 0.843368 -1.219979
1167.12890625 1.9975450000000001 0.805131 -1.192414
1167.921875 2.01914 0.779342 -1.239798
1168.7265625 2.143492 0.874618 -1.268874
1169.51171875 1.9891619999999999 0.810094 -1.179068
1170.30859375 2.033938 0.824739 -1.209199
1171.1015625 2.006357 0.736674 -1.269683
1171.890625 2.033187 0.815 -1.218187
1172.671875 1.969486 0.783709 -1.185777
1173.4453125 2.020648 0.801626 -1.219022
1174.234375 2.076308 0.846902 -1.229406
1175.015625 2.0086779999999997 0.849199 -1.159479
1175.81640625 1.9841039999999999 0.819417 -1.164687
1176.62890625 1.9860639999999998 0.79171 -1.194354
1177.4375 2.013111 0.788125 -1.224986
1178.30078125 1.9931830000000001 0.758925 -1.234258
1179.125 2.064854 0.84 -1.224854
1179.921875 2.0438330000000002 0.864531 -1.179302
1180.7109375 2.0029630000000003 0.81 -1.192963
1181.51953125 2.010267 0.855281 -1.154986
1182.33203125 1.948772 0.848772 -1.1
1183.1484375 2.004841 0.729847 -1.274994
1183.98046875 2.0377989999999997 0.755469 -1.28233
1184.76171875 1.972369 0.809707 -1.162662
1185.53125 1.971809 0.753906 -1.217903
1186.37890625 1.9964220000000001 0.761422 -1.235
1187.23046875 1.98998 0.77998 -1.21
1188.0859375 2.051707 0.860556 -1.191151
1188.88671875 2.031367 0.899023 -1.132344
1189.69140625 2.013223 0.859749 -1.153474
1190.48828125 2.066976 0.894633 -1.172343
1191.26953125 1.997548 0.89 -1.107548
1192.0546875 2.003495 0.839851 -1.163644
1192.83984375 1.9723929999999998 0.849339 -1.123054
1193.62890625 2.04155 0.956823 -1.084727
1194.4140625 2.00036 0.884781 -1.115579
1195.20703125 1.983578 0.818785 -1.164793
1196.0 2.079789 0.93 -1.149789
1196.7578125 2.031088 0.914485 -1.116603
1197.546875 1.9960809999999998 0.826961 -1.16912
1198.32421875 1.994893 0.802054 -1.192839
1199.12109375 2.0675149999999998 0.893107 -1.174408
1199.8984375 2.003701 0.906375 -1.097326
1200.6875 2.002865 0.866518 -1.136347
1201.46484375 2.0479950000000002 0.917741 -1.130254
1202.23828125 2.030798 0.945 -1.085798
1203.0078125 1.937932 0.842161 -1.095771
1203.76171875 2.051643 0.868362 -1.183281
1204.515625 2.032946 0.892946 -1.14
1205.23828125 1.956886 0.884397 -1.072489
1205.96484375 1.9772669999999999 0.864993 -1.112274
1206.6953125 2.037927 0.83307 -1.204857
1207.4296875 2.080477 0.889464 -1.191013
1208.1640625 2.09495 0.99495 -1.1
1208.88671875 1.9736989999999999 0.914002 -1.059697
1209.59375 1.950317 0.899 -1.051317
1210.3046875 1.9806439999999998 0.87278 -1.107864
1211.03125 2.024181 0.836281 -1.1879
1211.7421875 2.038083 0.908645 -1.129438
1212.44921875 1.968798 0.854567 -1.114231
1213.1484375 2.007353 0.888311 -1.119042
1213.8671875 2.004206 0.837578 -1.166628
1214.58203125 2.025404 0.856649 -1.168755
1215.29296875 2.028442 0.878442 -1.15
1215.98828125 1.992255 0.847817 -1.144438
1216.72265625 1.999989 0.827539 -1.17245
1217.43359375 2.039481 0.844532 -1.194949
1218.15234375 2.001544 0.882636 -1.118908
1218.87109375 1.999077 0.884077 -1.115
1219.62890625 2.001413 0.851544 -1.149869
1220.34765625 2.00504 0.833773 -1.171267
1221.09375 2.083206 0.953761 -1.129445
1221.8203125 2.008557 0.924092 -1.084465
1222.57421875 2.057652 0.880017 -1.177635
1223.3203125 2.055015 0.847267 -1.207748
1224.078125 2.094346 0.919346 -1.175
1224.828125 2.021907 0.805 -1.216907
1225.55859375 2.0264699999999998 0.789947 -1.236523
1226.31640625 2.095 0.88 -1.215
1227.046875 2.051773 0.898815 -1.152958
1227.8046875 2.039853 0.844661 -1.195192
1228.55078125 2.076115 0.832812 -1.243303
1229.30078125 2.0931189999999997 0.882007 -1.211112
1230.0390625 2.054973 0.944973 -1.11
1230.7734375 2.000991 0.891045 -1.109946
1231.515625 2.030715 0.887396 -1.143319
1232.2578125 2.031478 0.853018 -1.17846
1233.02734375 2.0587299999999997 0.918496 -1.140234
1233.7734375 2.02379 0.92342 -1.10037
1234.515625 2.034256 0.944275 -1.089981
1235.26171875 2.013052 0.891065 -1.121987
1236.03125 2.093824 0.971987 -1.121837
1236.78515625 2.062361 0.995 -1.067361
1237.5234375 1.998228 0.933303 -1.064925
1238.30078125 2.040709 0.8783 -1.162409
1239.07421875 2.05414 0.93935 -1.11479
1239.83203125 2.01056 0.87 -1.14056
1240.61328125 2.059291 0.904734 -1.154557
1241.42578125 2.079714 0.975 -1.104714
1242.21484375 2.079272 0.99 -1.089272
1242.9921875 1.949563 0.884753 -1.06481
1243.828125 2.076924 0.979272 -1.097652
1244.62109375 2.080715 1.039649 -1.041066
1245.4375 2.011623 0.948824 -1.062799
1246.25 2.045 0.955 -1.09
1247.078125 2.06823 1.074153 -0.994077
1247.8828125 2.033231 1.018231 -1.015
1248.69140625 2.021069 0.849694 -1.171375
1249.53515625 2.055058 0.908536 -1.146522
1250.35546875 2.043606 0.94996 -1.093646
1251.1796875 2.00724 0.874429 -1.132811
1252.015625 2.037122 0.977942 -1.05918
1252.8046875 1.982996 0.982391 -1.000605
1253.578125 1.955759 0.964561 -0.991198
1254.33984375 1.978197 0.933753 -1.044444
1255.109375 2.025106 0.960561 -1.064545
1255.859375 1.9855939999999999 0.99808 -0.987514
1256.62109375 1.9463949999999999 0.960329 -0.986066
1257.40234375 2.012948 0.984144 -1.028804
1258.16796875 2.041869 1.061869 -0.98
1258.90234375 2.003051 1.068654 -0.934397
1259.6484375 1.934388 0.949449 -0.984939
1260.3984375 1.9537849999999999 0.898728 -1.055057
1261.14453125 1.992811 0.9 -1.092811
1261.8828125 2.001576 0.977763 -1.023813
1262.609375 1.981684 0.997739 -0.983945
1263.328125 1.941739 0.977025 -0.964714
1264.05078125 1.958669 0.89 -1.068669
1264.79296875 2.066074 0.951074 -1.115
1265.53125 1.999082 0.950781 -1.048301
1266.23828125 1.953281 0.923862 -1.029419
1266.96875 1.9993159999999999 0.842031 -1.157285
1267.69921875 2.000787 0.822235 -1.178552
1268.453125 2.034576 0.909802 -1.124774
1269.1875 1.9805549999999998 0.886346 -1.094209
1269.9296875 2.011698 0.893158 -1.11854
1270.67578125 1.984553 0.87 -1.114553
1271.4375 2.055883 0.947014 -1.108869
1272.19921875 1.9954429999999999 0.875798 -1.119645
1272.97265625 2.010728 0.87 -1.140728
1273.75390625 1.98621 0.831969 -1.154241
1274.53515625 2.044678 0.865101 -1.179577
1275.28125 1.984319 0.836962 -1.147357
1276.01953125 1.9006750000000001 0.769946 -1.130729
1276.78515625 1.9920559999999998 0.782056 -1.21
1277.5390625 2.070662 0.810662 -1.26
1278.2734375 2.019377 0.849428 -1.169949
1279.015625 2.03035 0.901309 -1.129041
1279.765625 2.031898 0.850643 -1.181255
1280.5 1.9837950000000002 0.775 -1.208795
1281.26171875 2.041153 0.857773 -1.18338
1282.03125 1.960982 0.778068 -1.182914
1282.7578125 1.9212879999999999 0.709301 -1.211987
1283.51953125 1.991647 0.700287 -1.29136
1284.3046875 2.036414 0.687391 -1.349023
1285.08984375 2.059478 0.76 -1.299478
1285.88671875 1.999889 0.699734 -1.300155
1286.671875 2.016187 0.709643 -1.306544
1287.453125 1.9785030000000001 0.73418 -1.244323
1288.1875 1.983908 0.73 -1.253908
1288.94921875 2.013064 0.693494 -1.31957
1289.70703125 2.037032 0.727219 -1.309813
1290.453125 1.982469 0.74707 -1.235399
1291.18359375 2.009853 0.789888 -1.219965
1291.9140625 2.049978 0.774978 -1.275
1292.65625 2.05132 0.782821 -1.268499
1293.38671875 2.026679 0.808946 -1.217733
1294.11328125 1.952499 0.763134 -1.189365
1294.82421875 1.958421 0.749188 -1.209233
1295.56640625 2.020593 0.779311 -1.241282
1296.28515625 2.090289 0.861319 -1.22897
1297.0 1.975 0.885 -1.09
1297.71875 1.9922719999999998 0.91 -1.082272
1298.46484375 1.958294 0.847329 -1.110965
1299.1875 1.97376 0.815227 -1.158533
1299.91015625 1.989422 0.868663 -1.120759
1300.640625 1.917473 0.882838 -1.034635
1301.38671875 2.004947 0.94218 -1.062767
1302.1171875 1.990678 0.898303 -1.092375
1302.8359375 2.028783 0.929669 -1.099114
1303.5625 1.973614 0.883667 -1.089947
1304.2734375 1.904127 0.824784 -1.079343
1304.99609375 2.013354 0.816018 -1.197336
1305.73046875 2.1098749999999997 0.904987 -1.204888
1306.46875 1.988375 0.858375 -1.13
1307.18359375 2.003006 0.874683 -1.128323
1307.91796875 1.981521 0.862422 -1.119099
1308.64453125 2.049936 0.92 -1.129936
1309.3984375 2.123953 1.008953 -1.115
1310.12109375 2.0333259999999997 0.931093 -1.102233
1310.8515625 2.032746 0.910663 -1.122083
1311.5625 2.035663 0.906944 -1.128719
1312.29296875 2.092592 0.932592 -1.16
1313.01171875 1.976502 0.922361 -1.054141
1313.7265625 2.01387 0.92387 -1.09
1314.46484375 2.065991 0.911692 -1.154299
1315.19140625 2.124168 0.984324 -1.139844
1315.90234375 2.024526 0.938921 -1.085605
1316.609375 1.974627 0.910111 -1.064516
1317.34375 1.99864 0.85 -1.14864
1318.0703125 2.046565 0.898779 -1.147786
1318.80078125 2.112451 0.9283 -1.184151
1319.5078125 2.013849 0.938611 -1.075238
1320.23828125 2.00716 0.927773 -1.079387
1320.95703125 2.007206 0.845176 -1.16203
1321.6875 2.027162 0.887167 -1.139995
1322.4296875 2.093711 0.955 -1.138711
1323.18359375 2.009812 0.964832 -1.04498
1323.90625 2.04507 0.995735 -1.049335
1324.6328125 2.057862 0.947862 -1.11
1325.375 2.055991 0.995 -1.060991
1326.1171875 1.977452 0.94 -1.037452
1326.85546875 1.9767430000000001 0.934957 -1.041786
1327.578125 2.011075 0.891098 -1.119977
1328.30859375 2.079533 0.884739 -1.194794
1329.0390625 2.109919 0.924919 -1.185
1329.7734375 2.076403 0.93141 -1.144993
1330.5 1.996089 0.875 -1.121089
1331.2421875 1.995742 0.848228 -1.147514
1331.96484375 2.019964 0.803474 -1.21649
1332.68359375 2.069925 0.865 -1.204925
1333.3984375 1.991636 0.851658 -1.139978
1334.15625 2.004308 0.862786 -1.141522
1334.87890625 2.029292 0.844482 -1.18481
1335.59765625 2.0539430000000003 0.894428 -1.159515
1336.3125 2.018658 0.923466 -1.095192
1337.0234375 1.943644 0.893908 -1.049736
1337.734375 2.003344 0.858521 -1.144823
1338.44140625 2.063525 0.894229 -1.169296
1339.16796875 2.06865 0.925954 -1.142696
1339.8671875 2.024178 0.939485 -1.084693
1340.55078125 1.9655589999999998 0.889447 -1.076112
1341.25390625 2.0005420000000003 0.897006 -1.103536
1341.96875 1.971757 0.828309 -1.143448
1342.66796875 2.0742320000000003 0.908358 -1.165874
1343.36328125 1.947968 0.823411 -1.124557
1344.02734375 1.879299 0.86107 -1.018229
1344.72265625 1.955543 0.84 -1.115543
1345.40625 1.957619 0.773711 -1.183908
1346.09765625 2.009275 0.839638 -1.169637
1346.7734375 1.906901 0.756968 -1.149933
1347.453125 1.85319 0.808975 -1.044215
1348.12890625 1.9202020000000002 0.751065 -1.169137
1348.80078125 1.885934 0.67432 -1.211614
1349.46484375 1.9680049999999998 0.728474 -1.239531
1350.13671875 1.9585029999999999 0.698862 -1.259641
1350.796875 1.867958 0.729678 -1.13828
1351.47265625 1.8687559999999999 0.654144 -1.214612
1352.1171875 1.9113550000000001 0.643526 -1.267829
1352.78515625 1.996296 0.70784 -1.288456
1353.43359375 1.8498999999999999 0.63488 -1.21502
1354.1015625 1.8371810000000002 0.708292 -1.128889
1354.76171875 1.869647 0.621726 -1.247921
1355.44140625 1.897268 0.589948 -1.30732
1356.10546875 2.0248169999999996 0.72 -1.304817
1356.73828125 1.8616860000000002 0.672667 -1.189019
1357.39453125 1.854708 0.769994 -1.084714
1358.07421875 1.899759 0.725436 -1.174323
1358.7421875 1.939643 0.76 -1.179643
1359.38671875 2.028172 0.829698 -1.198474
1360.015625 1.919009 0.772031 -1.146978
1360.671875 1.9088660000000002 0.764789 -1.144077
1361.328125 1.964578 0.694909 -1.269669
1361.96875 1.9225020000000002 0.705 -1.217502
1362.62109375 2.0187749999999998 0.806894 -1.211881
1363.26171875 1.925468 0.763515 -1.161953
1363.94140625 1.866333 0.815 -1.051333
1364.58984375 1.912968 0.784565 -1.128403
1365.2578125 1.9449999999999998 0.82 -1.125
1365.921875 2.03 0.83 -1.2
1366.60546875 1.9307759999999998 0.834979 -1.095797
1367.265625 1.9675189999999998 0.827822 -1.139697
1367.9453125 1.9389349999999999 0.826888 -1.112047
1368.6015625 1.9536639999999998 0.834216 -1.119448
1369.2890625 1.968114 0.869922 -1.098192
1369.96484375 2.026967 0.942756 -1.084211
1370.65234375 2.048337 0.978614 -1.069723
1371.34375 1.971482 1.009594 -0.961888
1372.0546875 1.973755 1.003755 -0.97
1372.75 1.989789 0.96 -1.029789
1373.46875 2.023661 0.94874 -1.074921
1374.18359375 2.030926 0.98482 -1.046106
1374.91015625 1.972347 0.982551 -0.989796
1375.63671875 1.9834009999999997 0.954355 -1.029046
1376.35546875 2.019749 0.939929 -1.07982
1377.1015625 2.041007 0.912441 -1.128566
1377.83203125 2.1509270000000003 1.016107 -1.13482
1378.5625 1.998903 0.978947 -1.019956
1379.30078125 1.969956 0.946245 -1.023711
1380.06640625 2.027883 0.969638 -1.058245
1380.796875 2.038908 0.944815 -1.094093
1381.53515625 2.056594 0.972551 -1.084043
1382.2734375 2.028832 0.968864 -1.059968
1383.015625 1.992761 0.958199 -1.034562
1383.76171875 2.1100309999999998 0.971726 -1.138305
1384.50390625 2.107597 0.967914 -1.139683
1385.25390625 1.956 0.865759 -1.090241
1385.98828125 1.91539 0.807561 -1.107829
1386.7578125 1.9866230000000002 0.808498 -1.178125
1387.52734375 1.997689 0.783283 -1.214406
1388.3046875 2.1241269999999997 0.919141 -1.204986
1389.05859375 1.969887 0.839916 -1.129971
1389.82421875 1.995358 0.863302 -1.132056
1390.6171875 2.093984 0.948984 -1.145
1391.38671875 1.9970759999999999 0.922667 -1.074409
1392.140625 2.018882 0.899023 -1.119859
1392.87890625 2.063186 0.878127 -1.185059
1393.640625 2.032552 0.895264 -1.137288
1394.3828125 2.0866569999999998 0.964011 -1.122646
1395.10546875 1.998688 0.88 -1.118688
1395.8359375 1.9415809999999998 0.84 -1.101581
1396.578125 2.034473 0.869578 -1.164895
1397.296875 1.991692 0.834174 -1.157518
1398.015625 2.078242 0.933242 -1.145
1398.7421875 1.9842020000000002 0.80639 -1.177812
1399.46875 1.995971 0.829654 -1.166317
1400.19140625 2.036321 0.835 -1.201321
1400.8984375 2.027111 0.797768 -1.229343
1401.6328125 2.0691930000000003 0.856206 -1.212987
1402.34375 2.013151 0.793594 -1.219557
1403.0546875 1.989288 0.789288 -1.2
1403.78515625 2.002037 0.787762 -1.214275
1404.51171875 2.001519 0.766827 -1.234692
1405.2265625 2.0727279999999997 0.81328 -1.259448
1405.9296875 1.921186 0.739683 -1.181503
1406.625 1.940829 0.775 -1.165829
1407.33984375 2.024053 0.794986 -1.229067
1408.03515625 2.0270479999999997 0.804055 -1.222993
1408.75 2.0692709999999996 0.825 -1.244271
1409.44921875 2.059139 0.826902 -1.232237
1410.1796875 2.093783 0.864781 -1.229002
1410.8984375 2.011209 0.821248 -1.189961
1411.62890625 2.010997 0.775997 -1.235
1412.3828125 2.089071 0.75897 -1.330101
1413.1484375 2.158165 0.818187 -1.339978
1413.88671875 2.074948 0.833229 -1.241719
1414.6171875 2.0008939999999997 0.818303 -1.182591
1415.375 2.013442 0.815 -1.198442
1416.11328125 2.014564 0.812308 -1.202256
1416.85546875 2.099951 0.919951 -1.18
1417.5703125 1.990903 0.869437 -1.121466
1418.3125 1.965625 0.830625 -1.135
1419.0390625 2.014869 0.819869 -1.195
1419.7734375 2.021963 0.776978 -1.244985
1420.51953125 2.088488 0.834937 -1.253551
1421.265625 1.99689 0.797822 -1.199068
1422.0 2.039857 0.84 -1.199857
1422.7578125 2.052578 0.822578 -1.23
1423.53515625 2.07386 0.866907 -1.206953
1424.296875 2.074721 0.886092 -1.188629
1425.06640625 2.1479090000000003 0.944617 -1.203292
1425.8125 2.088441 0.913462 -1.174979
1426.57421875 2.059921 0.879921 -1.18
1427.3203125 2.08588 0.85588 -1.23
1428.07421875 2.086569 0.899663 -1.186906
1428.83203125 2.106382 0.931407 -1.174975
1429.5859375 1.998037 0.88 -1.118037
1430.3359375 2.084554 0.914891 -1.169663
1431.07421875 2.039571 0.889571 -1.15
1431.84765625 2.075 0.93 -1.145
1432.5859375 1.9710480000000001 0.844977 -1.126071
1433.33203125 1.94952 0.839774 -1.109746
1434.0546875 1.974428 0.779428 -1.195
1434.8203125 2.011458 0.746802 -1.264656
1435.57421875 2.0824499999999997 0.838544 -1.243906
1436.3203125 2.024211 0.777024 -1.247187
1437.078125 1.963201 0.774775 -1.188426
1437.83984375 2.026509 0.806509 -1.22
1438.58203125 2.039041 0.786498 -1.252543
1439.32421875 2.014742 0.740943 -1.273799
1440.09375 2.032931 0.771664 -1.261267
1440.84375 2.072753 0.818828 -1.253925
1441.61328125 2.058934 0.848136 -1.210798
1442.3828125 2.027044 0.868231 -1.158813
1443.1484375 1.98878 0.828935 -1.159845
1443.921875 1.986796 0.814062 -1.172734
1444.71484375 2.068018 0.848116 -1.219902
1445.50390625 2.080695 0.846065 -1.23463
1446.28125 2.096964 0.89725 -1.199714
1447.0390625 2.100122 0.955537 -1.144585
1447.77734375 2.089236 0.929852 -1.159384
1448.53125 2.024452 0.877536 -1.146916
1449.265625 2.0207640000000002 0.818323 -1.202441
1449.99609375 2.005049 0.815507 -1.189542
1450.7109375 2.09056 0.98056 -1.11
1451.4296875 1.953711 0.935 -1.018711
1452.12109375 1.9313150000000001 0.971601 -0.959714
1452.82421875 1.965264 0.900616 -1.064648
1453.5390625 1.991615 0.859905 -1.13171
1454.2421875 2.052442 0.93397 -1.118472
1454.9140625 1.98181 0.894701 -1.087109
1455.59375 1.9773649999999998 0.917928 -1.059437
1456.29296875 1.9799379999999998 0.819938 -1.16
1456.9765625 2.0195440000000002 0.84513 -1.174414
1457.65234375 1.955572 0.809212 -1.14636
1458.3359375 1.939558 0.864887 -1.074671
1459.03125 1.976894 0.822187 -1.154707
1459.71875 2.0484739999999997 0.826001 -1.222473
1460.40625 2.10108 0.884205 -1.216875
1461.1015625 1.982313 0.852368 -1.129945
1461.81640625 2.0063750000000002 0.91 -1.096375
1462.5078125 2.021969 0.863796 -1.158173
1463.21484375 2.038129 0.858864 -1.179265
1463.90234375 1.991409 0.847826 -1.143583
1464.625 2.092378 0.95 -1.142378
1465.32421875 2.001462 0.924415 -1.077047
1466.046875 1.975129 0.881052 -1.094077
1466.7421875 2.012334 0.829275 -1.183059
1467.48046875 2.010446 0.86 -1.150446
1468.203125 2.0626059999999997 0.959789 -1.102817
1468.93359375 2.014915 0.99995 -1.014965
1469.66796875 1.995829 0.935829 -1.06
1470.41796875 1.992927 0.887927 -1.105
1471.15234375 2.055057 0.9 -1.155057
1471.87890625 2.092938 0.931969 -1.160969
1472.62890625 2.104184 0.976422 -1.127762
1473.37890625 2.026037 0.876591 -1.149446
1474.1171875 2.0432490000000003 0.868328 -1.174921
1474.83984375 2.061113 0.884461 -1.176652
1475.60546875 2.129862 0.954976 -1.174886
1476.32421875 2.078956 0.928956 -1.15
1477.0546875 2.055984 0.89807 -1.157914
1477.80078125 2.106907 0.903118 -1.203789
1478.55078125 2.095535 0.860798 -1.234737
1479.28515625 2.120101 0.925101 -1.195
1480.02734375 2.120529 0.965 -1.155529
1480.77734375 2.009053 0.906162 -1.102891
1481.515625 2.054682 0.875234 -1.179448
1482.265625 2.105047 0.81136 -1.293687
1483.0 2.130991 0.85 -1.280991
1483.76171875 2.156787 0.904719 -1.252068
1484.4921875 2.043611 0.903611 -1.14
1485.22265625 2.034007 0.884465 -1.149542
1485.96484375 2.077254 0.852452 -1.224802
1486.72265625 2.106754 0.888738 -1.218016
1487.46875 2.117827 0.942132 -1.175695
1488.203125 2.053197 0.864447 -1.18875
1488.9609375 2.072397 0.824805 -1.247592
1489.7265625 2.1188279999999997 0.879008 -1.23982
1490.5078125 2.116414 0.940037 -1.176377
1491.26171875 1.9998690000000001 0.842443 -1.157426
1492.0390625 2.082767 0.829697 -1.25307
1492.8046875 2.13037 0.862391 -1.267979
1493.5625 2.012147 0.832167 -1.17998
1494.3359375 2.055941 0.844937 -1.211004
1495.08203125 2.101556 0.846697 -1.254859
1495.82421875 2.125758 0.855765 -1.269993
1496.5703125 2.044834 0.830344 -1.21449
1497.3203125 1.997927 0.85307 -1.144857
1498.0546875 2.018199 0.823199 -1.195
1498.80859375 2.075806 0.834497 -1.241309
1499.55078125 2.1010400000000002 0.924034 -1.177006
1500.265625 2.015215 0.905 -1.110215
1501.00390625 2.0455069999999997 0.895624 -1.149883
1501.7421875 2.06511 0.847161 -1.217949
1502.484375 2.17759 0.962934 -1.214656
1503.19140625 1.996483 0.9 -1.096483
1503.91015625 2.04556 0.862515 -1.183045
1504.62109375 2.0913019999999998 0.896894 -1.194408
1505.35546875 2.099728 0.914939 -1.184789
1506.078125 2.1547159999999996 1.01707 -1.137646
1506.79296875 2.072734 1.045654 -1.02708
1507.49609375 2.014756 1.001723 -1.013033
1508.21875 2.047047 0.937047 -1.11
1508.9453125 2.117795 0.924535 -1.19326
1509.6640625 2.070556 0.950556 -1.12
1510.40234375 2.014612 0.919672 -1.09494
1511.1328125 2.042719 0.943675 -1.099044
1511.86328125 2.080647 0.913362 -1.167285
1512.578125 2.114726 0.914775 -1.199951
1513.3359375 2.055762 0.965936 -1.089826
1514.05859375 2.069249 0.959606 -1.109643
1514.77734375 2.067917 0.904697 -1.16322
1515.484375 2.130659 0.866183 -1.264476
1516.2109375 2.079685 0.879887 -1.199798
1516.91796875 2.090782 0.928479 -1.162303
1517.62890625 2.06564 0.954649 -1.110991
1518.34375 1.960861 0.893359 -1.067502
1519.078125 1.983828 0.819489 -1.164339
1519.78125 2.040194 0.840833 -1.199361
1520.50390625 2.1404490000000003 0.944513 -1.195936
1521.22265625 2.073779 0.93 -1.143779
1521.9375 1.990226 0.913667 -1.076559
1522.6640625 2.033778 0.869744 -1.164034
1523.37109375 2.035924 0.835902 -1.200022
1524.08203125 2.093588 0.85861 -1.234978
1524.78125 2.0078620000000003 0.845 -1.162862
1525.4765625 1.9817710000000002 0.873177 -1.108594
1526.1875 2.033549 0.833571 -1.199978
1526.89453125 2.0419650000000003 0.769987 -1.271978
1527.6015625 2.0592699999999997 0.754138 -1.305132
1528.3125 2.053245 0.825 -1.228245
1529.01953125 1.978662 0.784951 -1.193711
1529.75 1.995458 0.7 -1.295458
1530.49609375 2.048887 0.68 -1.368887
1531.234375 2.0786629999999997 0.736016 -1.342647
1531.95703125 2.009887 0.8 -1.209887
1532.6953125 1.977487 0.812986 -1.164501
1533.44140625 2.035633 0.825808 -1.209825
1534.1953125 2.004863 0.775 -1.229863
1535.0 2.107844 0.875 -1.232844
1535.77734375 2.0667809999999998 0.903897 -1.162884
1536.54296875 2.0454049999999997 0.809628 -1.235777
1537.33203125 2.063485 0.773668 -1.289817
1538.13671875 2.0804549999999997 0.851642 -1.228813
1538.90234375 1.946847 0.741339 -1.205508
1539.69140625 2.010735 0.779346 -1.231389
1540.46875 2.0335929999999998 0.838672 -1.194921
1541.25390625 2.016502 0.851556 -1.164946
1542.03515625 2.013596 0.80675 -1.206846
1542.828125 2.01513 0.754224 -1.260906
1543.625 2.054766 0.81 -1.244766
1544.38671875 2.007483 0.803711 -1.203772
1545.15234375 1.984057 0.729338 -1.254719
1545.91796875 2.014973 0.729973 -1.285
1546.7109375 2.155431 0.859824 -1.295607
1547.484375 2.052102 0.859915 -1.192187
1548.234375 1.995363 0.797231 -1.198132
1549.02734375 1.983824 0.764653 -1.219171
1549.81640625 2.073315 0.831347 -1.241968
1550.6171875 2.093624 0.927492 -1.166132
1551.39453125 1.945259 0.82 -1.125259
1552.16796875 1.9534989999999999 0.793457 -1.160042
1552.95703125 1.9717280000000001 0.744444 -1.227284
1553.76953125 2.055247 0.75996 -1.295287
1554.6484375 2.088232 0.84328 -1.244952
1555.5 2.006085 0.745 -1.261085
1556.33203125 2.02517 0.757886 -1.267284
1557.1953125 2.134299 0.916888 -1.217411
1557.99609375 2.010954 0.910954 -1.1
1558.8046875 1.989478 0.828729 -1.160749
1559.625 2.029905 0.805 -1.224905
1560.42578125 2.080908 0.864253 -1.216655
1561.20703125 2.053625 0.898707 -1.154918
1561.984375 2.014217 0.830703 -1.183514
1562.7890625 2.09767 0.844826 -1.252844
1563.59375 2.082484 0.894635 -1.187849
1564.421875 2.075031 0.961961 -1.11307
1565.234375 1.989805 0.932946 -1.056859
1566.0546875 2.0528690000000003 0.928132 -1.124737
1566.87890625 2.055948 0.966065 -1.089883
1567.6953125 2.103761 1.033032 -1.070729
1568.49609375 2.022095 0.993078 -1.029017
1569.2734375 2.0461080000000003 0.94641 -1.099698
1570.0390625 2.1205760000000002 0.979817 -1.140759
1570.828125 2.0893639999999998 0.96 -1.129364
1571.5859375 2.016622 0.869973 -1.146649
1572.359375 2.056151 0.870703 -1.185448
1573.12109375 2.0966810000000002 0.915997 -1.180684
1573.875 2.0537349999999996 0.97 -1.083735
1574.59765625 1.972893 0.884861 -1.088032
1575.3359375 2.032314 0.859978 -1.172336
1576.08984375 2.047771 0.867982 -1.179789
1576.81640625 2.114627 0.974627 -1.14
1577.5390625 2.054948 0.944948 -1.11
1578.2578125 2.010887 0.861575 -1.149312
1579.0078125 2.094802 0.844802 -1.25
1579.73828125 2.092358 0.829372 -1.262986
1580.4765625 2.112078 0.915918 -1.19616
1581.1796875 1.9995829999999999 0.861719 -1.137864
1581.8984375 2.007752 0.860356 -1.147396
1582.625 2.0047059999999997 0.815 -1.189706
1583.359375 2.059215 0.844004 -1.215211
1584.1015625 2.008154 0.855933 -1.152221
1584.82421875 1.98014 0.851604 -1.128536
1585.5625 2.0086060000000003 0.803625 -1.204981
1586.3046875 2.03736 0.81446 -1.2229
1587.05859375 2.0565480000000003 0.851567 -1.204981
1587.7890625 1.97731 0.794975 -1.182335
1588.51953125 2.031085 0.809925 -1.22116
1589.22265625 2.066728 0.794276 -1.272452
1589.9609375 2.110449 0.865544 -1.244905
1590.67578125 2.073903 0.842591 -1.231312
1591.375 2.029137 0.845 -1.184137
1592.10546875 2.076594 0.864927 -1.211667
1592.8359375 2.074369 0.86488 -1.209489
1593.55078125 2.14477 0.961652 -1.183118
1594.25390625 2.072272 0.932136 -1.140136
1594.97265625 1.9985309999999998 0.893531 -1.105
1595.6875 2.036184 0.888611 -1.147573
1596.38671875 2.053284 0.82492 -1.228364
1597.08203125 2.079774 0.87 -1.209774
1597.7890625 2.1099110000000003 0.904911 -1.205
1598.47265625 1.967126 0.797436 -1.16969
1599.15234375 1.9807229999999998 0.811317 -1.169406
1599.84375 2.051078 0.787031 -1.264047
1600.53125 2.0075 0.773594 -1.233906
1601.2109375 2.147255 0.844877 -1.302378
1601.88671875 2.046723 0.804723 -1.242
1602.5546875 1.9926620000000002 0.819535 -1.173127
1603.24609375 2.024083 0.737879 -1.286204
1603.92578125 2.05664 0.769019 -1.287621
1604.6171875 2.086818 0.778431 -1.308387
1605.27734375 1.974894 0.724837 -1.250057
1605.953125 1.942949 0.791961 -1.150988
1606.63671875 2.0140190000000002 0.788284 -1.225735
1607.3203125 1.978104 0.708104 -1.27
1608.0 2.048442 0.82 -1.228442
1608.6953125 2.082102 0.879526 -1.202576
1609.390625 2.009799 0.842363 -1.167436
1610.08984375 2.007768 0.785 -1.222768
1610.80078125 2.033596 0.704019 -1.329577
1611.54296875 1.985414 0.670414 -1.315
1612.26171875 1.9994100000000001 0.678691 -1.320719
1612.97265625 1.9748930000000002 0.68 -1.294893
1613.69140625 2.019826 0.694826 -1.325
1614.4296875 2.0934090000000003 0.773971 -1.319438
1615.12890625 2.054963 0.789302 -1.265661
1615.8359375 1.9961190000000002 0.785 -1.211119
1616.5625 2.005385 0.760385 -1.245
1617.28125 1.99207 0.73707 -1.255
1617.98828125 2.053757 0.781682 -1.272075
1618.703125 2.093145 0.854203 -1.238942
1619.41796875 1.9776829999999999 0.807683 -1.17
1620.1171875 2.009431 0.779458 -1.229973
1620.828125 2.024299 0.769766 -1.254533
1621.5234375 2.0915920000000003 0.861221 -1.230371
1622.23046875 1.9849999999999999 0.82 -1.165
1622.90234375 1.9649999999999999 0.815 -1.15
1623.59765625 2.003994 0.738994 -1.265
1624.28125 2.006646 0.672079 -1.334567
1624.984375 2.0677 0.672934 -1.394766
1625.671875 2.105 0.72 -1.385
1626.34765625 1.987501 0.703206 -1.284295
1627.0234375 1.97835 0.744121 -1.234229
1627.734375 2.04002 0.76502 -1.275
1628.41796875 2.065896 0.805896 -1.26
1629.109375 2.0318140000000002 0.813203 -1.218611
1629.76171875 1.970078 0.791281 -1.178797
1630.47265625 2.0398300000000003 0.872299 -1.167531
1631.15234375 1.973102 0.809156 -1.163946
1631.84765625 2.064238 0.894681 -1.169557
1632.54296875 2.04 0.915 -1.125
1633.24609375 1.9678550000000001 0.896789 -1.071066
1633.93359375 1.9731130000000001 0.84155 -1.131563
1634.625 2.0227899999999996 0.845 -1.17779
1635.31640625 2.022677 0.87495 -1.147727
1636.03125 1.959219 0.809219 -1.15
1636.7109375 2.01884 0.854637 -1.164203
1637.41015625 2.0270230000000002 0.825381 -1.201642
1638.09765625 1.988117 0.819338 -1.168779
1638.80078125 2.066801 0.91779 -1.149011
1639.48046875 2.04496 0.90996 -1.135
1640.16015625 1.919813 0.874813 -1.045
1640.85546875 1.9898770000000001 0.874932 -1.114945
1641.5625 2.013655 0.828661 -1.184994
1642.2578125 2.07168 0.849241 -1.222439
1642.95703125 2.0697330000000003 0.854916 -1.214817
1643.65234375 2.020994 0.838982 -1.182012
1644.37890625 2.050367 0.846743 -1.203624
1645.09375 2.020578 0.778571 -1.242007
1645.8046875 2.1081529999999997 0.799445 -1.308708
1646.49609375 2.000118 0.725997 -1.274121
1647.19921875 1.946225 0.751245 -1.19498
1647.89453125 1.9949080000000001 0.759993 -1.234915
1648.58984375 2.027355 0.817941 -1.209414
1649.296875 2.053729 0.819663 -1.234066
1649.99609375 2.0308010000000003 0.795828 -1.234973
1650.6796875 2.017166 0.828755 -1.188411
1651.359375 2.026254 0.818323 -1.207931
1652.0625 2.023619 0.753625 -1.269994
1652.76171875 2.083263 0.774058 -1.309205
1653.453125 2.064419 0.789419 -1.275
1654.125 2.01 0.735 -1.275
1654.8125 2.011375 0.81 -1.201375
1655.50390625 2.022363 0.802612 -1.219751
1656.1796875 2.060682 0.804429 -1.256253
1656.86328125 2.088569 0.815182 -1.273387
1657.56640625 2.0806880000000003 0.789406 -1.291282
1658.2578125 2.001054 0.709796 -1.291258
1658.93359375 1.9686720000000002 0.784463 -1.184209
1659.625 1.996816 0.805 -1.191816
1660.3203125 2.030669 0.77 -1.260669
1661.0234375 2.10712 0.802195 -1.304925
1661.71875 2.044404 0.7313 -1.313104
1662.40625 1.9916939999999999 0.747786 -1.243908
1663.10546875 1.976117 0.759971 -1.216146
1663.8046875 2.0043860000000002 0.726063 -1.278323
1664.51953125 1.9888759999999999 0.714923 -1.273953
1665.2421875 2.009068 0.782366 -1.226702
1665.9765625 1.9724469999999998 0.765167 -1.20728
1666.70703125 1.95068 0.779774 -1.170906
1667.421875 2.026966 0.783712 -1.243254
1668.14453125 2.018171 0.764951 -1.25322
1668.8984375 2.064183 0.818908 -1.245275
1669.61328125 2.024639 0.832248 -1.192391
1670.33203125 2.041646 0.886086 -1.15556
1671.03125 2.0231950000000003 0.824219 -1.198976
1671.74609375 2.086733 0.846834 -1.239899
1672.44140625 2.080748 0.884466 -1.196282
1673.13671875 2.049744 0.835 -1.214744
1673.84375 2.040806 0.857012 -1.183794
1674.5546875 2.0888150000000003 0.858865 -1.22995
1675.2421875 2.087594 0.86897 -1.218624
1675.94921875 2.059041 0.837209 -1.221832
1676.66796875 2.095105 0.870105 -1.225
1677.390625 2.010432 0.82415 -1.186282
1678.11328125 2.008306 0.803976 -1.20433
1678.828125 2.047326 0.849798 -1.197528
1679.55078125 1.979905 0.831379 -1.148526
1680.26953125 2.062203 0.864985 -1.197218
1680.98046875 1.984737 0.809737 -1.175
1681.69140625 1.9386189999999999 0.834749 -1.10387
1682.4140625 2.034612 0.869612 -1.165
1683.12109375 2.025543 0.870403 -1.15514
1683.84375 2.105338 0.920781 -1.184557
1684.5546875 2.05932 0.936802 -1.122518
1685.296875 2.016156 0.895 -1.121156
1686.0234375 2.0638129999999997 0.931835 -1.131978
1686.7578125 2.0457710000000002 0.906596 -1.139175
1687.49609375 2.076086 0.926544 -1.149542
1688.26953125 2.053886 0.984951 -1.068935
1689.01171875 2.008375 0.908721 -1.099654
1689.765625 1.983723 0.885443 -1.09828
1690.55078125 2.068208 0.914948 -1.15326
1691.3046875 2.038944 0.952144 -1.0868
1692.0546875 2.103917 1.033032 -1.070885
1692.8046875 1.942502 0.917502 -1.025
1693.5625 1.989987 0.905 -1.084987
1694.29296875 2.029535 0.908501 -1.121034
1695.02734375 2.025385 0.925 -1.100385
1695.7578125 2.0950930000000003 0.998186 -1.096907
1696.4765625 1.998936 0.975311 -1.023625
1697.203125 1.9391629999999997 0.914268 -1.024895
1697.98046875 2.0273830000000004 0.935278 -1.092105
1698.8125 2.088566 0.988571 -1.099995
1699.6484375 1.9961609999999999 0.901797 -1.094364
1700.47265625 2.006373 0.861162 -1.145211
1701.3203125 2.068529 0.90116 -1.167369
1702.1484375 2.070722 0.97275 -1.097972
1702.95703125 2.074839 0.970105 -1.104734
1703.734375 1.985372 0.885675 -1.099697
1704.54296875 2.022944 0.852944 -1.17
1705.359375 2.075554 0.920605 -1.154949
1706.1328125 1.9673859999999999 0.867573 -1.099813
1706.9296875 2.0381869999999997 0.864736 -1.173451
1707.71484375 2.017874 0.797707 -1.220167
1708.5 2.089946 0.9 -1.189946
1709.29296875 2.0013259999999997 0.848368 -1.152958
1710.0703125 2.06245 0.87245 -1.19
1710.859375 2.08502 0.87002 -1.215
1711.609375 2.068365 0.913521 -1.154844
1712.375 1.9249140000000002 0.805 -1.119914
1713.11328125 1.9556399999999998 0.813711 -1.141929
1713.86328125 2.06408 0.834397 -1.229683
1714.625 2.031196 0.825 -1.206196
1715.3828125 2.0491479999999997 0.867848 -1.1813
1716.109375 1.99775 0.832803 -1.164947
1716.83203125 2.03376 0.863785 -1.169975
1717.58984375 1.999728 0.830284 -1.169444
1718.31640625 2.024764 0.844764 -1.18
1719.05859375 2.067052 0.834726 -1.232326
1719.75390625 1.954845 0.77 -1.184845
1720.48828125 2.004965 0.820044 -1.184921
1721.2109375 2.030893 0.785967 -1.244926
1721.9296875 2.017251 0.786608 -1.230643
1722.66796875 2.064438 0.854438 -1.21
1723.375 1.949976 0.82 -1.129976
1724.08984375 1.91607 0.774953 -1.141117
1724.79296875 1.9704929999999998 0.745 -1.225493
1725.5234375 1.9799639999999998 0.755 -1.224964
1726.25390625 2.040453 0.800277 -1.240176
1726.98046875 2.018697 0.779947 -1.23875
1727.6640625 1.959905 0.744905 -1.215
1728.39453125 1.9712939999999999 0.739961 -1.231333
1729.09765625 1.9479309999999999 0.7 -1.247931
1729.80859375 2.077008 0.794883 -1.282125
1730.515625 2.018274 0.809187 -1.209087
1731.2265625 1.891644 0.724847 -1.166797
1731.91796875 1.940836 0.801825 -1.139011
1732.61328125 1.996372 0.743946 -1.252426
1733.3203125 2.108817 0.781888 -1.326929
1734.04296875 2.055018 0.735896 -1.319122
1734.73046875 1.952985 0.755485 -1.1975
1735.4296875 1.9740449999999998 0.75228 -1.221765
1736.1328125 1.993636 0.769485 -1.224151
1736.84765625 2.047081 0.817345 -1.229736
1737.5625 2.038565 0.893571 -1.144994
1738.3046875 1.98806 0.898688 -1.089372
1739.05078125 1.943429 0.814523 -1.128906
1739.7890625 2.0355369999999997 0.859883 -1.175654
1740.53125 1.967583 0.791377 -1.176206
1741.28515625 2.056714 0.867635 -1.189079
1742.0625 2.0302189999999998 0.935227 -1.094992
1742.8046875 1.967269 0.866626 -1.100643
1743.5546875 2.080762 0.925087 -1.155675
1744.296875 2.009792 0.86 -1.149792
1745.05078125 2.073304 0.891434 -1.18187
1745.796875 2.074429 0.951865 -1.122564
1746.5390625 2.039918 0.914918 -1.125
1747.30078125 1.9988579999999998 0.868858 -1.13
1748.05078125 2.066123 0.879548 -1.186575
1748.7890625 2.05 0.905 -1.145
1749.52734375 2.0783180000000003 0.973665 -1.104653
1750.28125 1.974687 0.88998 -1.084707
1751.00390625 1.9805510000000002 0.87786 -1.102691
1751.73046875 2.0450790000000003 0.864954 -1.180125
1752.44140625 2.016658 0.86 -1.156658
1753.17578125 2.066248 0.939491 -1.126757
1753.8828125 1.925295 0.848705 -1.07659
1754.58203125 1.926572 0.878782 -1.04779
1755.30078125 2.024026 0.900766 -1.12326
1756.015625 2.037827 0.8229 -1.214927
1756.70703125 2.054916 0.824916 -1.23
1757.4140625 2.004918 0.859918 -1.145
1758.1171875 1.887302 0.783572 -1.10373
1758.83203125 1.9375589999999998 0.863735 -1.073824
1759.5390625 2.016054 0.846054 -1.17
1760.23828125 2.082979 0.872979 -1.21
1760.953125 2.062082 0.929531 -1.132551
1761.6484375 1.994326 0.89322 -1.101106
1762.3515625 1.9625650000000001 0.933474 -1.029091
1763.0625 2.049904 0.955 -1.094904
1763.7734375 2.052371 0.987441 -1.06493
1764.4765625 2.099827 1.029936 -1.069891
1765.171875 2.012025 0.967025 -1.045
1765.83984375 2.003802 0.999415 -1.004387
1766.5546875 1.990427 0.97307 -1.017357
1767.24609375 2.019621 0.940953 -1.078668
1767.94140625 2.076829 0.939739 -1.13709
1768.60546875 2.089935 0.984935 -1.105
1769.30078125 1.986422 0.932731 -1.053691
1769.9921875 1.959959 0.969275 -0.990684
1770.6875 1.977613 0.94869 -1.028923
1771.390625 2.001809 0.942864 -1.058945
1772.1171875 2.091723 0.988701 -1.103022
1772.80859375 2.027231 0.925 -1.102231
1773.5 1.94494 0.87 -1.07494
1774.19921875 1.9622739999999999 0.879541 -1.082733
1774.9296875 1.978682 0.916063 -1.062619
1775.625 1.9849999999999999 0.9 -1.085
1776.33984375 2.079909 0.965 -1.114909
1777.01953125 2.042129 0.979736 -1.062393
1777.71484375 1.995904 0.942712 -1.053192
1778.40625 2.0011 0.927372 -1.073728
1779.09765625 1.9635379999999998 0.924306 -1.039232
1779.7890625 2.045127 0.98 -1.065127
1780.4765625 1.928855 0.918908 -1.009947
1781.15234375 1.957551 0.959687 -0.997864
1781.83203125 1.974701 0.925 -1.049701
1782.515625 2.004187 0.919187 -1.085
1783.21484375 2.071036 0.960071 -1.110965
1783.90234375 2.015246 0.983877 -1.031369
1784.5859375 1.9596580000000001 0.90917 -1.050488
1785.26953125 1.9609580000000002 0.890683 -1.070275
1785.98046875 2.0126169999999997 0.890469 -1.122148
1786.68359375 2.010952 0.880509 -1.130443
1787.38671875 2.051426 0.937453 -1.113973
1788.09765625 1.996508 0.938994 -1.057514
1788.82421875 1.944816 0.900536 -1.04428
1789.54296875 1.9407489999999998 0.865749 -1.075
1790.25390625 1.993471 0.903906 -1.089565
1790.99609375 2.010064 0.905393 -1.104671
1791.71875 1.9363510000000002 0.829031 -1.10732
1792.42578125 1.9882719999999998 0.84 -1.148272
1793.12890625 1.983886 0.801187 -1.182699
1793.86328125 2.049472 0.775 -1.274472
1794.57421875 1.9767000000000001 0.737469 -1.239231
1795.28125 2.03034 0.80707 -1.22327
1795.9921875 1.968191 0.76834 -1.199851
1796.71484375 1.9512550000000002 0.757208 -1.194047
1797.421875 2.035553 0.764519 -1.271034
1798.13671875 2.053085 0.809406 -1.243679
1798.859375 2.0259989999999997 0.812811 -1.213188
1799.58203125 1.988775 0.800537 -1.188238
1800.28125 1.913938 0.730412 -1.183526
1801.0 2.0188040000000003 0.73 -1.288804
1801.6953125 1.9849999999999999 0.69 -1.295
1802.41796875 2.045176 0.775176 -1.27
1803.1328125 2.02196 0.779521 -1.242439
1803.84375 1.984414 0.775412 -1.209002
1804.5625 1.9999799999999999 0.705 -1.29498
