462200 
65 
180 
282 
391 
498 
616 
844 
943 
1067 
1281 
1493 
1704 
1922 
2024 
2144 
2367 
2590 
2811 
3021 
3229 
3442 
3663 
3891 
4114 
4331 
4543 
4759 
4974 
5191 
5415 
5637 
5856 
6067 
6277 
6488 
6715 
6942 
7162 
7381 
7592 
7805 
8019 
8238 
8461 
8691 
8908 
9116 
9327 
9537 
9762 
9990 
10214 
10430 
10647 
10859 
11069 
11286 
11510 
11736 
11958 
12167 
12375 
12593 
12815 
13040 
13262 
13481 
13694 
13908 
14118 
14332 
14561 
14787 
15005 
15217 
15428 
15641 
15865 
16089 
16311 
16532 
16748 
16958 
17168 
17385 
17608 
17836 
18057 
18269 
18479 
18699 
18917 
19137 
19361 
19580 
19794 
20006 
20218 
20431 
20662 
20887 
21105 
21320 
21530 
21745 
21965 
22187 
22408 
22634 
22797 
23028 
23237 
23453 
23677 
23906 
24128 
24342 
24553 
24769 
24985 
25204 
25429 
25651 
25869 
26079 
26287 
26503 
26733 
26959 
27179 
27396 
27605 
27818 
28031 
28251 
28477 
28706 
28921 
29129 
29339 
29553 
29779 
30006 
30229 
30444 
30660 
30870 
31081 
31301 
31525 
31750 
31970 
32181 
32390 
32610 
32833 
33054 
33275 
33492 
33705 
33917 
34130 
34348 
34579 
34802 
35016 
35229 
35439 
35655 
35878 
36102 
36323 
36546 
36757 
36965 
37177 
37395 
37623 
37852 
38070 
38279 
38493 
38708 
38927 
39149 
39373 
39593 
39808 
40016 
40224 
40447 
40676 
40901 
41118 
41332 
41542 
41757 
41974 
42195 
42422 
42645 
42857 
43064 
43276 
43494 
43722 
43948 
44168 
44380 
44595 
44808 
45022 
45245 
45468 
45691 
45906 
46116 
46325 
46549 
46775 
46997 
47216 
47429 
47640 
47855 
48072 
48291 
48520 
48742 
48954 
49163 
49376 
49595 
49824 
50047 
50265 
50481 
50694 
50906 
51120 
51344 
51568 
51793 
52006 
52215 
52429 
52651 
52875 
53096 
53319 
53532 
53745 
53955 
54168 
54391 
54624 
54846 
55059 
55269 
55479 
55697 
55920 
56142 
56364 
56586 
56795 
57002 
57216 
57438 
57667 
57891 
58108 
58318 
58534 
58748 
58967 
59191 
59412 
59631 
59844 
60054 
60265 
60494 
60721 
60940 
61156 
61366 
61578 
61794 
62015 
62236 
62465 
62681 
62889 
63099 
63312 
63537 
63767 
63989 
64204 
64418 
64629 
64841 
65059 
65284 
65510 
65731 
65942 
66149 
66366 
66534 
66782 
67002 
67222 
67434 
67647 
67857 
68071 
68298 
68528 
68748 
68959 
69170 
69382 
69602 
69826 
70049 
70269 
70487 
70696 
70905 
71121 
71344 
71573 
71795 
72010 
72219 
72436 
72653 
72875 
73097 
73318 
73533 
73747 
73958 
74171 
74400 
74626 
74848 
75060 
75270 
75483 
75703 
75924 
76145 
76370 
76586 
76796 
77005 
77223 
77448 
77676 
77898 
78111 
78321 
78537 
78753 
78973 
79199 
79420 
79637 
79848 
80057 
80273 
80504 
80731 
80949 
81165 
81373 
81587 
81803 
82024 
82248 
82477 
82692 
82900 
83110 
83325 
83551 
83777 
83999 
84214 
84429 
84640 
84851 
85072 
85296 
85521 
85741 
85952 
86160 
86380 
86603 
86824 
87047 
87263 
87475 
87689 
87902 
88120 
88350 
88574 
88790 
89000 
89210 
89426 
89651 
89874 
90094 
90315 
90527 
90736 
90946 
91167 
91395 
91623 
91840 
92049 
92262 
92477 
92697 
92919 
93144 
93363 
93578 
93787 
93995 
94218 
94448 
94673 
94889 
95102 
95312 
95529 
95745 
95966 
96193 
96417 
96628 
96836 
97048 
97267 
97496 
97720 
97937 
98150 
98365 
98577 
98792 
99016 
99238 
99460 
99674 
99885 
100096 
100321 
100547 
100768 
100987 
101198 
101411 
101627 
101843 
102063 
102293 
102514 
102727 
102935 
103147 
103368 
103595 
103818 
104035 
104251 
104463 
104674 
104888 
105113 
105339 
105564 
105777 
105986 
106200 
106421 
106645 
106866 
107089 
107301 
107514 
107726 
107939 
108163 
108395 
108618 
108830 
109041 
109251 
109470 
109693 
109916 
110137 
110358 
110569 
110776 
110991 
111213 
111442 
111666 
111881 
112090 
112306 
112521 
112739 
112964 
113186 
113403 
113616 
113826 
114039 
114269 
114494 
114714 
114931 
115139 
115352 
115570 
115790 
116012 
116241 
116457 
116665 
116874 
117088 
117314 
117541 
117763 
117977 
118193 
118403 
118613 
118833 
119058 
119283 
119504 
119715 
119923 
120142 
120364 
120588 
120810 
121027 
121240 
121454 
121666 
121881 
122111 
122337 
122555 
122764 
122975 
123190 
123414 
123637 
123857 
124079 
124293 
124502 
124712 
124932 
125159 
125386 
125603 
125813 
126025 
126242 
126461 
126683 
126908 
127125 
127339 
127550 
127761 
127980 
128212 
128437 
128653 
128866 
129074 
129290 
129469 
129713 
129937 
130162 
130374 
130581 
130792 
131009 
131236 
131463 
131685 
131896 
132110 
132322 
132537 
132758 
132984 
133207 
133425 
133633 
133842 
134063 
134291 
134515 
134735 
134949 
135159 
135374 
135588 
135808 
136035 
136261 
136476 
136684 
136897 
137114 
137341 
137564 
137783 
138000 
138215 
138426 
138638 
138861 
139085 
139310 
139525 
139735 
139947 
140168 
140391 
140612 
140835 
141049 
141261 
141472 
141686 
141907 
142139 
142362 
142577 
142787 
142996 
143214 
143436 
143660 
143882 
144104 
144314 
144521 
144734 
144955 
145185 
145408 
145625 
145835 
146051 
146264 
146482 
146707 
146928 
147148 
147360 
147569 
147781 
148010 
148237 
148456 
148675 
148883 
149097 
149312 
149531 
149753 
149983 
150201 
150410 
150620 
150832 
151056 
151285 
151507 
151660 
151899 
152111 
152322 
152537 
152762 
152988 
153210 
153421 
153630 
153845 
154067 
154291 
154513 
154734 
154946 
155158 
155369 
155584 
155810 
156040 
156261 
156472 
156683 
156893 
157115 
157339 
157498 
157741 
157961 
158170 
158378 
158592 
158814 
159042 
159268 
159485 
159692 
159906 
160122 
160344 
160566 
160789 
161006 
161220 
161429 
161640 
161866 
162095 
162319 
162533 
162745 
162956 
163174 
163394 
163616 
163840 
164061 
164273 
164481 
164695 
164918 
165147 
165370 
165585 
165797 
166012 
166227 
166444 
166669 
166891 
167111 
167321 
167530 
167744 
167972 
168198 
168418 
168637 
168846 
169059 
169271 
169491 
169715 
169945 
170163 
170373 
170583 
170795 
171019 
171246 
171468 
171685 
171902 
172112 
172321 
172539 
172763 
172991 
173210 
173422 
173632 
173851 
174070 
174291 
174515 
174732 
174946 
175158 
175370 
175586 
175817 
176042 
176260 
176473 
176682 
176897 
177118 
177341 
177563 
177788 
178000 
178208 
178418 
178635 
178863 
179093 
179312 
179522 
179737 
179950 
180165 
180387 
180612 
180834 
181050 
181259 
181467 
181688 
181915 
182140 
182360 
182574 
182784 
182999 
183215 
183435 
183662 
183887 
184101 
184310 
184522 
184738 
184966 
185190 
185411 
185625 
185840 
186051 
186262 
186485 
186709 
186934 
187149 
187360 
187570 
187792 
188016 
188236 
188459 
188673 
188886 
189099 
189314 
189534 
189763 
189987 
190202 
190412 
190622 
190841 
191068 
191291 
191510 
191729 
191942 
192152 
192363 
192586 
192813 
193041 
193255 
193611 
193829 
194049 
194271 
194495 
194713 
194926 
195136 
195347 
195567 
195799 
196024 
196240 
196453 
196662 
196877 
197096 
197319 
197543 
197768 
197980 
198187 
198399 
198616 
198845 
199071 
199291 
199503 
199718 
199930 
200144 
200366 
200591 
200813 
200988 
201192 
201400 
201622 
201847 
202069 
202290 
202505 
202716 
202931 
203146 
203364 
203593 
203817 
204032 
204241 
204452 
204670 
204868 
205089 
205308 
205527 
205740 
205952 
206161 
206383 
206609 
206836 
207052 
207261 
207474 
207693 
207915 
208137 
208360 
208577 
208790 
208999 
209210 
209430 
209662 
209887 
210101 
210313 
210523 
210681 
210897 
211121 
211341 
211566 
211779 
211988 
212199 
212416 
212643 
212873 
213093 
213304 
213517 
213732 
213948 
214168 
214394 
214616 
214831 
215040 
215249 
215468 
215697 
215923 
216142 
216357 
216513 
216719 
216936 
217157 
217380 
217608 
217824 
218033 
218244 
218458 
218684 
218913 
219136 
219349 
219564 
219775 
219987 
220206 
220432 
220658 
220879 
221088 
221296 
221516 
221740 
221964 
222185 
222402 
222614 
222828 
223039 
223255 
223486 
223711 
223928 
224139 
224350 
224565 
224790 
225013 
225233 
225454 
225608 
225813 
226023 
226239 
226463 
226691 
226913 
227126 
227337 
227555 
227772 
227991 
228215 
228435 
228650 
228861 
229072 
229287 
229517 
229743 
229961 
230176 
230385 
230600 
230816 
231038 
231261 
231489 
231703 
231910 
232067 
232275 
232501 
232731 
232953 
233167 
233382 
233594 
233806 
234024 
234249 
234474 
234696 
234905 
235113 
235331 
235556 
235741 
235960 
236179 
236390 
236602 
236814 
237030 
237256 
237485 
237704 
237914 
238125 
238279 
238492 
238720 
238945 
239165 
239383 
239592 
239802 
240016 
240239 
240466 
240693 
240908 
241115 
241330 
241549 
241771 
241992 
242216 
242431 
242644 
242853 
243065 
243290 
243518 
243741 
243956 
244169 
244379 
244597 
244819 
245041 
245264 
245485 
245696 
245904 
246119 
246339 
246569 
246793 
247010 
247220 
247436 
247652 
247869 
248093 
248315 
248535 
248746 
248927 
249122 
249349 
249576 
249797 
250015 
250228 
250439 
250655 
250872 
251094 
251323 
251542 
251752 
251962 
252174 
252396 
252626 
252850 
253066 
253282 
253446 
253653 
253867 
254091 
254316 
254541 
254753 
254961 
255175 
255396 
255622 
255842 
256065 
256278 
256490 
256700 
256913 
257138 
257368 
257590 
257737 
257945 
258155 
258308 
258553 
258778 
258999 
259222 
259434 
259641 
259853 
260071 
260298 
260528 
260746 
260956 
261171 
261386 
261563 
261762 
261988 
262209 
262426 
262634 
262842 
263061 
263290 
263516 
263735 
263951 
264161 
264375 
264589 
264809 
265034 
265262 
265477 
265684 
265895 
266109 
266336 
266562 
266786 
267000 
267216 
267426 
267637 
267858 
268082 
268308 
268526 
268687 
268889 
269105 
269330 
269555 
269776 
269995 
270208 
270420 
270631 
270847 
271075 
271303 
271520 
271730 
271943 
272156 
272379 
272604 
272772 
272986 
273205 
273414 
273623 
273839 
274062 
274291 
274515 
274728 
274936 
275154 
275373 
275594 
275817 
276038 
276254 
276467 
276677 
276890 
277120 
277291 
277509 
277723 
277936 
278148 
278365 
278585 
278806 
279032 
279251 
279462 
279670 
279884 
280106 
280335 
280558 
280773 
280988 
281202 
281415 
281634 
281859 
282082 
282303 
282513 
282721 
282936 
283162 
283389 
283555 
283770 
283982 
284194 
284407 
284623 
284846 
285077 
285296 
285505 
285715 
285927 
286148 
286375 
286599 
286819 
287037 
287247 
287456 
287672 
287894 
288074 
288295 
288509 
288715 
288931 
289149 
289372 
289594 
289816 
290034 
290247 
290456 
290667 
290815 
291042 
291266 
291481 
291694 
291904 
292120 
292339 
292562 
292786 
292953 
293161 
293367 
293578 
293794 
294019 
294249 
294471 
294682 
294897 
295110 
295327 
295547 
295772 
295946 
296147 
296357 
296566 
296779 
297007 
297233 
297453 
297670 
297881 
298055 
298251 
298469 
298689 
298919 
299138 
299349 
299558 
299770 
299991 
300182 
300387 
300606 
300823 
301037 
301249 
301462 
301686 
301909 
302135 
302349 
302557 
302725 
302926 
303151 
303373 
303596 
303812 
304026 
304238 
304449 
304668 
304900 
305124 
305338 
305549 
305760 
305975 
306200 
306424 
306645 
306800 
307036 
307246 
307456 
307673 
307900 
308129 
308346 
308556 
308772 
308925 
309167 
309389 
309613 
309835 
310051 
310260 
310468 
310687 
310914 
311140 
311358 
311573 
311785 
311999 
312215 
312435 
312660 
312887 
313101 
313308 
313520 
313735 
313961 
314186 
314407 
314625 
314839 
315051 
315264 
315487 
315711 
315937 
316151 
316358 
316570 
316790 
317016 
317238 
317461 
317677 
317890 
318099 
318311 
318534 
318765 
318988 
319200 
319411 
319621 
319838 
320061 
320285 
320508 
320732 
320942 
321148 
321362 
321581 
321809 
322034 
322251 
322461 
322678 
322892 
323111 
323336 
323501 
323744 
323960 
324169 
324378 
324601 
324828 
325051 
325267 
325480 
325694 
325910 
326128 
326350 
326577 
326798 
327009 
327217 
327431 
327649 
327877 
328101 
328318 
328534 
328748 
328962 
329178 
329404 
329626 
329849 
330060 
330268 
330481 
330705 
330931 
331153 
331374 
331587 
331801 
332013 
332228 
332452 
332683 
332904 
333113 
333323 
333535 
333754 
333980 
334203 
334425 
334645 
334855 
335062 
335279 
335500 
335728 
335950 
336163 
336373 
336591 
336809 
337031 
337255 
337477 
337694 
337904 
338113 
338330 
338559 
338784 
339002 
339215 
339425 
339639 
339857 
340080 
340304 
340532 
340746 
340952 
341162 
341377 
341603 
341828 
342049 
342264 
342481 
342693 
342906 
343130 
343352 
343578 
343795 
344003 
344212 
344433 
344657 
344878 
345101 
345316 
345530 
345742 
345956 
346177 
346409 
346631 
346843 
347053 
347262 
347479 
347702 
347927 
348149 
348371 
348583 
348790 
349004 
349224 
349451 
349677 
349894 
350102 
350316 
350531 
350752 
350976 
351199 
351420 
351637 
351845 
352055 
352278 
352506 
352729 
352943 
353155 
353367 
353583 
353802 
353974 
354178 
354405 
354617 
354823 
355035 
355251 
355478 
355704 
355924 
356136 
356353 
356566 
356780 
357005 
357229 
357454 
357669 
357844 
358035 
358254 
358480 
358704 
358924 
359140 
359354 
359569 
359782 
359978 
360202 
360429 
360646 
360853 
361064 
361277 
361502 
361726 
361946 
362098 
362315 
362526 
362735 
362953 
363176 
363372 
363576 
363790 
363952 
364161 
364377 
364599 
364756 
364975 
365194 
365410 
365556 
365762 
365958 
366158 
366382 
366603 
366816 
367026 
367238 
367456 
367678 
367901 
368129 
368347 
368556 
368765 
368978 
369202 
369430 
369652 
369866 
370080 
370292 
370505 
370726 
370952 
371178 
371399 
371609 
371814 
372031 
372255 
372479 
372699 
372915 
373129 
373345 
373556 
373775 
374006 
374231 
374448 
374656 
374866 
375081 
375304 
375527 
375747 
375969 
376183 
376395 
376605 
376827 
377053 
377280 
377496 
377705 
377917 
378133 
378352 
378576 
378801 
379018 
379235 
379446 
379657 
379877 
380108 
380332 
380546 
380757 
380965 
381181 
381399 
381625 
381849 
382076 
382288 
382495 
382708 
382926 
383153 
383378 
383597 
383807 
384023 
384236 
384451 
384618 
384825 
385049 
385269 
385478 
385685 
385903 
386094 
386323 
386542 
386760 
386971 
387184 
387397 
387617 
387846 
388075 
388293 
388501 
388711 
388924 
389148 
389371 
389593 
389811 
390027 
390239 
390450 
390672 
390898 
391124 
391341 
391550 
391760 
391978 
392199 
392421 
392644 
392861 
393077 
393289 
393499 
393721 
393952 
394115 
394312 
394524 
394732 
394946 
395164 
395387 
395610 
395838 
396053 
396260 
396471 
396687 
396914 
397116 
397317 
397529 
397743 
397955 
398167 
398389 
398570 
398801 
399023 
399234 
399441 
399657 
399880 
400105 
400325 
400544 
400755 
400970 
401181 
401397 
401628 
401856 
402074 
402284 
402494 
402707 
402929 
403152 
403316 
403523 
403742 
403953 
404161 
404378 
404547 
404760 
404988 
405204 
405412 
405624 
405785 
405986 
406208 
406432 
406650 
406865 
407033 
407231 
407445 
407675 
407901 
408119 
408332 
408540 
408753 
408972 
409196 
409417 
409644 
409858 
410068 
410279 
410496 
410721 
410950 
411170 
411382 
411594 
411808 
412023 
412244 
412470 
412695 
412914 
413124 
413332 
413551 
413778 
414002 
414221 
414438 
414648 
414863 
415076 
415295 
415524 
415752 
415969 
416176 
416387 
416603 
416829 
417051 
417270 
417489 
417702 
417913 
418126 
418349 
418576 
418802 
419018 
419227 
419439 
419657 
419878 
420100 
420323 
420540 
420755 
420965 
421176 
421400 
421630 
421853 
422067 
422280 
422489 
422706 
422924 
423146 
423372 
423593 
423803 
424012 
424227 
424448 
424678 
424900 
425115 
425329 
425541 
425754 
425970 
426196 
426421 
426643 
426854 
427063 
427277 
427503 
427729 
427948 
428167 
428379 
428592 
428802 
429017 
429245 
429474 
429694 
429904 
430115 
430328 
430550 
430773 
430995 
431215 
431431 
431642 
431851 
432068 
432292 
432521 
432742 
432954 
433165 
433383 
433601 
433822 
434045 
434264 
434479 
434691 
434902 
435118 
435350 
435576 
435792 
436005 
436215 
436429 
436648 
436871 
437093 
437319 
437532 
437739 
437952 
438169 
438396 
438625 
438847 
439057 
439271 
439483 
439699 
439920 
440086 
440290 
440510 
440720 
440928 
441143 
441371 
441598 
441818 
442036 
442247 
442459 
442671 
442889 
443052 
443269 
443489 
443697 
443909 
444120 
444340 
444567 
444732 
444935 
445154 
445365 
445575 
445788 
446011 
446238 
446401 
446603 
446815 
447026 
447244 
447464 
447687 
447910 
448127 
448342 
448552 
448762 
448981 
449213 
449438 
449654 
449837 
450028 
450242 
450461 
450683 
450905 
451133 
451345 
451552 
451764 
451979 
452207 
452387 
452591 
452804 
453019 
453231 
453442 
453663 
453886 
454112 
454332 
454542 
454749 
454967 
455192 
455416 
455637 
455854 
456067 
456281 
456492 
456709 
456939 
457164 
457379 
457589 
457801 
458016 
458241 
458465 
458685 
458907 
459119 
459328 
459680 
459902 
460130 
460352 
460518 
460711 
460928 
461144 
461365 
461589 
461810 
462029 
