4.125 2.159577 1.55 -0.609577
4.76953125 2.206674 1.965 -0.241674
5.203125 1.696431 1.584056 -0.112375
5.8359375 1.98514 1.544555 -0.440585
6.19921875 1.708349 0.574816 -1.133533
6.48828125 1.993569 0.564272 -1.429297
6.99609375 1.8088030000000002 1.099126 -0.709677
7.38671875 2.015826 1.34345 -0.672376
7.7578125 2.2544399999999998 1.294808 -0.959632
8.1484375 2.35909 1.33789 -1.0212
8.6796875 2.5192170000000003 1.359383 -1.159834
9.2578125 2.455114 1.762402 -0.692712
9.61328125 2.169831 1.614831 -0.555
10.31640625 2.187045 1.832103 -0.354942
11.0859375 2.12 1.82 -0.3
11.76953125 1.466759 1.174839 -0.29192
12.578125 1.5971279999999999 0.488427 -1.108701
13.1171875 1.280047 0.689151 -0.590896
13.5 1.769612 1.125 -0.644612
14.1171875 2.135061 0.956575 -1.178486
14.57421875 2.344406 0.917346 -1.42706
15.09375 2.1574999999999998 1.1025 -1.055
15.6953125 2.2166259999999998 1.696626 -0.52
16.09375 1.960358 1.71875 -0.241608
16.75 2.215 1.83 -0.385
17.21875 2.424759 1.943068 -0.481691
17.87109375 1.9725869999999999 1.295 -0.677587
18.640625 2.1153709999999997 1.359209 -0.756162
19.28515625 2.324986 1.604986 -0.72
20.21875 1.7645279999999999 1.118409 -0.646119
21.078125 1.9220540000000002 1.169823 -0.752231
21.53125 1.9701659999999999 1.124987 -0.845179
21.89453125 1.834978 1.014978 -0.82
22.6484375 2.363702 1.414423 -0.949279
23.08984375 2.208622 1.379323 -0.829299
23.7265625 2.281891 2.001948 -0.279943
24.65234375 2.49571 1.909258 -0.586452
25.31640625 2.53472 1.889739 -0.644981
25.8125 2.326083 1.976912 -0.349171
26.19921875 1.9607649999999999 1.810765 -0.15
26.8671875 2.309033 1.983431 -0.325602
27.640625 2.298293 1.815048 -0.483245
28.24609375 2.2951509999999997 1.683762 -0.611389
29.16015625 2.3537339999999998 1.543273 -0.810461
30.08203125 2.355792 1.707491 -0.648301
30.78125 2.4551119999999997 1.515139 -0.939973
31.50390625 2.371277 1.8438 -0.527477
32.3671875 2.3677010000000003 2.059553 -0.308148
32.9375 2.445211 2.134 -0.311211
33.3828125 2.203018 1.898018 -0.305
34.1015625 2.370139 1.928264 -0.441875
34.796875 2.399408 1.709408 -0.69
35.4296875 2.403091 1.657886 -0.745205
36.0859375 2.363654 1.774908 -0.588746
36.66015625 2.5845209999999996 1.980495 -0.604026
37.61328125 2.409866 1.838616 -0.57125
38.26953125 2.5888 1.784943 -0.803857
38.9296875 2.4312139999999998 1.546675 -0.884539
39.6953125 2.3382519999999998 1.983252 -0.355
40.52734375 2.473461 2.224687 -0.248774
41.06640625 2.478961 2.109898 -0.369063
41.4609375 2.029646 1.499701 -0.529945
42.34375 2.261141 1.541987 -0.719154
42.875 2.46 1.77 -0.69
43.4140625 2.473596 1.594911 -0.878685
44.24609375 2.4860610000000003 1.506159 -0.979902
44.71484375 1.3042699999999998 -0.046364 -1.350634
45.29296875 2.514051 1.571948 -0.942103
46.09375 2.346317 1.315926 -1.030391
46.59375 1.681568 -0.012677 -1.694245
47.06640625 2.4576640000000003 0.963241 -1.494423
47.3359375 2.8140549999999998 1.319632 -1.494423
47.984375 2.335483 1.570625 -0.764858
48.19921875 0.287382 -0.192188 -0.47957
48.62890625 2.668145 1.33936 -1.328785
49.03125 1.57761 0.714241 -0.863369
51.20703125 1.334361 1.312336 -0.022025
51.77734375 1.342023 1.162755 -0.179268
52.53125 1.745803 1.203393 -0.54241
53.1015625 1.928326 1.243326 -0.685
53.4921875 1.758464 0.900936 -0.857528
53.8671875 1.882631 0.934506 -0.948125
54.84375 2.246794 1.29206 -0.954734
55.2265625 2.616308 0.042852 -2.573456
55.8359375 1.43336 0.614975 -0.818385
56.375 1.37451 0.35 -1.02451
56.8125 1.5150000000000001 0.515 -1.0
57.171875 1.658541 0.85598 -0.802561
57.52734375 1.9463339999999998 1.356361 -0.589973
58.05078125 2.136578 1.943882 -0.192696
58.4296875 1.96438 1.780005 -0.184375
58.7734375 2.216303 1.963935 -0.252368
59.109375 2.1765179999999997 1.821518 -0.355
59.46484375 2.086258 1.611258 -0.475
60.29296875 2.314327 1.360999 -0.953328
60.69140625 2.278427 -0.150108 -2.428535
61.0703125 1.05308 0.033229 -1.019851
61.49609375 1.982509 1.367509 -0.615
61.86328125 1.10434 0.261318 -0.843022
62.18359375 1.8697840000000001 1.469813 -0.399971
62.53515625 2.154883 1.634554 -0.520329
62.9140625 2.004832 1.474832 -0.53
63.2421875 2.038659 1.398328 -0.640331
63.5625 1.9873910000000001 1.206944 -0.780447
64.62109375 1.583774 1.025393 -0.558381
64.9921875 3.622682 0.998151 -2.624531
65.671875 1.344775 0.704775 -0.64
65.984375 1.594998 -0.263095 -1.858093
66.875 2.154064 1.33 -0.824064
67.29296875 1.834942 1.06 -0.774942
67.67578125 1.698426 0.94116 -0.757266
68.02734375 1.362341 0.772669 -0.589672
68.6796875 1.847845 1.502931 -0.344914
69.12109375 1.93919 1.564066 -0.375124
69.44921875 1.888655 1.346062 -0.542593
70.28125 2.0837630000000003 1.319658 -0.764105
70.6171875 1.1227900000000002 -0.110599 -1.233389
71.3203125 1.908131 1.074502 -0.833629
72.2265625 2.0379519999999998 1.405808 -0.632144
73.05859375 2.2835330000000003 1.689311 -0.594222
73.7890625 0.519646 0.089953 -0.429693
74.50390625 1.845286 0.915589 -0.929697
74.921875 1.489354 0.867518 -0.621836
75.60546875 1.338271 1.32 -0.018271
76.44140625 1.910855 1.519872 -0.390983
77.30078125 2.038491 1.314447 -0.724044
77.74609375 0.895251 -0.033844 -0.929095
78.38671875 1.733088 1.623744 -0.109344
79.03515625 1.914563 1.7002 -0.214363
79.54296875 1.906439 1.58671 -0.319729
80.171875 1.998828 1.323828 -0.675
80.625 2.174213 1.305 -0.869213
81.50390625 2.266743 1.166743 -1.1
82.0 2.1449439999999997 1.325 -0.819944
82.73828125 2.217015 1.278515 -0.9385
83.5078125 2.19 1.51 -0.68
84.11328125 1.5823129999999999 1.332469 -0.249844
84.9765625 1.450936 1.305936 -0.145
85.35546875 1.3899149999999998 0.364915 -1.025
86.13671875 1.832798 1.408583 -0.424215
86.8046875 2.015493 1.398971 -0.616522
87.71875 1.428322 0.724682 -0.70364
88.47265625 1.976604 1.214104 -0.7625
88.91015625 2.054507 1.274507 -0.78
89.56640625 2.17139 1.445 -0.72639
90.32421875 2.36551 1.765559 -0.599951
90.90625 1.982946 1.392946 -0.59
91.625 1.344261 0.74 -0.604261
91.9765625 1.371469 -0.132383 -1.503852
92.4609375 0.7571939999999999 -0.67204 -1.429234
92.7890625 1.388717 0.694887 -0.69383
93.7890625 2.258765 1.529688 -0.729077
94.15625 3.132827 0.548472 -2.584355
94.38671875 4.414069 1.829714 -2.584355
95.2421875 1.605467 0.900111 -0.705356
96.05859375 1.5224630000000001 0.717744 -0.804719
96.453125 1.9260259999999998 1.13 -0.796026
97.18359375 1.238514 0.894242 -0.344272
97.5546875 1.4602650000000001 0.329992 -1.130273
97.875 1.518132 0.515 -1.003132
98.140625 2.0581319999999996 1.055 -1.003132
98.703125 1.87907 1.289701 -0.589369
99.09375 1.3871419999999999 0.273462 -1.11368
99.42578125 2.13107 1.381303 -0.749767
99.8046875 2.09861 1.359819 -0.738791
100.21875 1.748636 0.9563 -0.792336
100.8203125 1.927152 1.246961 -0.680191
101.44921875 0.20619300000000002 -0.2587 -0.464893
102.5546875 2.228933 1.110798 -1.118135
102.94921875 1.094423 0.263699 -0.830724
103.6015625 1.4620929999999999 1.072093 -0.39
104.28125 0.944107 0.689107 -0.255
104.91015625 0.984946 0.815 -0.169946
105.3515625 2.517263 0.248951 -2.268312
105.796875 2.601455 0.203541 -2.397914
106.06640625 3.189602 0.961171 -2.228431
106.6484375 1.3161019999999999 0.751414 -0.564688
107.31640625 1.225648 0.349622 -0.876026
107.96484375 1.162758 0.267863 -0.894895
108.29296875 2.443535 -0.046443 -2.489978
108.578125 2.541297 0.48892 -2.052377
109.0859375 1.199812 0.559949 -0.639863
109.63671875 1.114218 0.449308 -0.66491
110.52734375 1.446134 0.41293 -1.033204
110.90234375 1.030325 0.511282 -0.519043
111.22265625 1.1888429999999999 0.504863 -0.68398
111.828125 0.976066 0.491066 -0.485
112.22265625 1.621978 0.534276 -1.087702
113.06640625 1.135545 0.739808 -0.395737
113.421875 3.202807 0.623262 -2.579545
113.68359375 4.4945450000000005 1.915 -2.579545
114.5625 1.020764 0.373889 -0.646875
114.94140625 2.463342 0.103425 -2.359917
119.625 2.044013 0.23 -1.814013
120.55859375 1.159937 0.629507 -0.53043
120.953125 2.349019 0.252386 -2.096633
121.37890625 1.26485 0.176743 -1.088107
121.77734375 1.038107 0.323107 -0.715
122.18359375 1.005627 0.319949 -0.685678
122.83984375 0.990706 0.472588 -0.518118
123.4921875 0.973421 0.502261 -0.47116
123.953125 1.070829 0.616052 -0.454777
124.3203125 0.86212 0.358577 -0.503543
124.67578125 0.945275 0.335616 -0.609659
125.08984375 0.923426 0.475 -0.448426
125.453125 1.369853 0.294272 -1.075581
125.796875 1.078514 0.368324 -0.71019
126.5703125 1.171976 0.47988 -0.692096
126.96484375 3.037477 0.377477 -2.66
127.21875 4.33957 1.67957 -2.66
127.765625 1.0630950000000001 0.340237 -0.722858
128.19140625 2.593319 0.014303 -2.579016
130.25 2.630525 0.155 -2.475525
130.7265625 1.060689 0.570745 -0.489944
131.20703125 1.0881669999999999 0.603707 -0.48446
131.55078125 1.805273 0.315434 -1.489839
132.203125 1.0611760000000001 0.4529 -0.608276
133.40625 1.1191529999999998 0.58207 -0.537083
133.95703125 2.54326 0.27326 -2.27
134.44921875 1.083205 0.608215 -0.47499
135.3828125 1.176654 0.489011 -0.687643
136.27734375 1.199707 0.554707 -0.645
136.71875 2.558672 0.138672 -2.42
137.27734375 1.119067 0.471329 -0.647738
137.69140625 1.198573 0.189859 -1.008714
138.05078125 1.2122060000000001 0.337341 -0.874865
138.71484375 1.166718 0.461861 -0.704857
139.21875 1.223224 0.523799 -0.699425
140.1328125 1.209994 0.576477 -0.633517
140.953125 1.105854 0.536092 -0.569762
141.81640625 1.1003539999999998 0.535839 -0.564515
142.27734375 2.490498 0.220498 -2.27
142.85546875 1.309037 0.449665 -0.859372
143.48046875 1.168228 0.484904 -0.683324
144.18359375 1.1070419999999999 0.539789 -0.567253
144.94140625 1.0352299999999999 0.520834 -0.514396
145.765625 1.392042 0.364227 -1.027815
147.03515625 1.280898 0.718655 -0.562243
147.69140625 1.154757 0.769826 -0.384931
148.20703125 1.192641 0.790654 -0.401987
149.30078125 1.1170740000000001 0.61184 -0.505234
150.3671875 1.086902 0.51397 -0.572932
150.9140625 1.533636 0.744706 -0.78893
151.3125 1.354594 0.472333 -0.882261
152.07421875 1.847836 1.483245 -0.364591
152.55859375 1.600379 1.369476 -0.230903
153.171875 1.791085 1.336085 -0.455
153.95703125 1.791884 1.341884 -0.45
154.64453125 2.077855 1.399971 -0.677884
155.02734375 1.7479209999999998 0.974849 -0.773072
155.4921875 1.282948 0.542948 -0.74
156.19921875 1.7807950000000001 1.032272 -0.748523
156.5390625 1.191109 -0.210125 -1.401234
156.89453125 1.038514 -0.045553 -1.084067
157.09765625 0.190391 0.013092 -0.177299
157.8984375 1.801255 1.061333 -0.739922
158.30859375 2.59909 0.22909 -2.37
158.5390625 3.969962 1.599962 -2.37
159.08203125 1.429629 0.872136 -0.557493
159.796875 2.01037 1.534909 -0.475461
160.55078125 1.9983650000000002 1.377285 -0.62108
161.3515625 1.232694 0.872694 -0.36
162.0703125 1.781645 1.507426 -0.274219
162.72265625 2.083892 1.704712 -0.37918
163.3828125 1.556719 1.055 -0.501719
164.03515625 1.053151 0.491861 -0.56129
164.90625 1.856196 1.491196 -0.365
165.64453125 1.9349859999999999 1.584986 -0.35
166.37890625 1.2660179999999999 0.551018 -0.715
166.953125 1.143164 0.684805 -0.458359
167.82421875 1.6988640000000002 1.475 -0.223864
168.3671875 1.955276 1.739312 -0.215964
168.9140625 1.390828 0.830828 -0.56
169.34765625 0.957138 0.339428 -0.61771
170.03125 1.4267310000000002 0.768862 -0.657869
170.8203125 1.886072 1.20124 -0.684832
171.3671875 1.962903 1.172903 -0.79
171.9609375 0.99263 0.204817 -0.787813
172.55078125 1.547717 0.960947 -0.58677
173.0 1.693668 1.22 -0.473668
173.65234375 1.9246150000000002 1.459653 -0.464962
174.40625 1.516581 0.899293 -0.617288
175.19921875 1.044171 0.622296 -0.421875
175.7109375 1.6601650000000001 1.134701 -0.525464
176.5078125 1.78328 1.290757 -0.492523
177.078125 2.145377 1.32874 -0.816637
177.46875 1.315831 0.465922 -0.849909
177.80078125 1.1449820000000002 0.255 -0.889982
178.14453125 1.2697159999999998 0.869972 -0.399744
178.76171875 1.717588 1.723838 0.00625
179.46875 1.773068 1.625 -0.148068
180.1484375 1.044962 0.67 -0.374962
180.73828125 1.479719 1.169719 -0.31
181.50390625 1.702518 1.261489 -0.441029
182.25 1.2097069999999999 0.635 -0.574707
182.98828125 1.720215 1.07943 -0.640785
183.453125 2.079481 1.51 -0.569481
183.91796875 2.001787 1.484027 -0.51776
184.609375 1.155418 0.361842 -0.793576
185.25390625 1.5292210000000002 1.101096 -0.428125
185.80078125 1.899585 1.745 -0.154585
186.28125 1.9988949999999999 1.982281 -0.016614
186.6875 1.538933 1.162115 -0.376818
187.01953125 1.168868 0.579761 -0.589107
187.4765625 1.460427 1.006052 -0.454375
188.2734375 1.876976 1.827972 -0.049004
188.7578125 2.1063289999999997 2.207222 0.100893
189.171875 1.687906 1.699805 0.011899
189.94921875 1.499179 1.214541 -0.284638
190.62109375 1.9269789999999998 1.417104 -0.509875
191.31640625 1.758866 1.129823 -0.629043
192.08203125 1.4758019999999998 0.536735 -0.939067
192.7890625 1.694647 0.989647 -0.705
193.42578125 1.443185 1.064576 -0.378609
194.1328125 1.7165409999999999 1.57826 -0.138281
194.6171875 0.926279 -0.16722 -1.093499
195.16796875 2.018234 1.304549 -0.713685
195.90234375 1.3431309999999999 1.20345 -0.139681
196.50390625 1.786449 1.773949 -0.0125
197.21484375 1.9671589999999999 1.675895 -0.291264
197.55078125 1.261471 0.190182 -1.071289
198.3125 1.6633330000000002 0.743333 -0.92
198.9453125 1.893817 1.248817 -0.645
199.7890625 1.41262 1.229924 -0.182696
200.25 1.6150000000000002 1.34 -0.275
200.99609375 1.7383600000000001 1.338424 -0.399936
201.44140625 1.898488 1.574246 -0.324242
202.109375 1.6502569999999999 1.190257 -0.46
202.66796875 1.90643 1.173048 -0.733382
203.25390625 1.624886 0.795 -0.829886
203.8671875 1.250878 0.945 -0.305878
204.5859375 1.65994 1.580514 -0.079426
205.07421875 1.833993 1.699462 -0.134531
205.69140625 1.7066729999999999 1.414448 -0.292225
206.14453125 1.6562160000000001 1.159961 -0.496255
206.7109375 0.958077 0.629875 -0.328202
207.68359375 1.1248550000000002 0.631171 -0.493684
208.12109375 1.128148 0.5 -0.628148
208.7578125 1.637126 0.853407 -0.783719
209.6640625 1.901011 1.411011 -0.49
210.41796875 2.0251289999999997 1.726697 -0.298432
210.97265625 2.152173 1.772325 -0.379848
211.41015625 1.596185 1.188624 -0.407561
211.82421875 1.719634 1.242134 -0.4775
212.52734375 1.9713559999999999 1.531375 -0.439981
213.0703125 2.3248249999999997 1.810344 -0.514481
213.86328125 2.070793 1.636223 -0.43457
214.30078125 2.058897 1.65951 -0.399387
214.6328125 1.954681 1.454681 -0.5
215.4609375 1.914488 1.429825 -0.484663
215.87890625 2.7698970000000003 0.230131 -2.539766
216.9765625 2.165241 1.460311 -0.70493
217.375 2.764734 0.135 -2.629734
218.20703125 1.554962 0.745 -0.809962
218.9375 1.892364 1.227115 -0.665249
219.39453125 1.170893 -0.240043 -1.410936
220.23828125 2.106235 1.478908 -0.627327
220.640625 2.606728 0.002422 -2.604306
221.66015625 1.5504 1.0204 -0.53
222.4140625 1.701193 1.369932 -0.331261
223.07421875 1.883956 1.448956 -0.435
223.39453125 1.163872 0.094947 -1.068925
223.81640625 1.172374 0.386171 -0.786203
224.9921875 2.158492 1.536622 -0.62187
225.34765625 3.653352 1.038606 -2.614746
225.57421875 4.4718539999999996 1.857108 -2.614746
226.06640625 1.660566 0.893885 -0.766681
226.78515625 2.082901 1.358753 -0.724148
227.41796875 2.166498 1.426498 -0.74
228.140625 2.079905 1.472914 -0.606991
228.875 1.7647529999999998 1.2 -0.564753
229.63671875 1.522299 1.058084 -0.464215
230.4765625 1.97049 1.414473 -0.556017
231.03515625 2.369079 1.799594 -0.569485
231.546875 3.913363 2.094789 -1.818574
232.4609375 1.8188050000000002 1.26445 -0.554355
233.0234375 2.243672 1.684783 -0.558889
233.47265625 1.7190379999999998 1.097389 -0.621649
234.15234375 2.011246 1.498687 -0.512559
234.8984375 1.697562 1.143301 -0.554261
235.59765625 1.1116519999999999 0.586899 -0.524753
236.41015625 1.647738 1.167879 -0.479859
237.00390625 1.9879950000000002 1.594737 -0.393258
237.37109375 1.881451 1.29307 -0.588381
237.75390625 2.029198 1.525135 -0.504063
238.42578125 1.615939 0.976596 -0.639343
239.03125 1.228277 0.658738 -0.569539
239.703125 2.032871 1.184237 -0.848634
240.25390625 2.157638 1.429126 -0.728512
241.14453125 2.127278 1.454994 -0.672284
241.91796875 1.3717350000000001 0.751735 -0.62
242.5625 1.8028760000000001 1.155833 -0.647043
243.37109375 2.232935 1.511971 -0.720964
244.078125 2.1127130000000003 1.362977 -0.749736
244.80078125 1.4015300000000002 0.792262 -0.609268
245.4921875 1.686858 1.15778 -0.529078
245.93359375 1.659581 1.049895 -0.609686
246.6328125 2.171397 1.471522 -0.699875
247.24609375 2.2159750000000003 1.528048 -0.687927
247.8828125 1.353089 0.758089 -0.595
248.453125 3.185387 0.551119 -2.634268
248.703125 4.56351 1.929242 -2.634268
249.05859375 2.174635 1.519642 -0.654993
249.41796875 1.6462499999999998 1.042239 -0.604011
249.8046875 2.037519 1.392555 -0.644964
250.203125 2.1873430000000003 1.423958 -0.763385
250.5390625 1.624088 0.921089 -0.702999
250.84375 1.17805 0.573281 -0.604769
251.42578125 1.4735 0.8985 -0.575
252.171875 1.973296 1.408589 -0.564707
253.0078125 2.352254 1.737723 -0.614531
253.8515625 1.4197380000000002 0.894738 -0.525
254.51953125 1.933548 1.424898 -0.50865
255.0 1.062245 0.02 -1.042245
255.3359375 0.9172690000000001 0.162476 -0.754793
255.88671875 2.190022 1.640085 -0.549937
256.3203125 2.090081 1.270087 -0.819994
257.31640625 1.891649 1.454888 -0.436761
257.703125 3.2723269999999998 0.789132 -2.483195
258.87109375 2.197372 1.751201 -0.446171
259.53125 1.814283 1.294654 -0.519629
260.1796875 1.657893 1.22228 -0.435613
260.98828125 2.152647 1.662647 -0.49
261.32421875 1.111539 0.118506 -0.993033
261.56640625 1.876918 0.883885 -0.993033
261.8046875 2.123279 1.38907 -0.734209
262.39453125 1.639954 0.934954 -0.705
262.97265625 2.1603779999999997 1.489653 -0.670725
263.86328125 2.359076 1.649095 -0.709981
264.671875 1.64135 0.954101 -0.687249
265.66015625 1.9122219999999999 1.578612 -0.33361
266.1484375 2.0836449999999997 1.769423 -0.314222
266.49609375 1.8984509999999999 1.4 -0.498451
267.37890625 2.011311 1.333142 -0.678169
267.78125 2.97836 0.278472 -2.699888
268.015625 4.715318 2.01543 -2.699888
268.73828125 2.165641 1.421318 -0.744323
270.5390625 1.8649459999999998 1.014946 -0.85
271.21484375 1.914339 1.259339 -0.655
272.02734375 1.859785 1.184852 -0.674933
272.63671875 1.99 1.385 -0.605
273.3671875 1.7995599999999998 1.437763 -0.361797
274.16015625 1.72712 1.377635 -0.349485
274.5859375 1.650551 1.255551 -0.395
274.94140625 1.7337730000000002 1.144945 -0.588828
275.3125 1.805 1.16 -0.645
275.6796875 1.712653 1.04745 -0.665203
276.83984375 1.804413 1.134706 -0.669707
277.23828125 3.0077920000000002 0.607817 -2.399975
278.2421875 1.8178809999999999 1.134085 -0.683796
278.69921875 1.1729829999999999 -0.140265 -1.313248
278.91015625 1.241687 0.173924 -1.067763
279.2109375 1.957675 0.889912 -1.067763
279.703125 2.018114 1.369444 -0.64867
280.88671875 2.2069739999999998 1.447828 -0.759146
281.43359375 2.348044 0.225573 -2.122471
282.0078125 2.166496 1.481596 -0.6849
282.7109375 2.0501840000000002 1.464455 -0.585729
283.46484375 2.159286 1.505661 -0.653625
284.1875 2.137839 1.538571 -0.599268
285.08203125 2.185219 1.370324 -0.814895
285.703125 2.205352 1.339783 -0.865569
286.41015625 2.076143 1.571026 -0.505117
286.73046875 1.269482 0.329973 -0.939509
287.53125 1.970974 1.633426 -0.337548
287.90234375 1.462947 0.143341 -1.319606
288.22265625 1.930163 0.384501 -1.545662
288.4921875 2.3506620000000003 0.805 -1.545662
288.93359375 1.549902 0.734945 -0.814957
289.45703125 1.9983680000000001 1.243368 -0.755
290.3359375 2.198474 1.02982 -1.168654
290.84375 2.408331 1.507566 -0.900765
291.95703125 2.224672 1.989672 -0.235
292.47265625 3.510483 0.814975 -2.695508
293.29296875 2.09741 1.426004 -0.671406
293.94921875 1.762432 1.209034 -0.553398
294.4765625 2.136717 1.471467 -0.66525
295.1640625 2.164873 1.314873 -0.85
295.53515625 1.3876460000000002 -0.16142 -1.549066
296.24609375 2.4843669999999998 1.413034 -1.071333
296.86328125 2.083411 1.088583 -0.994828
297.515625 2.360179 1.281172 -1.079007
298.29296875 2.302127 1.676107 -0.62602
299.03515625 2.2758510000000003 1.574461 -0.70139
299.5625 1.672006 1.147548 -0.524458
299.921875 1.2261579999999999 0.672437 -0.553721
300.57421875 1.855605 1.30435 -0.551255
301.31640625 1.999159 1.403881 -0.595278
301.671875 1.0096269999999998 -0.1 -1.109627
302.0078125 1.617135 0.056023 -1.561112
302.28515625 1.78686 0.351938 -1.434922
302.7734375 0.9696009999999999 -0.055636 -1.025237
303.08203125 1.56971 0.55471 -1.015
303.8203125 2.797408 1.881141 -0.916267
304.20703125 2.5810519999999997 0.906107 -1.674945
304.53515625 3.197927 2.118972 -1.078955
304.94140625 3.39975 2.034803 -1.364947
305.31640625 3.328019 1.964894 -1.363125
305.66796875 3.643129 1.952136 -1.690993
305.96875 3.8304869999999998 1.975676 -1.854811
306.41796875 3.541142 1.778523 -1.762619
306.8046875 3.223451 1.869224 -1.354227
307.80078125 1.954859 1.39532 -0.559539
308.16015625 3.103347 0.4 -2.703347
308.953125 2.083681 1.0929 -0.990781
309.39453125 1.3807369999999999 -0.329242 -1.709979
309.77734375 1.263606 0.453606 -0.81
310.39453125 1.853429 1.349955 -0.503474
310.7109375 1.28 0.16 -1.12
311.23828125 1.41885 0.597838 -0.821012
311.4921875 2.052809 1.534485 -0.518324
312.25 1.475828 0.785 -0.690828
313.1875 1.494803 0.836667 -0.658136
313.71875 2.156758 1.412188 -0.74457
314.60546875 2.26265 1.38487 -0.87778
315.125 1.6794740000000001 0.55 -1.129474
315.78515625 1.045512 0.331664 -0.713848
316.2578125 1.3362669999999999 -0.023587 -1.359854
316.9453125 1.95727 1.669051 -0.288219
317.640625 1.802545 1.292545 -0.51
318.33984375 1.156766 0.456766 -0.7
318.78515625 1.272098 0.63659 -0.635508
319.5390625 1.759973 1.144973 -0.615
320.2734375 1.9689079999999999 1.373908 -0.595
320.76171875 1.8005330000000002 1.101998 -0.698535
321.50390625 1.081693 0.422627 -0.659066
322.25 1.8699999999999999 1.15 -0.72
323.0078125 2.03621 1.277144 -0.759066
323.4609375 0.46128099999999994 -0.135 -0.596281
323.84765625 1.649178 0.527245 -1.121933
324.25 1.0348540000000002 -0.045 -1.079854
325.01953125 1.689251 1.219988 -0.469263
325.7734375 1.895322 1.877607 -0.017715
326.45703125 1.94695 1.798424 -0.148526
327.0390625 1.3063449999999999 0.974664 -0.331681
327.41015625 1.3366310000000001 0.679413 -0.657218
327.8125 1.559879 1.093824 -0.466055
328.43359375 1.944834 1.164877 -0.779957
328.828125 1.755855 0.79 -0.965855
329.28515625 2.047883 1.060202 -0.987681
329.8984375 1.3578929999999998 0.634936 -0.722957
330.66796875 1.800755 1.216907 -0.583848
331.38671875 1.989508 1.428644 -0.560864
332.33984375 1.7426 1.1176 -0.625
333.10546875 1.912226 1.124994 -0.787232
333.84765625 1.9745840000000001 1.228424 -0.74616
334.34375 2.1144540000000003 1.445658 -0.668796
335.0234375 1.355359 0.516282 -0.839077
335.71484375 1.7578390000000002 1.357895 -0.399944
336.17578125 1.745287 1.537126 -0.208161
336.8671875 1.841303 1.623578 -0.217725
337.6328125 1.908342 1.216944 -0.691398
338.08984375 1.470934 0.786472 -0.684462
338.45703125 1.4634 0.6834 -0.78
339.1015625 2.054246 1.206757 -0.847489
339.98046875 2.226082 1.235249 -0.990833
340.3046875 1.170015 -0.474985 -1.645
340.671875 1.2983120000000001 -0.546376 -1.844688
340.93359375 2.054185 0.209497 -1.844688
341.7734375 1.959365 1.29665 -0.662715
342.17578125 2.882613 0.452974 -2.429639
342.40234375 4.609639 2.18 -2.429639
342.94921875 2.093249 1.53 -0.563249
343.39453125 1.9298000000000002 1.264974 -0.664826
343.765625 2.03144 1.211447 -0.819993
344.1484375 1.759957 0.987195 -0.772762
344.515625 1.714727 0.99 -0.724727
345.1796875 2.014767 1.408844 -0.605923
345.68359375 2.489891 1.804891 -0.685
346.34375 2.203359 1.340462 -0.862897
347.265625 2.25952 1.615 -0.64452
347.81640625 2.408802 1.893802 -0.515
348.21484375 1.86788 1.358021 -0.509859
349.265625 2.324985 1.75577 -0.569215
349.74609375 1.1640869999999999 0.604109 -0.559978
350.46875 2.279754 1.684754 -0.595
351.10546875 2.216776 1.63563 -0.581146
351.6796875 2.204789 1.505 -0.699789
352.53125 2.137975 1.668 -0.469975
352.89453125 1.111017 0.14 -0.971017
353.4375 2.323317 1.911667 -0.41165
353.9296875 2.347898 1.957415 -0.390483
354.58203125 2.0673950000000003 1.59 -0.477395
355.46875 2.1869680000000002 1.339641 -0.847327
356.09765625 2.367752 1.708283 -0.659469
356.8984375 2.071885 1.737739 -0.334146
357.56640625 2.105 1.605 -0.5
357.875 0.974802 0.0 -0.974802
358.28125 1.8752649999999997 1.12207 -0.753195
358.609375 1.8934900000000001 1.21849 -0.675
358.9375 2.024158 1.442115 -0.582043
359.62109375 1.9245649999999999 1.494565 -0.43
359.953125 1.564327 0.279583 -1.284744
360.70703125 1.680987 1.168479 -0.512508
361.80859375 2.008995 1.420834 -0.588161
362.50390625 2.061443 1.480874 -0.580569
363.4921875 2.022115 1.543811 -0.478304
364.18359375 2.104578 1.634585 -0.469993
364.84375 2.078108 1.648108 -0.43
365.9921875 2.133948 1.453089 -0.680859
366.75 1.749971 1.125 -0.624971
367.6796875 1.940147 1.338022 -0.602125
368.4609375 2.137835 1.414637 -0.723198
369.359375 2.13436 1.574516 -0.559844
370.0078125 1.6673580000000001 1.463133 -0.204225
370.984375 1.669859 1.455 -0.214859
371.796875 1.8118729999999998 1.283712 -0.528161
372.42578125 2.080869 1.441482 -0.639387
373.34765625 2.2416 1.2991 -0.9425
373.9609375 2.194323 1.719948 -0.474375
374.49609375 1.782822 1.571187 -0.211635
375.15625 1.05425 1.03925 -0.015
375.81640625 1.7803280000000001 1.6 -0.180328
376.70703125 2.197114 1.697963 -0.499151
377.17578125 0.9328670000000001 0.309564 -0.623303
378.609375 1.607518 1.008721 -0.598797
379.15625 2.9009929999999997 0.461705 -2.439288
379.6640625 2.2 1.425 -0.775
380.07421875 0.723451 -0.545 -1.268451
380.6796875 1.93 0.835 -1.095
381.17578125 1.349834 0.816271 -0.533563
381.53515625 1.381692 1.006692 -0.375
381.86328125 1.5102540000000002 1.476614 -0.03364
382.4921875 2.0042109999999997 1.799275 -0.204936
382.92578125 2.142559 1.7 -0.442559
383.34375 1.9607670000000001 1.41206 -0.548707
384.00390625 1.376506 0.672006 -0.7045
384.40625 1.373482 0.633482 -0.74
384.73046875 1.374965 0.879965 -0.495
385.4765625 2.002282 1.416282 -0.586
386.234375 2.269859 1.533642 -0.736217
386.5546875 0.819916 -0.35 -1.169916
386.8046875 1.5506099999999998 0.380694 -1.169916
387.32421875 1.474574 0.675 -0.799574
387.87890625 1.661422 1.266422 -0.395
388.359375 1.946868 1.659187 -0.287681
388.99609375 2.124668 1.677871 -0.446797
389.69140625 1.7715670000000001 1.216567 -0.555
390.47265625 1.4005299999999998 0.591622 -0.808908
391.36328125 2.266649 1.479682 -0.786967
392.13671875 2.163115 1.65817 -0.504945
393.01171875 1.44469 0.948444 -0.496246
393.703125 0.08118700000000001 -0.065 -0.146187
394.515625 1.697584 1.288365 -0.409219
395.30859375 2.154304 1.484304 -0.67
395.9140625 1.280514 0.595 -0.685514
396.6640625 1.437095 0.990551 -0.446544
397.37890625 1.823424 1.408424 -0.415
397.87109375 1.899241 1.448148 -0.451093
398.47265625 1.869456 1.012386 -0.85707
398.890625 1.683251 0.417244 -1.266007
399.57421875 1.204546 0.936348 -0.268198
400.34765625 1.665154 1.475884 -0.18927
400.8671875 1.850107 1.442693 -0.407414
401.4921875 1.0865070000000001 0.406605 -0.679902
401.94140625 1.643124 0.669435 -0.973689
402.5859375 1.614811 1.174811 -0.44
402.95703125 1.7113720000000001 0.148368 -1.563004
403.66796875 1.555255 0.902414 -0.652841
404.234375 1.0429469999999998 0.347947 -0.695
404.59375 1.313618 0.426618 -0.887
404.921875 1.292672 0.527343 -0.765329
405.32421875 1.819102 1.054108 -0.764994
405.68359375 1.839865 1.060842 -0.779023
406.01953125 1.708711 0.960293 -0.748418
406.3671875 1.623736 0.922793 -0.700943
406.78125 1.298499 0.715496 -0.583003
407.65625 1.96647 1.47 -0.49647
408.40234375 2.150728 1.76 -0.390728
409.0703125 1.732514 0.932514 -0.8
409.7109375 1.5802559999999999 0.974719 -0.605537
410.421875 2.123801 1.859438 -0.264363
410.76953125 1.293199 0.479916 -0.813283
411.23828125 0.28217899999999996 0.358718 0.076539
411.46875 1.8019150000000002 1.427915 -0.374
412.328125 1.557453 0.854818 -0.702635
412.6875 3.2527980000000003 0.750484 -2.502314
413.2578125 2.166594 1.279239 -0.887355
413.6484375 1.894806 1.161213 -0.733593
414.37890625 2.16653 1.26208 -0.90445
414.78515625 2.121732 -0.32294 -2.444672
415.484375 1.5792380000000001 0.915801 -0.663437
416.26171875 1.9296440000000001 1.770364 -0.15928
417.15625 2.2903700000000002 1.929453 -0.360917
417.734375 2.437652 1.851818 -0.585834
418.23046875 2.2835 1.434889 -0.848611
418.6015625 1.42787 0.491437 -0.936433
419.33203125 2.040222 0.923338 -1.116884
420.02734375 2.10707 1.502798 -0.604272
420.73046875 2.145209 1.775266 -0.369943
421.67578125 2.0062699999999998 1.137054 -0.869216
422.609375 1.910723 1.730723 -0.18
423.12890625 2.1289900000000004 2.009123 -0.119867
423.6953125 2.061531 1.422531 -0.639
424.37109375 2.153087 1.145656 -1.007431
425.10546875 2.026361 1.634861 -0.3915
425.90234375 1.971964 1.849844 -0.12212
426.2734375 1.5473219999999999 0.497755 -1.049567
426.5703125 2.203165 0.713923 -1.489242
427.3828125 1.843418 1.122366 -0.721052
428.1171875 2.025563 1.419355 -0.606208
428.4609375 1.4336740000000001 0.089857 -1.343817
428.75 1.6978909999999998 0.495 -1.202891
429.4921875 2.379546 1.04981 -1.329736
430.18359375 2.490196 1.424324 -1.065872
430.58984375 2.22957 1.55 -0.67957
431.2890625 2.2733540000000003 2.104922 -0.168432
431.9140625 2.354439 1.994439 -0.36
433.0 2.4847 1.93 -0.5547
433.6015625 2.323059 2.033684 -0.289375
434.5625 2.1286329999999998 1.831875 -0.296758
435.30078125 2.1656519999999997 1.644108 -0.521544
435.97265625 2.416715 1.449448 -0.967267
436.6796875 2.252657 1.371168 -0.881489
437.11328125 1.955727 1.336038 -0.619689
438.11328125 2.300872 1.814372 -0.4865
438.5234375 2.901181 0.510843 -2.390338
439.17578125 1.608179 1.269058 -0.339121
439.87890625 1.953541 1.665806 -0.287735
440.578125 2.256336 1.739663 -0.516673
441.296875 2.168622 1.47 -0.698622
441.640625 1.1347 -0.065 -1.1997
442.0625 2.317674 1.492222 -0.825452
442.93359375 2.26506 1.704943 -0.560117
443.32421875 2.757561 0.29461 -2.462951
444.0625 2.064878 1.315125 -0.749753
445.00390625 2.002436 1.585 -0.417436
445.578125 2.339109 1.929272 -0.409837
446.34765625 2.293729 1.713994 -0.579735
446.7109375 1.225566 0.055566 -1.17
447.08984375 0.931009 0.437509 -0.4935
447.7578125 2.126957 1.661102 -0.465855
448.12890625 2.886159 0.516159 -2.37
448.88671875 2.043496 1.25 -0.793496
449.3203125 1.252197 0.128906 -1.123291
449.6875 2.34186 1.786875 -0.554985
450.08984375 1.9845380000000001 1.666026 -0.318512
450.875 2.144785 1.75 -0.394785
451.47265625 2.25494 1.875 -0.37994
452.58203125 2.298016 1.301422 -0.996594
453.0859375 3.0042489999999997 0.021095 -2.983154
453.70703125 2.011291 1.116291 -0.895
454.125 1.241004 0.065 -1.176004
454.7109375 1.384282 0.879714 -0.504568
455.6328125 2.096282 1.56639 -0.529892
456.171875 2.3233639999999998 1.843364 -0.48
456.86328125 1.962674 1.408303 -0.554371
457.5234375 1.591467 0.994598 -0.596869
458.171875 1.433794 0.823794 -0.61
458.71484375 2.070373 1.322691 -0.747682
459.09765625 1.658001 1.078738 -0.579263
459.88671875 1.77 1.555 -0.215
460.2734375 2.006759 0.552471 -1.454288
460.5234375 2.854288 1.4 -1.454288
460.921875 1.596128 1.201128 -0.395
461.74609375 2.096584 1.466696 -0.629888
462.5859375 1.3994680000000002 0.424563 -0.974905
463.6015625 1.7992749999999997 1.209847 -0.589428
464.09765625 1.239366 0.314825 -0.924541
465.0625 1.778561 1.648571 -0.12999
465.94921875 1.162013 0.893573 -0.26844
466.69140625 1.267522 0.824568 -0.442954
467.03515625 0.9285839999999999 -0.107523 -1.036107
467.3046875 1.608635 0.572528 -1.036107
467.5703125 2.0211069999999998 1.239232 -0.781875
468.41796875 1.897421 0.902421 -0.995
469.4609375 1.168574 0.389526 -0.779048
469.86328125 1.30193 0.743802 -0.558128
470.25390625 1.490946 0.848192 -0.642754
470.62109375 1.4781270000000002 0.808127 -0.67
470.98046875 1.59428 0.964994 -0.629286
471.68359375 1.9847389999999998 1.439943 -0.544796
472.0546875 2.296211 0.423725 -1.872486
472.85546875 0.793452 0.15998 -0.633472
473.3046875 2.22837 0.39207 -1.8363
473.984375 1.6584370000000002 1.245 -0.413437
474.359375 1.6276300000000001 1.267864 -0.359766
474.69921875 1.687822 1.331604 -0.356218
475.48828125 2.203252 1.535 -0.668252
475.88671875 2.639 0.099742 -2.539258
476.13671875 4.377979 1.838721 -2.539258
476.7734375 1.138 0.618923 -0.519077
477.25 1.7149450000000002 1.35 -0.364945
477.6796875 1.734686 1.3 -0.434686
478.23046875 2.184786 1.37987 -0.804916
479.05859375 1.512537 0.649445 -0.863092
479.61328125 1.136991 0.69653 -0.440461
479.984375 1.3065570000000002 0.965057 -0.3415
480.4140625 1.718168 1.429973 -0.288195
480.78125 1.53695 1.196705 -0.340245
481.203125 1.928823 1.379454 -0.549369
482.12109375 1.82448 0.53 -1.29448
482.4921875 2.9305879999999997 0.424981 -2.505607
482.83203125 0.463016 -0.005074 -0.46809
483.5859375 1.649629 1.584694 -0.064935
484.28515625 1.882188 1.654906 -0.227282
485.01953125 1.11455 0.649988 -0.464562
485.7578125 1.516637 0.856637 -0.66
486.1875 1.320653 0.651524 -0.669129
486.7265625 1.900017 1.113898 -0.786119
487.55859375 1.049068 0.194154 -0.854914
488.125 1.208229 0.645 -0.563229
488.8359375 1.672173 1.209801 -0.462372
489.51171875 1.6794069999999999 1.594741 -0.084666
490.13671875 1.205972 0.504722 -0.70125
491.04296875 1.515578 1.162336 -0.353242
491.75 1.9 1.89 -0.01
492.37890625 1.65917 1.535168 -0.124002
492.8125 1.249528 1.105357 -0.144171
493.546875 1.763496 1.293496 -0.47
494.1171875 2.065153 1.249275 -0.815878
494.53125 1.7367119999999998 0.806719 -0.929993
495.21484375 1.3013340000000002 0.227267 -1.074067
495.63671875 1.486661 -0.412954 -1.899615
495.97265625 1.912565 1.179701 -0.732864
496.6640625 1.969891 1.599891 -0.37
497.17578125 2.3916 2.019034 -0.372566
497.87109375 1.620975 0.839077 -0.781898
498.32421875 1.227304 -0.15384 -1.381144
498.68359375 2.163548 1.713548 -0.45
499.078125 1.914264 1.679438 -0.234826
499.45703125 1.704027 1.574684 -0.129343
500.1328125 1.960056 1.814275 -0.145781
500.515625 3.076424 0.586484 -2.48994
501.02734375 2.347607 1.654697 -0.69291
501.6015625 2.2321090000000003 1.602548 -0.629561
502.37109375 2.09567 1.550794 -0.544876
502.875 2.385 1.835 -0.55
503.21875 1.76614 1.034167 -0.731973
503.609375 1.990275 1.211319 -0.778956
504.24609375 2.0315209999999997 1.305 -0.726521
504.90234375 2.140884 1.48 -0.660884
505.87109375 2.219713 1.47778 -0.741933
506.234375 1.658176 -0.239375 -1.897551
507.2421875 2.096495 1.509387 -0.587108
508.0 2.184758 1.905 -0.279758
508.6953125 2.232501 1.604303 -0.628198
509.0234375 1.243474 -0.18463 -1.428104
509.265625 1.840487 0.412383 -1.428104
509.82421875 1.6812810000000002 1.168956 -0.512325
510.6640625 1.8799000000000001 1.6249 -0.255
511.05859375 3.019336 0.754479 -2.264857
511.3515625 2.0103359999999997 0.571302 -1.439034
511.74609375 1.7297420000000001 0.332232 -1.39751
511.9921875 2.537239 1.139729 -1.39751
512.1953125 1.757001 1.23343 -0.523571
513.05078125 2.011775 1.347731 -0.664044
513.4140625 3.09701 0.18995 -2.90706
513.640625 4.947177 2.040117 -2.90706
514.05859375 2.125369 1.084823 -1.040546
515.70703125 1.961467 1.347444 -0.614023
516.14453125 1.894272 0.114886 -1.779386
517.01953125 1.678715 0.929941 -0.748774
518.1640625 1.564381 1.234811 -0.32957
518.66015625 1.283974 0.107353 -1.176621
519.3359375 1.820034 1.494978 -0.325056
519.8828125 2.092613 1.507316 -0.585297
520.625 2.0836249999999996 1.38 -0.703625
521.10546875 2.139942 1.57498 -0.564962
521.8046875 1.464651 0.736626 -0.728025
522.6484375 1.306043 0.386523 -0.91952
523.4375 1.76599 0.837014 -0.928976
524.703125 1.1089300000000002 1.245 0.13607
525.80078125 2.005677 1.612272 -0.393405
526.3125 1.341526 0.886667 -0.454859
527.0234375 1.5762260000000001 0.933964 -0.642262
527.40625 1.8810930000000001 0.106144 -1.774949
527.66796875 1.611169 0.268583 -1.342586
528.53515625 1.754681 1.114904 -0.639777
529.421875 1.9859330000000002 1.290933 -0.695
530.078125 2.326194 1.418129 -0.908065
530.7890625 2.0390449999999998 1.164737 -0.874308
531.38671875 1.4866329999999999 0.666776 -0.819857
531.78125 1.225721 0.353173 -0.872548
532.203125 2.209391 1.239334 -0.970057
533.35546875 1.9204039999999998 -0.185065 -2.105469
533.5625 2.112909 0.16733 -1.945579
533.8203125 3.303741 1.358162 -1.945579
534.18359375 1.412228 0.965824 -0.446404
534.6015625 0.506636 0.039428 -0.467208
535.00390625 0.29830700000000004 -0.350844 -0.649151
535.23828125 1.469284 0.889703 -0.579581
535.44921875 0.96404 0.265268 -0.698772
535.828125 0.259157 0.02775 -0.231407
536.34765625 1.070277 0.573994 -0.496283
536.953125 1.2339149999999999 0.948085 -0.28583
537.47265625 1.382363 0.874868 -0.507495
537.8203125 1.628097 0.283143 -1.344954
538.578125 1.426341 0.763005 -0.663336
539.203125 1.634427 1.135 -0.499427
539.609375 1.578369 0.988643 -0.589726
540.01171875 1.689603 1.21973 -0.469873
540.37890625 1.600305 1.128119 -0.472186
540.75 1.38003 0.915 -0.46503
541.3125 1.06518 0.737045 -0.328135
542.0703125 1.5518429999999999 0.866601 -0.685242
542.5 1.852587 0.55 -1.302587
543.19921875 1.326056 1.173884 -0.152172
543.88671875 1.5002140000000002 1.482671 -0.017543
544.40625 1.745835 1.379648 -0.366187
544.98046875 1.577051 0.839981 -0.73707
545.61328125 1.078462 0.624023 -0.454439
546.01953125 1.427372 0.71497 -0.712402
546.38671875 1.303896 0.725124 -0.578772
547.1640625 1.251566 1.041101 -0.210465
547.64453125 2.24847 0.164928 -2.083542
548.21875 1.4992809999999999 0.754281 -0.745
548.94921875 1.657501 0.569063 -1.088438
549.6640625 0.39122999999999997 -0.31877 -0.71
550.03515625 1.243474 0.518474 -0.725
550.421875 1.304621 0.811012 -0.493609
550.78515625 1.36761 0.762355 -0.605255
551.453125 1.6645050000000001 0.934505 -0.73
551.87109375 0.508926 -0.396942 -0.905868
552.26171875 1.967384 1.133711 -0.833673
552.828125 1.416793 1.012152 -0.404641
553.28515625 3.370672 1.853508 -1.517164
555.61328125 1.0337260000000001 -0.210692 -1.244418
556.26953125 1.374594 -0.535 -1.909594
0.0 1.3614579999999998 -1.0 -2.361458
557.71484375 1.411004 -0.571526 -1.98253
558.26953125 1.764636 -0.050036 -1.814672
558.84765625 1.7177090000000002 0.013411 -1.704298
559.59765625 1.61026 0.214175 -1.396085
560.1640625 1.8487649999999998 0.584737 -1.264028
560.64453125 1.7458930000000001 0.67498 -1.070913
561.12109375 1.619535 0.648873 -0.970662
561.98046875 1.237167 0.294667 -0.9425
562.51953125 1.859509 1.265294 -0.594215
563.11328125 1.724241 1.365214 -0.359027
563.53515625 1.256921 1.007699 -0.249222
563.92578125 0.864741 0.67842 -0.186321
564.47265625 1.44 1.345 -0.095
565.015625 1.8692339999999998 1.688154 -0.18108
565.6171875 1.673493 1.351611 -0.321882
566.23046875 1.82932 1.369858 -0.459462
566.76171875 1.887044 1.503669 -0.383375
567.21875 2.026063 1.891875 -0.134188
567.9140625 1.4218659999999999 2.344321 0.922455
568.23046875 1.864925 1.844925 -0.02
568.78125 1.00717 2.079062 1.071892
569.53125 1.110009 1.161875 0.051866
570.1796875 1.23579 0.845 -0.39079
570.8828125 1.407964 0.424596 -0.983368
571.52734375 1.654741 0.23 -1.424741
572.23046875 2.058278 -0.040208 -2.098486
572.6640625 1.299434 -0.715076 -2.01451
573.33203125 2.14999 0.386291 -1.763699
573.82421875 1.2130079999999999 -0.97125 -2.184258
574.34375 1.9163860000000001 0.711532 -1.204854
574.8203125 2.29986 1.215251 -1.084609
575.4921875 2.002872 1.008764 -0.994108
575.94921875 1.379299 0.519455 -0.859844
576.35546875 1.951841 1.094923 -0.856918
577.1953125 1.9520170000000001 1.23 -0.722017
577.60546875 1.773353 0.144994 -1.628359
577.84765625 3.947787 2.319428 -1.628359
578.328125 1.991238 1.3225 -0.668738
579.30078125 2.181041 1.813348 -0.367693
580.01171875 2.142358 1.745708 -0.39665
580.66015625 2.150077 1.735155 -0.414922
581.328125 2.112315 1.719854 -0.392461
581.9609375 2.04962 1.53462 -0.515
582.44140625 1.689848 1.059877 -0.629971
583.7890625 1.0351119999999998 -0.469888 -1.505
585.69140625 1.228031 1.184946 -0.043085
586.671875 1.424557 2.582875 1.158318
587.0234375 3.044201 2.724631 -0.31957
587.2578125 3.9556500000000003 3.63608 -0.31957
588.0859375 0.914552 1.759978 0.845426
588.48828125 1.532533 1.353721 -0.178812
589.43359375 1.803092 2.355 0.551908
589.9765625 2.091868 2.333976 0.242108
590.58984375 1.7993870000000003 2.032589 0.233202
590.9765625 1.460864 1.665 0.204136
591.3125 1.8687239999999998 1.92 0.051276
592.16015625 1.414446 1.365421 -0.049025
592.671875 4.085177 1.311824 -2.773353
593.359375 1.918278 1.027925 -0.890353
593.70703125 2.21405 -0.150074 -2.364124
594.10546875 1.354023 -0.04 -1.394023
594.859375 1.944806 1.08 -0.864806
595.67578125 1.5067460000000001 0.626471 -0.880275
596.41796875 1.267558 0.542844 -0.724714
597.08984375 1.6886999999999999 0.718814 -0.969886
597.9453125 1.999885 0.39116 -1.608725
598.40625 1.9927780000000002 -0.792222 -2.785
599.0078125 1.043565 0.072903 -0.970662
599.66796875 1.251178 -0.211632 -1.46281
600.08984375 1.7167820000000003 -0.928994 -2.645776
600.4765625 1.1771470000000002 -0.593625 -1.770772
601.19140625 1.1865059999999998 1.006606 -0.1799
601.8203125 1.697478 1.732319 0.034841
602.20703125 1.635646 1.581921 -0.053725
602.76953125 2.003952 1.68996 -0.313992
603.08203125 1.97769 0.345249 -1.632441
603.4453125 0.170898 0.189303 0.018405
604.7890625 1.184463 0.934608 -0.249855
605.4296875 1.581555 1.163971 -0.417584
606.08984375 1.610985 1.130555 -0.48043
606.71484375 0.972129 0.559339 -0.41279
607.17578125 0.9953700000000001 0.662849 -0.332521
607.83203125 1.446938 1.011516 -0.435422
608.26953125 1.5399589999999999 1.054973 -0.484986
608.88671875 1.942157 1.018804 -0.923353
609.5859375 1.664977 0.809977 -0.855
610.05078125 1.686883 -0.176476 -1.863359
610.72265625 1.6403999999999999 1.207358 -0.433042
611.41796875 1.862999 1.475 -0.387999
612.14453125 1.885 1.185 -0.7
612.81640625 2.120289 1.449886 -0.670403
613.15625 1.003433 -0.125339 -1.128772
613.42578125 1.34723 0.298257 -1.048973
613.94140625 1.243782 0.70982 -0.533962
614.46875 1.920908 1.435 -0.485908
615.08203125 1.868702 1.367336 -0.501366
615.5234375 1.965487 1.253822 -0.711665
616.12109375 1.3297940000000001 -0.034047 -1.363841
616.8671875 1.6934529999999999 0.509588 -1.183865
617.3515625 1.841762 1.079289 -0.762473
618.08203125 1.8145760000000002 1.24818 -0.566396
618.8359375 2.0855259999999998 1.236367 -0.849159
619.3046875 1.262856 -0.357069 -1.619925
619.6171875 2.44104 -0.07753 -2.51857
620.40234375 1.923338 0.443363 -1.479975
620.765625 3.353464 -0.240107 -3.593571
621.00390625 5.11578 1.522209 -3.593571
621.3828125 2.27 0.995 -1.275
621.91796875 2.7991219999999997 1.316749 -1.482373
622.46484375 2.713494 1.346483 -1.367011
623.1640625 2.023376 1.179627 -0.843749
623.75 2.004505 1.39 -0.614505
624.953125 1.2 0.7 -0.5
625.58984375 1.043941 0.830969 -0.212972
626.8671875 0.108491 -0.251509 -0.36
627.13671875 3.204439 0.424714 -2.779725
627.36328125 4.736406 1.956681 -2.779725
629.28125 2.466134 -0.110625 -2.576759
630.265625 1.93651 0.06125 -1.87526
633.24609375 2.4696000000000002 0.149099 -2.320501
634.29296875 2.709566 0.246131 -2.463435
636.3671875 1.2993350000000001 0.889572 -0.409763
636.80859375 1.60228 0.889577 -0.712703
637.328125 1.215633 1.070633 -0.145
637.73828125 2.6115939999999997 0.438284 -2.17331
638.36328125 1.176105 0.29629 -0.879815
639.03515625 1.536105 0.404457 -1.131648
639.6015625 0.41415500000000005 -0.127404 -0.541559
640.25 1.02 0.52 -0.5
640.953125 1.07247 0.398499 -0.673971
641.4140625 2.759227 0.104974 -2.654253
641.9296875 2.707764 0.172764 -2.535
642.30859375 2.2791710000000003 -0.141088 -2.420259
642.98046875 1.013962 0.314879 -0.699083
643.54296875 1.357115 1.047136 -0.309979
644.43359375 1.4042620000000001 1.174479 -0.229783
645.0078125 1.4561959999999998 1.061972 -0.394224
645.34765625 0.641974 0.394184 -0.24779
645.7265625 0.08099400000000001 -0.169823 -0.250817
646.66015625 1.2984369999999998 0.722073 -0.576364
647.09375 2.102954 0.295461 -1.807493
647.765625 1.424142 0.664234 -0.759908
648.41015625 1.545834 0.600834 -0.945
649.01171875 1.376796 0.27586 -1.100936
649.44140625 0.925333 0.204764 -0.720569
650.10546875 1.340355 1.14997 -0.190385
650.4453125 2.371796 0.608896 -1.7629
650.8359375 1.761127 1.564902 -0.196225
651.203125 1.7430189999999999 1.593079 -0.14994
651.92578125 1.8468710000000002 1.506871 -0.34
652.2734375 3.28571 0.351333 -2.934377
652.5078125 4.929106 1.994729 -2.934377
653.08203125 1.423102 0.763824 -0.659278
653.62109375 2.019206 1.395838 -0.623368
654.31640625 1.809391 1.164753 -0.644638
655.0078125 1.681607 0.89663 -0.784977
655.8203125 1.5018310000000001 0.948134 -0.553697
656.12890625 1.455077 -0.205923 -1.661
656.49609375 1.610839 0.035828 -1.575011
656.7421875 2.697702 1.122691 -1.575011
657.51171875 1.659445 1.049114 -0.610331
658.296875 2.0057210000000003 1.458951 -0.54677
659.046875 1.9632489999999998 1.434062 -0.529187
659.5859375 1.567971 1.099769 -0.468202
660.1640625 1.685 1.305 -0.38
660.82421875 1.803174 1.473174 -0.33
661.62890625 1.969213 1.675 -0.294213
662.1875 2.113392 1.842083 -0.271309
662.56640625 1.3692879999999998 1.069697 -0.299591
663.21875 1.791712 1.22725 -0.564462
664.015625 1.653607 1.174463 -0.479144
664.671875 1.6638190000000002 1.496104 -0.167715
665.171875 1.949942 1.8 -0.149942
665.7265625 1.96468 1.625265 -0.339415
666.4765625 1.7430029999999999 1.246503 -0.4965
667.1953125 1.477123 1.05392 -0.423203
667.5234375 1.4426070000000002 -0.032393 -1.475
668.12109375 2.0409800000000002 1.539052 -0.501928
668.76171875 1.9448630000000002 1.429863 -0.515
669.0859375 2.009446 0.089861 -1.919585
669.32421875 3.0091330000000003 1.089548 -1.919585
669.90234375 1.277472 0.717472 -0.56
670.5546875 1.94136 1.488132 -0.453228
670.86328125 1.232916 0.114042 -1.118874
671.3515625 2.126191 1.581191 -0.545
672.07421875 1.572623 0.831336 -0.741287
672.94921875 1.468051 1.00343 -0.464621
673.96875 1.648094 1.366364 -0.28173
674.7109375 0.960206 0.714792 -0.245414
675.4765625 1.446751 0.525514 -0.921237
676.16796875 1.3256459999999999 0.638782 -0.686864
676.7109375 1.3030460000000001 0.644799 -0.658247
677.09375 1.805986 0.348244 -1.457742
677.453125 1.8897529999999998 0.419909 -1.469844
678.13671875 1.364792 0.545 -0.819792
678.640625 1.332261 0.85 -0.482261
679.5078125 1.097973 0.663545 -0.434428
680.26171875 1.4882039999999999 -0.131771 -1.619975
680.87890625 1.422107 0.039123 -1.382984
681.53515625 2.05417 0.262895 -1.791275
682.2421875 2.0161350000000002 0.762184 -1.253951
682.6953125 2.118223 0.714484 -1.403739
683.51953125 1.870775 0.339951 -1.530824
684.1015625 1.442737 -0.069611 -1.512348
684.4921875 1.592811 -0.430486 -2.023297
685.1875 1.4666059999999999 -0.043333 -1.509939
685.6015625 2.0364240000000002 0.272354 -1.76407
686.1640625 1.504438 0.525 -0.979438
686.7578125 1.684959 0.814811 -0.870148
687.47265625 1.389828 1.381316 -0.008512
687.81640625 2.677556 0.485839 -2.191717
688.046875 3.401717 1.21 -2.191717
688.63671875 1.059927 0.338644 -0.721283
689.25 1.452089 0.9 -0.552089
689.65625 1.414641 0.369641 -1.045
690.0703125 1.257925 0.577931 -0.679994
690.92578125 1.289296 0.209735 -1.079561
691.62109375 1.173142 -0.079606 -1.252748
692.01953125 1.5299070000000001 -0.240093 -1.77
692.66015625 1.4291120000000002 1.000474 -0.428638
693.0625 1.8705 1.323625 -0.546875
693.70703125 1.470106 0.702887 -0.767219
694.3203125 1.245629 0.708199 -0.53743
694.96875 1.7569 1.702 -0.0549
695.4375 1.93427 1.817045 -0.117225
695.87890625 1.752878 1.434066 -0.318812
696.40625 1.6425779999999999 1.148852 -0.493726
696.8125 1.550317 0.47733 -1.072987
697.18359375 1.428812 0.484823 -0.943989
697.69921875 1.555767 0.507695 -1.048072
698.12890625 1.576953 0.461498 -1.115455
698.51953125 1.58913 0.879839 -0.709291
699.09375 1.658245 0.99855 -0.659695
699.51953125 2.3494230000000003 0.024986 -2.324437
699.97265625 1.193899 0.5 -0.693899
700.6640625 1.97033 1.489823 -0.480507
701.19921875 2.178533 1.718558 -0.459975
701.609375 1.721016 1.171572 -0.549444
701.98046875 1.4646970000000001 0.77 -0.694697
702.640625 1.2100019999999998 0.630114 -0.579888
703.03515625 3.245009 0.395474 -2.849535
703.59765625 1.826123 0.831218 -0.994905
704.15234375 1.961169 1.092634 -0.868535
704.859375 1.277836 0.483207 -0.794629
705.50390625 1.3924690000000002 0.765394 -0.627075
705.87890625 1.566561 0.780239 -0.786322
706.25 1.7836400000000001 1.135 -0.64864
706.984375 1.845224 1.111299 -0.733925
707.8984375 1.301314 0.765537 -0.535777
708.3046875 2.080812 0.226571 -1.854241
709.078125 1.909181 1.309237 -0.599944
709.80078125 1.6535579999999999 1.078558 -0.575
710.234375 2.265908 0.010179 -2.255729
710.703125 2.5622629999999997 0.302195 -2.260068
710.98046875 3.340051 1.079983 -2.260068
711.3671875 1.327956 0.641367 -0.686589
712.03515625 1.805 0.975 -0.83
712.8515625 1.671291 0.724854 -0.946437
713.31640625 1.352002 0.637964 -0.714038
713.98046875 1.750211 1.205295 -0.544916
714.41796875 1.8250000000000002 0.35 -1.475
715.09765625 1.814813 1.209673 -0.60514
715.58203125 2.3120950000000002 0.04761 -2.264485
716.29296875 1.433404 0.578384 -0.85502
716.91015625 4.033264 1.415 -2.618264
717.515625 1.3736229999999998 0.051929 -1.321694
718.09765625 1.19596 0.306385 -0.889575
718.5234375 2.179659 -0.295341 -2.475
719.08984375 1.135681 0.651907 -0.483774
719.5390625 2.447835 0.337835 -2.11
720.234375 1.178184 0.993926 -0.184258
720.82421875 1.2708540000000002 1.205 -0.065854
721.39453125 1.3538540000000001 1.124892 -0.228962
721.79296875 1.392309 0.674549 -0.71776
722.32421875 1.474268 0.349268 -1.125
722.875 1.596578 0.855 -0.741578
723.3359375 2.077121 1.564768 -0.512353
723.859375 2.045215 1.665371 -0.379844
724.57421875 1.6672829999999998 1.119019 -0.548264
724.99609375 1.685389 0.915915 -0.769474
725.59765625 2.040759 1.075951 -0.964808
726.0234375 2.153636 1.178696 -0.97494
726.3984375 1.992642 0.980023 -1.012619
727.07421875 1.309912 0.396052 -0.91386
727.94140625 1.6452740000000001 0.97 -0.675274
728.375 0.269428 -0.185 -0.454428
729.0625 2.392134 1.645484 -0.74665
729.6484375 1.753104 1.142847 -0.610257
729.89453125 0.35136 0.024867 -0.326493
730.66796875 1.4092 0.685022 -0.724178
731.25 1.727647 1.15 -0.577647
731.9921875 1.752932 1.154685 -0.598247
732.61328125 1.493689 1.088813 -0.404876
733.3046875 1.191894 0.78 -0.411894
733.7265625 2.251304 0.545054 -1.70625
734.39453125 1.640937 1.105937 -0.535
734.94140625 1.818061 1.108061 -0.71
735.53515625 1.21204 0.10791 -1.10413
736.07421875 1.078157 0.608865 -0.469292
736.51171875 1.217332 0.533066 -0.684266
736.8671875 1.328303 0.333303 -0.995
737.2265625 1.11881 0.354138 -0.764672
737.53125 0.39671500000000004 0.05875 -0.337965
738.4765625 1.103326 0.424736 -0.67859
739.15234375 1.221164 0.682213 -0.538951
739.79296875 1.286262 1.010324 -0.275938
740.41015625 1.524771 1.09776 -0.427011
741.1328125 1.061107 0.684808 -0.376299
741.63671875 0.710899 0.841762 0.130863
742.046875 2.014582 0.219603 -1.794979
742.421875 0.09808900000000001 0.014616 -0.083473
743.1171875 1.284473 0.775 -0.509473
743.4296875 2.491968 0.159937 -2.332031
743.65625 3.616172 1.284141 -2.332031
744.1875 1.187329 0.542045 -0.645284
744.7734375 1.412654 0.92 -0.492654
745.5 1.3280880000000002 0.56 -0.768088
745.9140625 1.957039 0.924906 -1.032133
746.76171875 1.296902 0.596902 -0.7
747.47265625 1.211172 0.794863 -0.416309
747.91796875 2.669568 0.317004 -2.352564
748.48046875 1.389951 0.864951 -0.525
749.10546875 1.074783 0.544989 -0.529794
749.67578125 0.930833 0.336662 -0.594171
750.15625 1.044212 0.189621 -0.854591
750.77734375 1.34958 0.559692 -0.789888
751.08203125 0.350533 -0.076527 -0.42706
751.30859375 1.987551 1.224836 -0.762715
751.875 1.66625 1.35 -0.31625
752.2890625 2.164729 0.239944 -1.924785
752.5625 1.290655 0.750937 -0.539718
753.0859375 1.4090340000000001 0.56702 -0.842014
753.80859375 1.260775 0.634346 -0.626429
754.20703125 2.531784 0.015749 -2.516035
754.5078125 1.59429 0.484356 -1.109934
755.15625 1.2144 0.504803 -0.709597
755.58984375 2.360998 0.098116 -2.262882
756.14453125 1.233651 0.379987 -0.853664
756.9765625 1.347778 1.078033 -0.269745
757.7421875 1.630009 1.213303 -0.416706
758.19140625 2.148447 0.091582 -2.056865
758.41015625 2.546976 0.344598 -2.202378
758.67578125 3.194776 0.794827 -2.399949
759.0703125 1.684098 0.183327 -1.500771
760.9765625 1.232815 0.667681 -0.565134
761.2890625 2.309763 0.240583 -2.06918
761.984375 1.327956 0.835824 -0.492132
762.69140625 0.972561 0.278893 -0.693668
763.3203125 0.866589 0.358559 -0.50803
763.98046875 1.061061 0.644465 -0.416596
764.51953125 1.074071 0.264994 -0.809077
764.96484375 2.534225 0.079225 -2.455
765.55859375 1.5231190000000001 0.479627 -1.043492
765.9765625 0.787351 0.418341 -0.36901
766.3203125 1.863146 0.116014 -1.747132
767.08203125 1.587766 0.934914 -0.652852
767.453125 3.312411 0.55092 -2.761491
767.6875 4.941491 2.18 -2.761491
768.03515625 1.168123 0.105101 -1.063022
768.53515625 1.5040550000000001 0.819055 -0.685
769.1328125 1.523866 1.033866 -0.49
769.59375 1.451895 0.963594 -0.488301
770.125 1.5837409999999998 0.95 -0.633741
770.69921875 1.078854 0.384569 -0.694285
771.3125 1.1535469999999999 0.684348 -0.469199
771.9140625 1.806042 1.181042 -0.625
772.30078125 1.774381 0.888975 -0.885406
772.60546875 1.43187 0.375 -1.05687
772.9765625 1.242934 0.186101 -1.056833
773.609375 1.361204 0.631515 -0.729689
774.2734375 1.48745 0.743956 -0.743494
774.6796875 1.8522290000000001 0.234288 -1.617941
775.01953125 1.339906 0.594962 -0.744944
775.79296875 1.505066 0.773801 -0.731265
776.19140625 1.922222 0.864319 -1.057903
776.5078125 1.384735 0.632723 -0.752012
777.0390625 1.4947629999999998 0.924763 -0.57
777.5234375 1.722353 1.188345 -0.534008
778.15234375 1.9489779999999999 1.319046 -0.629932
778.90625 2.25 1.435 -0.815
779.5546875 1.767692 0.992692 -0.775
780.37109375 2.497818 1.838033 -0.659785
780.8828125 2.870482 2.122184 -0.748298
781.58203125 2.246712 1.387414 -0.859298
781.90625 1.8608410000000002 -0.129741 -1.990582
782.1875 2.259352 0.084114 -2.175238
782.58984375 1.06734 -0.0322 -1.09954
782.8125 2.074378 0.726333 -1.348045
783.24609375 1.5512899999999998 0.845579 -0.705711
783.88671875 1.8978920000000001 1.19992 -0.697972
784.37109375 2.097889 1.528853 -0.569036
784.74609375 1.27975 0.76475 -0.515
785.16015625 0.922723 0.547723 -0.375
785.6171875 1.398892 0.989028 -0.409864
786.30078125 1.559575 1.134575 -0.425
786.765625 1.7635800000000001 1.20483 -0.55875
787.38671875 1.882838 1.227647 -0.655191
787.81640625 1.9544519999999999 0.839452 -1.115
788.140625 1.571882 0.602263 -0.969619
788.515625 1.414576 0.872811 -0.541765
789.1875 1.6405469999999998 1.050547 -0.59
789.8125 1.8820450000000002 1.242045 -0.64
790.55078125 1.9645329999999999 1.354533 -0.61
791.28125 1.329373 0.85202 -0.477353
791.6875 1.920534 0.835 -1.085534
792.04296875 1.397422 0.932422 -0.465
792.5390625 1.895 1.32 -0.575
793.02734375 1.868888 1.319501 -0.549387
793.3984375 1.6952059999999998 1.11282 -0.582386
793.76171875 1.4322599999999999 0.828284 -0.603976
794.328125 1.0740669999999999 0.463743 -0.610324
794.734375 1.483921 0.796406 -0.687515
795.30078125 1.716113 1.185488 -0.530625
795.9765625 1.877025 1.285 -0.592025
796.2578125 1.768867 0.069275 -1.699592
796.6171875 0.5476380000000001 0.139594 -0.408044
797.2421875 1.233664 0.478745 -0.754919
797.6640625 2.264445 0.1205 -2.143945
797.890625 1.9117169999999999 0.214217 -1.6975
798.12109375 2.8250640000000002 1.127564 -1.6975
798.5625 1.85177 1.141797 -0.709973
799.49609375 1.960654 1.22 -0.740654
799.9453125 2.093292 -0.010616 -2.103908
800.84765625 1.684609 0.912711 -0.771898
801.31640625 1.9472559999999999 1.1696 -0.777656
802.05859375 1.825268 1.004507 -0.820761
802.66796875 1.854492 1.075123 -0.779369
802.99609375 2.2952250000000003 0.45722 -1.838005
803.76171875 1.536373 0.960498 -0.575875
804.19921875 1.7381790000000001 1.063376 -0.674803
804.75 1.9693200000000002 1.405 -0.56432
805.55078125 1.881267 1.357126 -0.524141
805.94921875 1.826517 1.078102 -0.748415
806.60546875 1.479472 0.949902 -0.52957
807.09765625 1.697774 1.238283 -0.459491
807.56640625 1.842863 1.279634 -0.563229
808.47265625 1.678128 1.12 -0.558128
808.9296875 2.018127 0.053233 -1.964894
809.55859375 1.6855349999999998 1.049254 -0.636281
810.41015625 1.9899369999999998 1.47027 -0.519667
810.99609375 2.123647 1.683647 -0.44
811.49609375 2.192373 1.626846 -0.565527
812.37890625 1.614997 0.960057 -0.65494
812.86328125 1.347166 0.857166 -0.49
813.20703125 1.417042 0.86 -0.557042
813.5 1.668482 0.83 -0.838482
813.90234375 1.945475 1.364862 -0.580613
814.6640625 1.763839 1.194828 -0.569011
814.9765625 2.007859 0.108953 -1.898906
815.21484375 3.223186 1.32428 -1.898906
815.578125 2.209706 1.549093 -0.660613
815.9140625 0.77472 0.444746 -0.329974
816.48828125 1.8817819999999998 1.177493 -0.704289
816.8125 1.50641 0.077372 -1.429038
817.2265625 1.9647620000000001 1.223505 -0.741257
818.16015625 2.08675 1.51175 -0.575
818.5078125 2.014791 0.245312 -1.769479
819.2265625 1.959105 1.33687 -0.622235
819.8203125 2.148856 1.603856 -0.545
820.55859375 2.1075340000000002 1.564116 -0.543418
820.96484375 2.0268100000000002 1.46681 -0.56
821.4921875 2.353938 1.634556 -0.719382
822.1875 2.175455 1.560455 -0.615
822.69140625 2.270525 1.69 -0.580525
823.07421875 1.9444469999999998 1.322857 -0.62159
823.42578125 1.815046 1.289421 -0.525625
823.76953125 1.8051620000000002 1.174994 -0.630168
824.5546875 2.0763160000000003 1.457211 -0.619105
824.95703125 1.9056899999999999 1.322647 -0.583043
825.26171875 1.9244280000000002 1.264428 -0.66
825.640625 1.596415 0.951772 -0.644643
826.23828125 1.382562 0.707562 -0.675
826.8203125 1.551011 0.941011 -0.61
827.55078125 1.435705 0.876979 -0.558726
828.26171875 1.616752 1.041956 -0.574796
828.92578125 1.4956369999999999 1.000637 -0.495
829.33203125 1.40396 0.81 -0.59396
829.671875 1.7557450000000001 0.957161 -0.798584
829.99609375 1.76492 0.718119 -1.046801
830.6796875 1.542082 0.650994 -0.891088
831.36328125 1.144399 0.73354 -0.410859
831.828125 1.3486829999999999 0.934542 -0.414141
832.26953125 1.374727 0.969952 -0.404775
832.85546875 1.358657 0.914817 -0.44384
833.66796875 1.498828 1.003828 -0.495
834.1015625 1.573448 1.010759 -0.562689
834.71484375 1.73992 1.072439 -0.667481
835.4453125 1.2688890000000002 0.795 -0.473889
836.0234375 1.628418 1.064927 -0.563491
836.48046875 1.724987 1.109987 -0.615
837.09375 1.53217 0.923003 -0.609167
837.4921875 1.7926950000000001 0.892941 -0.899754
837.84765625 2.054295 1.148921 -0.905374
838.0859375 1.0223529999999998 0.33438 -0.687973
838.58984375 1.480979 0.50266 -0.978319
839.2890625 1.7123110000000001 1.046683 -0.665628
839.69140625 1.9216630000000001 0.998934 -0.922729
840.0859375 1.649488 1.074918 -0.57457
840.703125 1.511371 0.823871 -0.6875
841.12109375 1.209216 0.383107 -0.826109
842.1328125 1.527441 1.052946 -0.474495
842.46875 3.135922 0.400922 -2.735
842.7109375 5.039975 2.304975 -2.735
843.1171875 1.32189 0.6503 -0.67159
844.07421875 1.568692 0.341808 -1.226884
845.0703125 1.4827940000000002 0.90751 -0.575284
845.81640625 1.404366 0.784366 -0.62
846.38671875 1.883276 1.343336 -0.53994
846.7734375 1.830089 1.244832 -0.585257
847.28515625 2.193774 1.588774 -0.605
847.65625 1.6622970000000001 1.062087 -0.60021
848.28125 1.625737 0.981429 -0.644308
849.265625 1.794653 1.264653 -0.53
849.95703125 1.8206060000000002 1.341204 -0.479402
850.75390625 1.7010169999999998 1.223048 -0.477969
851.69921875 1.2835809999999999 0.458581 -0.825
852.37109375 1.330956 0.904152 -0.426804
852.859375 1.441365 0.986489 -0.454876
853.6015625 1.6745519999999998 1.092755 -0.581797
854.02734375 2.5342800000000003 0.227914 -2.306366
854.859375 1.080803 0.458942 -0.621861
855.62109375 0.210032 -0.161364 -0.371396
856.703125 1.307754 0.563937 -0.743817
857.17578125 1.6672 0.692256 -0.974944
857.81640625 1.417341 0.767366 -0.649975
858.703125 1.418831 0.776797 -0.642034
859.63671875 1.399076 0.81474 -0.584336
860.65625 1.57581 0.988571 -0.587239
861.1015625 1.718286 1.234532 -0.483754
861.421875 0.25667599999999996 -0.052582 -0.309258
861.8203125 1.496613 0.437375 -1.059238
862.4609375 1.64932 0.954746 -0.694574
863.1875 1.755404 1.088667 -0.666737
864.03515625 1.609254 1.114254 -0.495
864.71484375 1.166145 0.76627 -0.399875
865.3671875 1.6795710000000001 1.186644 -0.492927
866.171875 2.1158289999999997 1.224119 -0.89171
866.73828125 1.664675 0.924843 -0.739832
867.31640625 1.1535069999999998 0.474769 -0.678738
867.8515625 1.470081 0.835628 -0.634453
868.38671875 1.5562909999999999 0.9268 -0.629491
869.1484375 1.4386009999999998 0.757898 -0.680703
869.484375 2.172946 -0.05146 -2.224406
869.73828125 2.658767 0.732741 -1.926026
870.21484375 1.669767 0.850186 -0.819581
870.58203125 1.423841 0.66384 -0.760001
871.1484375 1.8075350000000001 1.097899 -0.709636
871.9296875 1.4643700000000002 0.822531 -0.641839
872.55078125 1.1390630000000002 0.589063 -0.55
872.98828125 1.456866 0.898152 -0.558714
873.3515625 1.366535 0.683953 -0.682582
873.6640625 1.694868 0.719868 -0.975
874.00390625 1.2705359999999999 0.636083 -0.634453
874.51953125 1.339277 0.724979 -0.614298
875.23046875 1.272248 1.004874 -0.267374
875.89453125 1.6392859999999998 1.13 -0.509286
876.328125 1.437032 0.948639 -0.488393
876.91796875 1.586395 0.949851 -0.636544
877.50390625 1.206096 0.53104 -0.675056
877.87890625 1.556189 0.284151 -1.272038
878.1953125 1.744201 0.494303 -1.249898
878.50390625 1.6312039999999999 0.723089 -0.908115
879.10546875 1.472178 0.839644 -0.632534
879.453125 3.459277 0.484277 -2.975
879.66015625 4.828489 1.853489 -2.975
880.125 1.247925 0.435 -0.812925
880.76171875 1.592059 0.849142 -0.742917
881.1640625 1.718369 0.804401 -0.913968
881.88671875 1.798005 0.9281 -0.869905
882.56640625 1.642515 0.759214 -0.883301
883.0 1.8328670000000002 -0.335 -2.167867
883.37109375 1.4720550000000001 0.302372 -1.169683
883.80859375 1.783374 0.96 -0.823374
884.484375 1.713698 0.9879 -0.725798
885.12109375 0.23430399999999996 -0.34968 -0.583984
885.7109375 0.18677799999999994 -0.490022 -0.6768
886.12109375 1.661241 -0.097282 -1.758523
886.7265625 1.342929 0.128899 -1.21403
887.33203125 1.288531 0.178887 -1.109644
887.95703125 1.546204 0.451948 -1.094256
888.29296875 1.690478 0.345478 -1.345
889.07421875 1.422376 0.41243 -1.009946
889.765625 0.30793299999999996 0.008387 -0.299546
890.08203125 1.760972 0.61514 -1.145832
891.0390625 1.859841 1.149979 -0.709862
891.359375 2.908874 0.290506 -2.618368
891.58203125 5.0618549999999995 2.443487 -2.618368
892.2734375 1.702686 1.024171 -0.678515
892.83203125 1.481076 0.936907 -0.544169
893.515625 1.7331349999999999 1.114844 -0.618291
894.140625 1.9115579999999999 1.116447 -0.795111
894.53515625 1.464384 0.794384 -0.67
894.91015625 1.4586540000000001 0.708654 -0.75
895.28515625 1.529296 0.74644 -0.782856
895.67578125 1.62 0.815 -0.805
896.06640625 1.8538459999999999 0.914445 -0.939401
896.94921875 2.181871 1.495269 -0.686602
897.421875 3.564692 0.981166 -2.583526
897.875 2.024638 1.15 -0.874638
898.37109375 1.9573299999999998 1.36733 -0.59
898.83203125 2.0425690000000003 1.437569 -0.605
899.31640625 2.045864 1.434951 -0.610913
899.7109375 1.646195 0.969863 -0.676332
900.03125 1.733756 0.8521 -0.881656
900.7578125 1.474055 0.908724 -0.565331
901.48828125 1.4967290000000002 1.061827 -0.434902
901.94921875 1.04 0.64 -0.4
902.3125 1.261749 0.592396 -0.669353
902.8984375 1.277234 0.867797 -0.409437
903.55859375 1.329266 0.819266 -0.51
903.98046875 2.4717659999999997 2.131766 -0.34
904.64453125 4.479896999999999 1.764897 -2.715
904.875 4.029999999999999 1.315 -2.715
905.48046875 1.243412 0.059992 -1.18342
907.5703125 4.715203 2.366074 -2.349129
908.1484375 3.40284 1.23 -2.17284
908.8125 1.553335 -0.031346 -1.584681
909.46484375 1.282234 0.159847 -1.122387
910.1328125 0.343355 -0.325927 -0.669282
910.53515625 1.30599 0.710589 -0.595401
910.94140625 1.23841 0.769949 -0.468461
911.5546875 1.229467 0.844467 -0.385
912.10546875 1.5597990000000002 1.134988 -0.424811
912.97265625 1.4444810000000001 0.957358 -0.487123
913.6484375 1.207563 0.883953 -0.32361
914.3515625 1.3028460000000002 0.83398 -0.468866
914.72265625 2.413083 2.334638 -0.078445
915.0859375 3.104912 1.599944 -1.504968
915.51171875 3.2451119999999998 1.875138 -1.369974
915.91015625 2.56526 0.844344 -1.720916
916.2421875 1.7723879999999999 -0.021862 -1.79425
916.70703125 1.9245560000000002 -0.857664 -2.78222
916.9453125 1.5353780000000001 -0.67876 -2.214138
917.96875 1.45825 0.15325 -1.305
918.5859375 1.08932 0.449563 -0.639757
919.35546875 1.129817 0.539906 -0.589911
920.0703125 0.19529599999999997 -0.270542 -0.465838
920.58203125 1.135736 0.511852 -0.623884
921.08984375 1.16058 0.646828 -0.513752
921.5859375 1.16945 0.70945 -0.46
921.94921875 1.2173159999999998 0.45602 -0.761296
922.54296875 1.109328 0.414906 -0.694422
923.203125 1.393621 -0.11717 -1.510791
923.953125 1.069553 0.58855 -0.481003
924.3046875 2.362756 0.32848 -2.034276
924.57421875 2.376496 0.826923 -1.549573
925.07421875 0.894571 0.334095 -0.560476
925.4609375 1.338417 0.239837 -1.09858
926.01171875 1.2707570000000001 0.881757 -0.389
926.84375 1.606283 1.083942 -0.522341
927.2421875 1.35846 0.724085 -0.634375
927.57421875 0.9788600000000001 0.355001 -0.623859
928.3046875 1.439954 0.920005 -0.519949
929.04296875 1.68222 1.111307 -0.570913
929.7890625 1.472178 0.849921 -0.622257
930.21484375 1.153132 0.458431 -0.694701
930.95703125 1.253212 0.784438 -0.468774
931.67578125 1.592219 1.075 -0.517219
932.125 1.779944 1.195 -0.584944
932.60546875 1.5873270000000002 0.869901 -0.717426
933.3125 0.931467 0.363036 -0.568431
933.83203125 1.542318 1.089701 -0.452617
934.18359375 1.213373 0.744949 -0.468424
934.83203125 1.658098 1.108098 -0.55
935.23046875 2.9160920000000004 0.21993 -2.696162
935.44921875 4.401162 1.705 -2.696162
935.875 1.059872 0.39 -0.669872
936.58984375 1.22733 0.65858 -0.56875
937.40234375 1.639039 0.899852 -0.739187
938.015625 1.600299 0.885299 -0.715
938.7578125 1.122782 0.714401 -0.408381
939.72265625 1.504198 1.254692 -0.249506
940.3359375 1.7784739999999999 1.380569 -0.397905
940.88671875 1.496726 0.906726 -0.59
941.6171875 1.05017 0.476245 -0.573925
942.6328125 1.495285 0.948517 -0.546768
943.30859375 1.740967 1.149545 -0.591422
944.14453125 1.259358 0.561017 -0.698341
944.6171875 1.8060490000000002 -0.42 -2.226049
944.9296875 1.6887299999999998 -0.19127 -1.88
945.265625 1.803642 0.963642 -0.84
945.578125 1.4642849999999998 0.757161 -0.707124
946.18359375 1.684667 1.214681 -0.469986
946.5625 2.657212 0.38725 -2.269962
947.41015625 1.112698 0.7763 -0.336398
948.359375 1.672028 1.245361 -0.426667
949.14453125 1.6098819999999998 1.119994 -0.489888
949.9765625 0.950509 0.518016 -0.432493
950.78125 1.504407 1.084276 -0.420131
951.37890625 1.723717 1.239105 -0.484612
952.01171875 1.563615 0.978615 -0.585
952.44140625 1.208464 0.608496 -0.599968
953.09765625 1.3028659999999999 0.801366 -0.5015
953.6484375 1.821515 1.355265 -0.46625
954.484375 1.713454 1.199077 -0.514377
955.24609375 1.362429 0.768789 -0.59364
955.84765625 1.215581 0.722213 -0.493368
956.23828125 1.299092 0.744002 -0.55509
956.5859375 1.3241049999999999 0.85 -0.474105
956.96875 1.549583 1.095 -0.454583
957.6015625 1.437805 0.892104 -0.545701
958.0625 1.264321 0.787187 -0.477134
958.6953125 1.278921 0.858921 -0.42
959.6953125 1.847381 1.294683 -0.552698
960.5 1.559482 1.04 -0.519482
961.015625 1.157368 0.72 -0.437368
961.84765625 1.430192 1.074536 -0.355656
962.609375 1.674435 1.250605 -0.42383
963.5625 1.433967 0.959348 -0.474619
964.15625 1.067281 0.692281 -0.375
964.578125 1.137679 0.812853 -0.324826
964.91796875 1.11971 0.74471 -0.375
965.2734375 1.341348 0.78709 -0.554258
965.66796875 1.291148 0.787476 -0.503672
966.45703125 1.378147 0.904716 -0.473431
966.85546875 2.8346009999999997 0.444937 -2.389664
967.08984375 4.243297999999999 1.853634 -2.389664
967.51953125 1.7299509999999998 1.099951 -0.63
967.83203125 1.3232970000000002 -0.006703 -1.33
969.19921875 1.543002 1.15532 -0.387682
969.80859375 1.6733280000000001 1.198965 -0.474363
970.4453125 1.81586 1.332672 -0.483188
971.24609375 1.671236 1.144962 -0.526274
971.88671875 1.4500000000000002 1.1 -0.35
972.7421875 1.575641 1.215892 -0.359749
973.36328125 1.810425 1.363758 -0.446667
973.765625 1.426318 1.001406 -0.424912
974.0703125 1.48705 0.882356 -0.604694
974.75 1.467927 0.86 -0.607927
975.109375 2.6842379999999997 0.388457 -2.295781
975.32421875 4.065272 1.769491 -2.295781
975.73828125 1.683272 1.118583 -0.564689
976.40625 1.6958989999999998 1.194281 -0.501618
977.41015625 1.665902 1.173636 -0.492266
978.24609375 1.597712 1.14893 -0.448782
978.7890625 1.8143630000000002 1.384943 -0.42942
979.72265625 1.844031 1.315 -0.529031
980.58984375 1.216946 0.782984 -0.433962
981.42578125 1.524084 1.119084 -0.405
981.9765625 1.653935 1.248935 -0.405
982.73828125 1.609766 1.22 -0.389766
983.59375 1.689486 1.219654 -0.469832
984.3828125 1.4373770000000001 1.028089 -0.409288
985.078125 1.58414 1.129308 -0.454832
985.7890625 1.164647 0.804647 -0.36
986.66015625 1.499736 1.15 -0.349736
987.41796875 1.616812 1.261847 -0.354965
988.0546875 1.818913 1.357523 -0.46139
988.421875 1.6397620000000002 1.01973 -0.620032
989.2734375 1.651823 1.198379 -0.453444
989.65234375 1.567603 -0.002397 -1.57
989.95703125 1.7853189999999999 0.462057 -1.323262
990.26171875 0.303167 0.432234 0.129067
990.78515625 1.638471 1.099323 -0.539148
991.53515625 1.7026240000000001 1.207624 -0.495
992.5703125 1.78448 1.30448 -0.48
993.76171875 1.728495 1.233669 -0.494826
994.10546875 1.477593 0.05486 -1.422733
994.37109375 2.5207319999999998 1.097999 -1.422733
995.44140625 1.666367 1.028732 -0.637635
996.0859375 1.56244 1.071074 -0.491366
996.48046875 1.244432 0.700275 -0.544157
996.85546875 1.255 0.68 -0.575
997.77734375 1.889465 1.215 -0.674465
998.18359375 3.144078 0.544085 -2.599993
998.40234375 4.40469 1.804697 -2.599993
999.109375 1.435197 0.765908 -0.669289
999.8046875 1.717559 1.147559 -0.57
1000.87890625 1.8043529999999999 1.260719 -0.543634
1001.5390625 1.764134 1.240571 -0.523563
1001.91796875 1.41906 0.708033 -0.711027
1002.8515625 1.544909 1.068966 -0.475943
1003.6640625 1.729563 1.234978 -0.494585
1004.6328125 1.664395 1.099458 -0.564937
1005.25390625 1.380976 0.821601 -0.559375
1005.890625 1.643641 1.093127 -0.550514
1006.60546875 1.7037010000000001 1.184871 -0.51883
1007.0703125 1.7925659999999999 1.182566 -0.61
1007.70703125 1.282422 0.697422 -0.585
1008.37109375 1.432364 0.944093 -0.488271
1008.8203125 1.029627 -0.193752 -1.223379
1009.53515625 2.079344 1.449344 -0.63
1009.94921875 1.397038 0.847296 -0.549742
1010.3515625 1.7320769999999999 1.18418 -0.547897
1010.66796875 1.322678 0.651926 -0.670752
1011.0234375 1.116057 0.638303 -0.477754
1011.55078125 1.548118 1.073118 -0.475
1012.08203125 1.857957 1.37 -0.487957
1012.50390625 1.627695 1.108445 -0.51925
1013.17578125 1.801914 1.134438 -0.667476
1013.6796875 1.437211 0.897211 -0.54
1014.44921875 1.2743799999999998 0.849571 -0.424809
1015.0078125 1.7595669999999999 1.349567 -0.41
1015.953125 1.797037 1.308835 -0.488202
1016.3515625 2.587667 0.31848 -2.269187
1016.578125 3.520199 1.251012 -2.269187
1017.32421875 1.262631 0.757476 -0.505155
1017.96875 1.417426 1.127426 -0.29
1018.55078125 1.6190039999999999 1.304004 -0.315
1019.54296875 1.6185420000000001 1.189926 -0.428616
1020.328125 1.072838 0.744034 -0.328804
1020.7265625 1.639861 0.440918 -1.198943
1021.0625 1.356708 0.969048 -0.38766
1021.515625 1.673614 1.288301 -0.385313
1022.1953125 1.720266 1.260266 -0.46
1022.6640625 1.63831 1.154615 -0.483695
1023.1484375 1.2750000000000001 0.81 -0.465
1023.58203125 1.37384 0.78384 -0.59
1024.53515625 1.752324 1.362624 -0.3897
1024.90234375 3.7329190000000003 1.285238 -2.447681
1025.1328125 4.222681 1.775 -2.447681
1025.59765625 1.444355 0.924355 -0.52
1026.9609375 1.7245620000000002 1.364589 -0.359973
1028.91796875 1.6473069999999999 1.244206 -0.403101
1029.38671875 0.229968 0.09 -0.139968
1029.890625 1.248686 0.673686 -0.575
1030.2890625 1.153602 0.369943 -0.783659
1030.9609375 1.6697799999999998 1.244848 -0.424932
1031.46875 1.8978599999999999 1.478535 -0.419325
1032.140625 1.791139 1.292754 -0.498385
1032.72265625 2.3295690000000002 1.668875 -0.660694
1033.1484375 1.541439 0.888144 -0.653295
1033.5234375 1.350967 0.524941 -0.826026
1034.16015625 1.700545 0.956907 -0.743638
1034.49609375 1.522566 0.005468 -1.517098
1035.53515625 1.231485 0.736258 -0.495227
1035.91015625 2.8636209999999997 0.416337 -2.447284
1036.14453125 4.512178 2.064894 -2.447284
1036.4296875 2.027373 1.371626 -0.655747
1036.90234375 2.010491 1.426399 -0.584092
1037.91015625 1.578816 0.850344 -0.728472
1038.296875 2.9434810000000002 0.28851 -2.654971
1038.8125 2.187198 1.377813 -0.809385
1039.19140625 1.7096 1.158957 -0.550643
1039.57421875 1.948261 1.233245 -0.715016
1040.5859375 1.8489550000000001 1.154973 -0.693982
1040.9375 3.332293 0.732949 -2.599344
1041.16796875 4.291748999999999 1.692405 -2.599344
1042.06640625 2.233064 1.379949 -0.853115
1043.16015625 2.131641 1.344507 -0.787134
1044.5625 1.699048 1.194048 -0.505
1045.48828125 1.91905 1.27473 -0.64432
1046.1796875 2.070388 1.405 -0.665388
1047.06640625 1.593288 0.909753 -0.683535
1047.81640625 1.681622 1.109487 -0.572135
1048.24609375 1.04938 -0.193106 -1.242486
1048.77734375 2.0754770000000002 1.409864 -0.665613
1049.51171875 2.139863 1.51 -0.629863
1050.16796875 2.100158 1.442378 -0.65778
1051.21875 1.755247 1.185 -0.570247
1051.62109375 1.553195 0.128638 -1.424557
1052.0 1.082407 0.155 -0.927407
1052.70703125 2.0750830000000002 1.436004 -0.639079
1053.33984375 2.17536 1.579507 -0.595853
1054.02734375 1.644292 1.054292 -0.59
1054.34765625 1.217239 0.07752 -1.139719
1054.578125 1.639336 0.499617 -1.139719
1055.07421875 2.0661810000000003 1.518215 -0.547966
1055.77734375 2.138617 1.62384 -0.514777
1056.47265625 2.168115 1.694664 -0.473451
1056.890625 1.641241 1.146253 -0.494988
1058.08203125 2.205022 1.665022 -0.54
1058.4609375 2.891007 0.499742 -2.391265
1059.26171875 1.798878 1.256726 -0.542152
1059.9609375 2.003989 1.634669 -0.36932
1060.578125 2.250656 1.804438 -0.446218
1061.0 1.8049730000000002 1.37 -0.434973
1061.796875 2.17821 1.731076 -0.447134
1062.640625 2.19519 1.800569 -0.394621
1063.52734375 2.068611 1.658611 -0.41
1064.6640625 2.039714 1.679714 -0.36
1065.17578125 2.284511 1.954511 -0.33
1065.54296875 1.740454 1.360687 -0.379767
1066.18359375 2.1171860000000002 1.562186 -0.555
1066.515625 1.676379 0.25 -1.426379
1067.54296875 2.109354 1.574354 -0.535
1067.9375 2.965948 0.280948 -2.685
1068.20703125 4.84133 2.15633 -2.685
1068.74609375 2.0591410000000003 1.344197 -0.714944
1069.59375 2.086391 1.481532 -0.604859
1070.05078125 1.2289080000000001 0.272346 -0.956562
1070.3828125 1.308946 0.509068 -0.799878
1071.0078125 1.7678449999999999 1.137986 -0.629859
1072.0703125 2.123693 1.543693 -0.58
1072.44921875 1.3429250000000001 -0.055 -1.397925
1072.6796875 2.1090850000000003 0.71116 -1.397925
1073.1484375 2.045648 1.475648 -0.57
1073.890625 2.118403 1.508403 -0.61
1074.66015625 2.189039 1.526179 -0.66286
1075.02734375 1.4190989999999999 -1.43E-4 -1.419242
1075.40234375 1.455906 0.23 -1.225906
1075.72265625 1.6431149999999999 0.278115 -1.365
1076.0390625 2.199973 0.834973 -1.365
1076.92578125 2.135674 1.526597 -0.609077
1077.234375 1.748003 0.1732 -1.574803
1077.48828125 2.479501 0.904698 -1.574803
1078.18359375 2.318096 1.645839 -0.672257
1078.65625 3.408435 0.658435 -2.75
1079.39453125 2.109986 1.449986 -0.66
1080.31640625 2.229813 1.634813 -0.595
1081.359375 2.262796 1.682435 -0.580361
1082.44140625 2.059634 1.355817 -0.703817
1083.15234375 1.381137 0.89618 -0.484957
1083.7734375 1.767661 1.343326 -0.424335
1084.07421875 1.632072 0.179047 -1.453025
1084.44140625 1.614038 0.184952 -1.429086
1084.703125 2.5139810000000002 1.084895 -1.429086
1085.52734375 2.199148 1.52 -0.679148
1085.9296875 3.055858 0.28588 -2.769978
1086.171875 4.939483 2.169505 -2.769978
1087.0390625 2.134569 1.449893 -0.684676
1087.92578125 2.150652 1.548338 -0.602314
1088.875 1.7842540000000002 1.235 -0.549254
1089.3984375 2.104986 1.64 -0.464986
1089.9296875 2.240694 1.679781 -0.560913
1090.22265625 1.488684 0.089003 -1.399681
1091.00390625 2.2041399999999998 1.473088 -0.731052
1091.66796875 1.951266 1.286266 -0.665
1092.4140625 1.33988 0.83988 -0.5
1092.78515625 1.490958 -0.042244 -1.533202
1093.69140625 1.9830320000000001 1.444282 -0.53875
1094.171875 2.383262 1.754615 -0.628647
1094.82421875 2.192966 1.603004 -0.589962
1095.47265625 1.623201 1.039868 -0.583333
1095.85546875 1.571788 0.789631 -0.782157
1096.39453125 2.101378 1.489994 -0.611384
1097.1640625 2.202598 1.63475 -0.567848
1097.73828125 2.528009 1.933486 -0.594523
1098.4609375 1.581054 0.916054 -0.665
1099.40625 1.9926249999999999 1.412105 -0.58052
1100.078125 2.255669 1.659583 -0.596086
1100.51953125 1.004155 -0.225 -1.229155
1101.46484375 1.5123229999999999 0.791623 -0.7207
1102.28125 1.8342969999999998 1.289297 -0.545
1102.70703125 1.284068 0.099136 -1.184932
1103.68359375 2.214125 1.554145 -0.65998
1104.55859375 1.6595959999999998 1.064612 -0.594984
1105.46484375 1.7728949999999999 1.342895 -0.43
1106.4140625 2.1777699999999998 1.664891 -0.512879
1106.89453125 2.304945 1.734994 -0.569951
1107.7265625 1.6726429999999999 1.052643 -0.62
1108.40625 1.646727 1.127879 -0.518848
1109.21484375 2.108368 1.585 -0.523368
1109.96875 2.244343 1.712676 -0.531667
1110.7578125 1.61125 1.08 -0.53125
1111.234375 1.355552 0.817042 -0.53851
1112.0390625 1.934914 1.494914 -0.44
1112.578125 2.357571 1.904326 -0.453245
1113.10546875 2.344907 1.840278 -0.504629
1113.6328125 1.889642 1.364783 -0.524859
1113.99609375 1.402684 0.729908 -0.672776
1114.53515625 1.5527730000000002 1.097773 -0.455
1115.37890625 2.080212 1.577993 -0.502219
1116.0234375 3.1255240000000004 0.631918 -2.493606
1116.25 3.683606 1.19 -2.493606
1116.828125 1.605875 1.035 -0.570875
1117.42578125 1.5830980000000001 1.174075 -0.409023
1118.5 2.16425 1.665 -0.49925
1119.40234375 1.880605 1.369112 -0.511493
1119.94140625 1.500845 1.110845 -0.39
1120.30078125 1.472936 1.053444 -0.419492
1120.703125 1.699182 1.349182 -0.35
1121.31640625 2.160764 1.704092 -0.456672
1121.64453125 1.7415669999999999 0.345 -1.396567
1122.0546875 1.333424 0.658793 -0.674631
1122.43359375 1.621959 1.081507 -0.540452
1123.19140625 1.79269 1.354185 -0.438505
1123.890625 2.272066 1.712884 -0.559182
1124.51953125 2.339967 1.759967 -0.58
1124.921875 1.7928419999999998 1.176076 -0.616766
1125.66796875 1.574504 1.006479 -0.568025
1126.14453125 1.085215 -0.114725 -1.19994
1126.6796875 1.075868 0.289502 -0.786366
1127.12890625 2.239483 1.444809 -0.794674
1127.65234375 1.8735629999999999 1.204866 -0.668697
1128.0625 1.646792 0.937877 -0.708915
1129.09375 2.285868 1.627113 -0.658755
1129.484375 3.172355 0.629312 -2.543043
1130.359375 2.317821 1.660877 -0.656944
1131.09765625 2.013702 1.478001 -0.535701
1131.72265625 2.1614579999999997 1.287826 -0.873632
1132.3671875 2.6547970000000003 1.988253 -0.666544
1133.22265625 2.258471 1.613964 -0.644507
1134.07421875 2.087548 1.647773 -0.439775
1134.6875 2.5807569999999997 2.042105 -0.538652
1135.21484375 2.277538 1.694797 -0.582741
1135.78515625 2.4048469999999997 1.824361 -0.580486
1136.16015625 1.488813 0.726697 -0.762116
1136.48046875 1.901921 1.264923 -0.636998
1136.81640625 2.124807 1.59495 -0.529857
1137.20703125 2.2670500000000002 1.736847 -0.530203
1137.52734375 1.511378 1.103107 -0.408271
1138.25390625 2.244475 1.582303 -0.662172
1138.58203125 2.828502 0.197284 -2.631218
1139.0703125 1.5368119999999998 0.717128 -0.819684
1139.41015625 1.284026 0.60014 -0.683886
1140.15625 1.9710560000000001 1.439658 -0.531398
1140.67578125 3.3220479999999997 0.866135 -2.455913
1141.54296875 2.186956 1.48834 -0.698616
1141.93359375 2.549077 -0.01 -2.559077
1142.5859375 2.1809819999999998 1.459863 -0.721119
1143.2421875 2.296631 1.667426 -0.629205
1144.05078125 2.241119 1.604557 -0.636562
1144.8046875 1.8066140000000002 1.225 -0.581614
1145.87890625 2.062755 1.573107 -0.489648
1146.63671875 2.191033 1.672017 -0.519016
1147.0390625 1.7874980000000003 1.239977 -0.547521
1147.91796875 2.183576 1.566771 -0.616805
1148.390625 0.939471 -0.251908 -1.191379
1148.86328125 1.6681460000000001 0.413445 -1.254701
1149.76953125 2.1069649999999998 1.404974 -0.701991
1150.24609375 3.437545 0.707545 -2.73
1151.5703125 2.18383 1.509303 -0.674527
1151.9765625 3.1388 0.399659 -2.739141
1152.23828125 4.791135000000001 2.051994 -2.739141
1152.625 1.874689 1.08 -0.794689
1153.078125 1.603679 -0.156321 -1.76
1153.453125 1.2595699999999999 -0.27543 -1.535
1154.01171875 1.4255 0.106038 -1.319462
1154.26171875 2.150743 0.831281 -1.319462
1155.00390625 2.220942 1.461018 -0.759924
1155.3828125 3.211542 0.530382 -2.68116
1155.60546875 4.751114 2.069954 -2.68116
1155.94921875 2.333956 1.538956 -0.795
1156.49609375 2.370775 1.580719 -0.790056
1156.859375 1.818303 1.133859 -0.684444
1157.3125 2.409172 1.6207 -0.788472
1158.02734375 1.672593 0.936375 -0.736218
1158.34375 1.639365 -0.190592 -1.829957
1158.66796875 1.699404 0.277604 -1.4218
1159.38671875 2.194381 1.431781 -0.7626
1160.23046875 2.244675 1.509816 -0.734859
1160.796875 2.381159 0.212141 -2.169018
1161.9453125 2.138064 1.438851 -0.699213
1162.43359375 3.462893 0.694732 -2.768161
1163.296875 2.43267 1.214914 -1.217756
1163.78515625 1.7065800000000002 0.235761 -1.470819
1165.00390625 2.44874 1.196119 -1.252621
1165.6875 2.619947 1.69 -0.929947
1166.33203125 2.64691 1.64915 -0.99776
1166.59765625 1.683703 0.138262 -1.545441
1167.42578125 1.661593 1.081849 -0.579744
1167.99609375 1.6113119999999999 1.107082 -0.50423
1168.6171875 2.088431 1.458431 -0.63
1169.4765625 2.120495 1.440663 -0.679832
1169.95703125 1.986024 1.307564 -0.67846
1170.3203125 1.649156 0.910919 -0.738237
1171.18359375 1.8349449999999998 1.135824 -0.699121
1171.89453125 2.174902 1.409943 -0.764959
1172.6015625 2.044251 1.364562 -0.679689
1173.30859375 2.022326 1.304536 -0.71779
1173.7578125 1.66124 -0.223713 -1.884953
1174.28515625 1.784164 1.104892 -0.679272
1174.9296875 2.172415 1.472415 -0.7
1175.80078125 2.068581 1.258581 -0.81
1176.1640625 1.756264 -0.18 -1.936264
1176.98828125 1.667288 0.982288 -0.685
1177.98828125 1.9204670000000001 1.243359 -0.677108
1178.73046875 1.4298760000000001 0.86994 -0.559936
1179.39453125 1.89993 1.30993 -0.59
1179.83203125 1.752378 1.117378 -0.635
1180.35546875 2.191644 1.48494 -0.706704
1181.18359375 1.294206 0.699206 -0.595
1182.21875 1.830357 1.29207 -0.538287
1182.76953125 2.2058739999999997 1.614858 -0.591016
1183.359375 2.112285 1.403203 -0.709082
1183.76953125 1.511518 -0.09 -1.601518
1184.1015625 1.554544 0.100023 -1.454521
1184.48828125 0.9993829999999999 0.397773 -0.60161
1185.25 1.674141 1.11 -0.564141
1185.74609375 2.061267 1.438142 -0.623125
1186.6015625 2.116324 1.49418 -0.622144
1187.34375 1.6637979999999999 1.115508 -0.54829
1188.03125 1.345 0.855 -0.49
1188.62890625 1.9531870000000002 1.374011 -0.579176
1189.23828125 2.083343 1.446765 -0.636578
1189.66015625 1.021382 0.202707 -0.818675
1190.00390625 1.909401 1.179513 -0.729888
1190.40625 1.558781 0.833781 -0.725
1190.76953125 1.339747 0.394657 -0.94509
1191.2265625 1.6348129999999998 0.946375 -0.688438
1191.76171875 2.029375 1.42 -0.609375
1192.53515625 2.157906 1.482906 -0.675
1193.3359375 1.6119599999999998 1.099729 -0.512231
1194.015625 1.4773010000000002 1.062326 -0.414975
1194.54296875 1.874202 1.432937 -0.441265
1195.41796875 2.134791 1.525575 -0.609216
1196.18359375 1.672332 1.042625 -0.629707
1196.59375 1.269735 0.625259 -0.644476
1197.45703125 2.003974 1.319576 -0.684398
1198.05859375 2.102403 1.474249 -0.628154
1198.4609375 1.733755 1.06 -0.673755
1198.81640625 1.8393099999999998 1.151595 -0.687715
1199.55859375 1.429538 0.834557 -0.594981
1200.03125 2.05114 0.152821 -1.898319
1200.91015625 1.811645 1.242729 -0.568916
1201.7421875 2.029458 1.509458 -0.52
1202.46484375 1.307691 0.872691 -0.435
1202.9140625 1.6513829999999998 0.010514 -1.640869
1203.1640625 1.464809 0.230573 -1.234236
1203.53515625 0.42207700000000004 0.125885 -0.296192
1204.20703125 1.9481799999999998 1.37818 -0.57
1204.9453125 1.3713389999999999 0.833162 -0.538177
1205.46484375 1.312533 0.912754 -0.399779
1206.05859375 1.748111 1.279749 -0.468362
1206.5234375 1.549941 1.079941 -0.47
1207.10546875 1.8498100000000002 1.424962 -0.424848
1207.78125 2.055721 1.437113 -0.618608
1208.5625 2.349009 1.564038 -0.784971
1209.1015625 2.034747 1.462202 -0.572545
1209.734375 1.342058 0.888418 -0.45364
1210.484375 1.92951 1.5 -0.42951
1211.08203125 2.130146 1.721498 -0.408648
1211.8203125 2.04765 1.467375 -0.580275
1212.77734375 1.578384 1.003207 -0.575177
1213.2890625 1.199324 0.009918 -1.189406
1213.69921875 0.43856999999999996 0.378277 -0.060293
1214.1875 2.018332 1.474688 -0.543644
1214.84765625 1.993925 1.49 -0.503925
1215.1640625 1.6466509999999999 0.214678 -1.431973
1215.515625 1.498248 0.198513 -1.299735
1216.0 1.890056 1.36 -0.530056
1216.3671875 1.5190430000000001 1.081309 -0.437734
1216.7421875 1.8521130000000001 1.304545 -0.547568
1217.12890625 2.026111 1.409086 -0.617025
1217.87109375 2.129665 1.474197 -0.655468
1218.26171875 2.7152149999999997 0.139719 -2.575496
1218.515625 4.770496 2.195 -2.575496
1218.890625 2.027884 1.302884 -0.725
1219.58203125 2.111477 1.477727 -0.63375
1220.09765625 2.435148 1.792358 -0.64279
1220.4765625 2.035 1.385 -0.65
1221.40625 2.283529 1.634621 -0.648908
1221.765625 2.845804 0.282676 -2.563128
1222.46875 2.260225 1.50418 -0.756045
1223.17578125 2.254997 1.576896 -0.678101
1224.02734375 2.196145 1.584707 -0.611438
1224.69140625 2.342661 1.729813 -0.612848
1225.29296875 2.2428559999999997 1.678804 -0.564052
1226.1640625 1.693037 1.158729 -0.534308
1227.0078125 2.1743360000000003 1.654805 -0.519531
1227.765625 2.074096 1.618387 -0.455709
1228.30859375 2.2425610000000002 1.73967 -0.502891
1229.10546875 2.050249 1.495249 -0.555
1230.04296875 2.188804 1.568804 -0.62
1230.85546875 2.0208329999999997 1.515 -0.505833
1231.69921875 1.983761 1.521697 -0.462064
1232.0625 1.342994 0.306923 -1.036071
1232.48828125 1.553181 0.948181 -0.605
1233.453125 2.033958 1.369704 -0.664254
1233.8046875 2.706717 0.048184 -2.658533
1234.3125 2.2607 1.4307 -0.83
1234.7890625 1.9948259999999998 1.269826 -0.725
1235.51171875 2.208944 1.481725 -0.727219
1236.671875 2.160722 1.518156 -0.642566
1237.8359375 2.0909 1.426074 -0.664826
1238.65234375 2.138641 1.543641 -0.595
1239.48046875 2.1637120000000003 1.564896 -0.598816
1240.21875 2.154521 1.580833 -0.573688
1240.92578125 2.202376 1.512376 -0.69
1241.65625 2.073281 1.435 -0.638281
1242.171875 2.14808 1.445 -0.70308
1242.56640625 1.582576 0.858679 -0.723897
1242.9453125 1.400451 0.764365 -0.636086
1244.06640625 2.2697659999999997 1.424766 -0.845
1244.453125 2.85391 0.279899 -2.574011
1245.47265625 2.157876 1.372876 -0.785
1246.08984375 2.371359 1.712652 -0.658707
1247.0625 2.123889 1.468889 -0.655
1247.82421875 2.130457 1.511604 -0.618853
1248.2421875 1.843552 1.153161 -0.690391
1249.0859375 2.008044 1.399854 -0.60819
1249.9609375 2.151126 1.566463 -0.584663
1250.7109375 2.129925 1.644746 -0.485179
1251.44140625 2.199141 1.70416 -0.494981
1252.22265625 1.896703 1.417116 -0.479587
1253.00390625 1.75 1.315 -0.435
1253.421875 1.933303 1.36 -0.573303
1253.77734375 1.840534 1.219144 -0.62139
1254.4765625 2.195328 1.49822 -0.697108
1254.93359375 2.189292 1.384448 -0.804844
1255.67578125 2.036705 1.383925 -0.65278
1256.58984375 1.687471 1.122471 -0.565
1257.2734375 2.298273 1.721437 -0.576836
1257.66015625 1.956766 1.296766 -0.66
1258.66015625 2.1929100000000004 1.53791 -0.655
1259.07421875 2.80978 0.286245 -2.523535
1259.33984375 4.440802 1.917267 -2.523535
1259.98828125 1.469844 0.825 -0.644844
1260.65625 2.181612 1.766768 -0.414844
1261.3046875 2.107223 1.716828 -0.390395
1262.44140625 2.12043 1.475 -0.64543
1263.453125 1.4929830000000002 0.759915 -0.733068
1263.9921875 1.7926149999999998 1.048045 -0.74457
1264.34375 1.688133 0.936973 -0.75116
1264.96484375 2.140819 1.411258 -0.729561
1265.609375 2.221523 1.569453 -0.65207
1266.203125 2.373634 1.708693 -0.664941
1266.63671875 1.630877 0.966405 -0.664472
1267.4296875 1.228399 0.588889 -0.63951
1268.0234375 0.9565870000000001 0.406587 -0.55
1268.70703125 1.5592679999999999 1.075 -0.484268
1269.15234375 0.15761 -0.065336 -0.222946
1269.55859375 2.0946290000000003 0.859629 -1.235
1269.765625 2.024594 1.515 -0.509594
1270.05078125 1.451044 0.874245 -0.576799
1270.421875 1.992686 1.314712 -0.677974
1270.7421875 1.841875 1.14 -0.701875
1271.453125 1.848922 1.047056 -0.801866
1272.07421875 1.7644449999999998 0.918804 -0.845641
1272.7265625 2.220209 1.616355 -0.603854
1273.18359375 2.288236 1.519714 -0.768522
1273.51953125 2.074259 1.479994 -0.594265
1273.83203125 1.9182169999999998 1.159179 -0.759038
1274.17578125 2.121026 1.374462 -0.746564
1274.57421875 1.527053 0.913448 -0.613605
1275.1640625 1.994427 1.344427 -0.65
1275.62109375 2.079663 1.54 -0.539663
1276.19921875 2.425253 1.862549 -0.562704
1276.92578125 1.7810419999999998 1.574253 -0.206789
1277.37109375 1.67401 1.485084 -0.188926
1277.98828125 1.8717050000000002 1.597174 -0.274531
1278.453125 2.112267 1.684895 -0.427372
1278.96484375 2.2799940000000003 1.742477 -0.537517
1279.37890625 1.999292 1.319479 -0.679813
1280.09375 1.467047 0.8526 -0.614447
1280.80078125 1.880938 1.131745 -0.749193
1281.6328125 2.152754 1.502917 -0.649837
1282.48046875 1.737075 1.08 -0.657075
1282.9765625 2.212847 1.598991 -0.613856
1283.38671875 1.912341 1.167341 -0.745
1283.75 1.9050000000000002 1.225 -0.68
1284.10546875 2.129619 1.434954 -0.694665
1284.54296875 2.281376 1.534463 -0.746913
1285.1640625 1.6409950000000002 1.016404 -0.624591
1285.83203125 2.110003 1.566221 -0.543782
1286.21875 2.1473430000000002 1.547094 -0.600249
1286.5703125 1.8284159999999998 1.387681 -0.440735
1287.09765625 2.22932 1.596383 -0.632937
1288.3203125 2.084214 1.523591 -0.560623
1288.6953125 2.738332 0.438969 -2.299363
1288.93359375 4.456678999999999 2.157316 -2.299363
1289.34375 2.4933959999999997 1.729315 -0.764081
1289.9140625 2.516954 1.824008 -0.692946
1290.765625 1.705527 1.102495 -0.603032
1291.48046875 2.330811 1.684949 -0.645862
1292.18359375 2.329954 1.739954 -0.59
1292.9296875 2.012816 1.459276 -0.55354
1293.375 2.005897 1.44 -0.565897
1294.33203125 2.441145 1.840786 -0.600359
1294.80078125 2.406619 1.756657 -0.649962
1295.6953125 1.77649 1.3392 -0.43729
1296.56640625 1.850158 1.258994 -0.591164
1297.48046875 2.27114 1.704995 -0.566145
1298.421875 2.565394 1.8335 -0.731894
1298.98046875 2.149615 1.389862 -0.759753
1299.8046875 2.045573 1.449851 -0.595722
1300.2109375 1.6783839999999999 0.699226 -0.979158
1301.10546875 2.5025239999999997 1.82994 -0.672584
1302.0390625 2.330275 1.760587 -0.569688
1302.796875 2.306378 1.708624 -0.597754
1303.484375 2.485638 1.908047 -0.577591
1304.2578125 2.2503159999999998 1.761779 -0.488537
1304.9609375 2.227074 1.68454 -0.542534
1305.69140625 2.15778 1.599889 -0.557891
1306.14453125 2.044931 1.429931 -0.615
1306.95703125 2.211926 1.516926 -0.695
1307.4296875 2.187715 1.49 -0.697715
1307.7734375 1.824459 1.159473 -0.664986
1308.171875 2.096981 1.459297 -0.637684
1309.12890625 2.1627989999999997 1.526236 -0.636563
1309.53125 2.8672150000000003 0.186719 -2.680496
1310.546875 2.138207 1.343787 -0.79442
1310.89453125 1.51953 -0.145 -1.66453
1311.578125 2.239654 1.449654 -0.79
1312.5625 2.244684 1.636 -0.608684
1313.328125 2.267813 1.759382 -0.508431
1314.32421875 2.202411 1.707525 -0.494886
1315.08984375 2.224971 1.705 -0.519971
1315.68359375 2.227543 1.669382 -0.558161
1316.06640625 1.750851 1.214606 -0.536245
1316.671875 2.2014050000000003 1.507328 -0.694077
1317.73046875 2.174843 1.524995 -0.649848
1318.890625 2.13773 1.497925 -0.639805
1319.578125 2.227824 1.68357 -0.544254
1320.43359375 2.040997 1.474494 -0.566503
1321.08984375 2.09088 1.560906 -0.529974
1321.75 2.189854 1.57 -0.619854
1322.80859375 2.090127 1.509497 -0.58063
1323.4921875 2.166575 1.593004 -0.573571
1323.8046875 1.61944 -0.083733 -1.703173
1324.74609375 2.118092 1.404707 -0.713385
1325.7421875 2.1207830000000003 1.483675 -0.637108
1326.5546875 2.08343 1.52843 -0.555
1326.9921875 1.3136670000000001 0.329796 -0.983871
1327.203125 1.492264 0.369895 -1.122369
1328.33203125 2.0765659999999997 1.451566 -0.625
1328.8046875 3.1835690000000003 0.629688 -2.553881
1329.5625 2.037777 1.398929 -0.638848
1330.62109375 2.189481 1.659854 -0.529627
1331.58984375 2.110377 1.60217 -0.508207
1332.41796875 1.370202 0.952007 -0.418195
1333.1953125 1.988688 1.47 -0.518688
1333.8828125 2.227232 1.671986 -0.555246
1334.58203125 1.872135 1.352247 -0.519888
1334.98828125 1.823487 0.572953 -1.250534
1335.82421875 1.504014 1.074014 -0.43
1336.50390625 2.084412 1.631973 -0.452439
1337.34375 2.1432 1.548738 -0.594462
1338.04296875 1.7118929999999999 1.063801 -0.648092
1338.609375 1.184888 0.62 -0.564888
1339.02734375 1.248094 0.459673 -0.788421
1339.39453125 1.457221 0.864964 -0.592257
1340.03515625 2.0849219999999997 1.505 -0.579922
1340.5546875 2.418074 1.93407 -0.484004
1341.28515625 1.224818 1.280741 0.055923
1342.0078125 1.150255 1.102848 -0.047407
1342.55078125 1.828884 1.378884 -0.45
1343.06640625 2.055047 1.306507 -0.74854
1343.46875 1.933683 0.989187 -0.944496
1344.0703125 2.1740180000000002 1.134389 -1.039629
1344.87890625 1.484888 0.485 -0.999888
1345.4453125 1.3824649999999998 0.552473 -0.829992
1345.8203125 1.4794610000000001 0.590807 -0.888654
1346.1953125 1.6331980000000001 0.79 -0.843198
1346.83203125 2.1400959999999998 1.384628 -0.755468
1347.12890625 1.728587 0.057535 -1.671052
1347.80859375 1.3348149999999999 0.668534 -0.666281
1348.2734375 1.578581 0.963632 -0.614949
1349.0625 2.139208 1.564208 -0.575
1349.7421875 2.374448 1.837057 -0.537391
1350.5 1.546144 1.02 -0.526144
1350.8671875 1.6196890000000002 -0.030198 -1.649887
1351.84765625 1.824557 1.314681 -0.509876
1352.66015625 2.17159 1.62159 -0.55
1353.29296875 2.283325 1.755454 -0.527871
1353.9296875 1.5025380000000002 1.067538 -0.435
1354.73046875 1.4499719999999998 1.039972 -0.41
1355.453125 1.969515 1.499876 -0.469639
1356.4375 2.075214 1.60025 -0.474964
1356.82421875 1.6882169999999999 0.464268 -1.223949
1357.890625 1.116829 0.927617 -0.189212
1358.37890625 1.238297 0.936422 -0.301875
1359.1484375 1.758234 0.93037 -0.827864
1359.65234375 2.218304 1.228304 -0.99
1360.2421875 1.068258 0.203258 -0.865
1360.734375 1.432489 0.523301 -0.909188
1361.359375 1.995976 1.19983 -0.796146
1361.94140625 2.5642840000000002 1.769284 -0.795
1362.34765625 2.049391 1.434638 -0.614753
1363.140625 1.44377 1.24377 -0.2
1363.62109375 1.3746180000000001 1.364319 -0.010299
1364.25390625 1.9317890000000002 1.686789 -0.245
1364.98828125 2.023634 1.481837 -0.541797
1365.73828125 1.7775379999999998 1.027979 -0.749559
1366.640625 2.0560650000000003 1.428403 -0.627662
1367.34765625 2.313963 1.804087 -0.509876
1368.140625 2.311408 1.839167 -0.472241
1368.73828125 1.621048 1.511112 -0.109936
1369.484375 1.637349 1.614167 -0.023182
1370.15234375 2.130133 1.86838 -0.261753
1370.90625 2.067943 1.474629 -0.593314
1371.33203125 1.864338 1.191151 -0.673187
1372.0 1.541589 0.895 -0.646589
1373.12109375 2.2579510000000003 1.737951 -0.52
1373.953125 2.317721 1.978815 -0.338906
1374.59375 2.214566 1.958309 -0.256257
1375.4609375 1.441763 1.545 0.103237
1376.0703125 2.172277 2.207277 0.035
1376.890625 2.18111 1.909714 -0.271396
1377.5390625 2.191064 1.921064 -0.27
1378.33984375 1.577897 1.34159 -0.236307
1379.09765625 2.09 1.575 -0.515
1379.80078125 2.2142020000000002 1.597812 -0.61639
1380.73828125 2.0460279999999997 1.375244 -0.670784
1381.30078125 1.78543 1.215 -0.57043
1381.80859375 1.9047390000000002 1.349739 -0.555
1382.5703125 2.252269 1.654303 -0.597966
1383.24609375 2.248997 1.684067 -0.56493
1383.7890625 2.399859 1.804859 -0.595
1384.47265625 2.162049 1.62154 -0.540509
1385.04296875 2.465 1.955 -0.51
1385.73828125 2.1913020000000003 1.69822 -0.493082
1386.48046875 2.120681 1.589848 -0.530833
1387.13671875 2.281974 1.701998 -0.579976
1388.015625 2.195234 1.451218 -0.744016
1388.484375 2.205979 1.41135 -0.794629
1389.15625 2.281326 1.529942 -0.751384
1389.7265625 2.341052 1.731052 -0.61
1390.1875 1.852452 1.483571 -0.368881
1390.8828125 1.724712 1.216493 -0.508219
1391.75390625 2.045203 1.391953 -0.65325
1392.58203125 2.067075 1.623534 -0.443541
1392.9609375 1.5121 0.11981 -1.39229
1393.24609375 2.719856 1.044839 -1.675017
1393.95703125 2.112087 1.353419 -0.758668
1394.59375 2.337266 1.726438 -0.610828
1395.140625 2.322332 1.636016 -0.686316
1395.89453125 1.8593700000000002 1.454951 -0.404419
1396.75 1.6519730000000001 1.245 -0.406973
1397.37890625 2.05686 1.527079 -0.529781
1397.95703125 2.1375830000000002 1.560022 -0.577561
1398.53515625 2.150265 1.413984 -0.736281
1399.375 1.761346 0.915 -0.846346
1400.0390625 1.298369 0.634925 -0.663444
1400.88671875 1.9933049999999999 1.714723 -0.278582
1401.48046875 2.118928 1.914665 -0.204263
1401.9765625 2.066441 1.656584 -0.409857
1402.6484375 1.377105 0.895 -0.482105
1403.24609375 1.346734 0.889513 -0.457221
1403.83984375 1.979616 1.370465 -0.609151
1404.25 1.5148510000000002 0.925 -0.589851
1404.6484375 1.6540949999999999 1.084735 -0.56936
1405.11328125 2.198668 1.499397 -0.699271
1405.71484375 2.627226 1.786193 -0.841033
1406.43359375 2.734445 1.999473 -0.734972
1407.02734375 2.684413 2.002608 -0.681805
1407.421875 2.311311 1.624429 -0.686882
1407.81640625 2.2680040000000004 1.549171 -0.718833
1408.5625 2.535968 1.535125 -1.000843
1408.9921875 1.241178 0.473018 -0.76816
1409.63671875 2.504532 1.83836 -0.666172
1410.2890625 2.7434960000000004 2.039734 -0.703762
1410.73046875 1.8542809999999998 1.314975 -0.539306
1411.33203125 2.141284 1.666733 -0.474551
1412.03515625 1.931026 1.379236 -0.55179
1412.81640625 1.6552149999999999 1.024487 -0.630728
1413.2109375 1.4220389999999998 0.894789 -0.52725
1413.875 1.7096840000000002 1.185 -0.524684
1414.27734375 1.573795 0.699405 -0.87439
1414.578125 1.807142 1.153162 -0.65398
1414.89453125 1.6617449999999998 1.064914 -0.596831
1415.8359375 1.7385549999999999 1.075056 -0.663499
1416.1953125 3.33 0.72 -2.61
1416.4609375 4.404944 1.794944 -2.61
1416.94140625 1.7441179999999998 1.019118 -0.725
1417.296875 1.427722 -0.198294 -1.626016
1418.0546875 1.789044 1.21 -0.579044
1418.640625 2.0372190000000003 1.495 -0.542219
1419.015625 1.449227 0.937417 -0.51181
1419.75 1.9015080000000002 1.35 -0.551508
1420.125 2.8431100000000002 0.47 -2.37311
1420.55859375 1.7062080000000002 1.029427 -0.676781
1421.265625 1.8649140000000002 1.235057 -0.629857
1421.7109375 1.664952 1.009952 -0.655
1422.20703125 2.072466 1.439463 -0.633003
1422.82421875 1.9588040000000002 1.318804 -0.64
1423.27734375 1.33181 -0.20893 -1.54074
1423.55859375 1.861564 0.30893 -1.552634
1424.30859375 1.994527 1.264891 -0.729636
1424.95703125 1.691738 0.956621 -0.735117
1425.74609375 1.848374 1.109086 -0.739288
1426.09375 1.5228270000000002 -0.015359 -1.538186
1426.84765625 1.9656010000000002 1.244355 -0.721246
1427.2578125 1.7377259999999999 1.102832 -0.634894
1427.62109375 1.889683 1.219957 -0.669726
1428.16796875 1.788698 1.103543 -0.685155
1428.8984375 0.913794 0.441619 -0.472175
1429.60546875 1.127067 0.869943 -0.257124
1430.07421875 1.131461 0.783582 -0.347879
1430.77734375 1.0935030000000001 0.357619 -0.735884
1431.3671875 0.8626259999999999 0.241562 -0.621064
1431.828125 0.645135 0.051142 -0.593993
1432.19921875 1.4454950000000002 0.935 -0.510495
1433.08203125 1.947844 1.257844 -0.69
1433.55859375 0.7942250000000001 -0.120775 -0.915
1433.77734375 1.332905 0.176382 -1.156523
1434.046875 2.061738 0.905215 -1.156523
1434.5625 1.819258 1.225 -0.594258
1435.3671875 1.449657 0.847316 -0.602341
1436.28515625 1.332727 0.926472 -0.406255
1436.71875 1.5628149999999998 1.192462 -0.370353
1437.48046875 2.025528 1.399891 -0.625637
1437.83984375 1.4847819999999998 0.265059 -1.219723
1438.5625 1.104712 0.762262 -0.34245
1439.10546875 1.377277 1.099908 -0.277369
1439.72265625 1.90383 1.38 -0.52383
1440.19140625 0.9823639999999999 -0.11 -1.092364
1440.640625 2.637378 0.865 -1.772378
1441.203125 1.127896 0.372896 -0.755
1441.62890625 1.262675 -0.14896 -1.411635
1442.171875 1.839419 0.799766 -1.039653
1442.77734375 1.578158 0.924182 -0.653976
1443.37890625 1.202139 0.766399 -0.43574
1444.0703125 1.464416 1.289416 -0.175
1444.53515625 1.4571530000000001 1.352467 -0.104686
1444.96875 1.868068 1.703068 -0.165
1445.33203125 1.55 1.32 -0.23
1445.9921875 1.004883 0.636245 -0.368638
1446.80859375 1.605373 1.134612 -0.470761
1447.52734375 2.012946 1.399144 -0.613802
1448.0390625 2.19275 1.474751 -0.717999
1448.65625 1.628994 0.799023 -0.829971
1449.34375 1.124075 0.437563 -0.686512
1449.66796875 1.1126770000000001 -0.104123 -1.2168
1450.6015625 2.044445 1.345 -0.699445
1451.0703125 0.035951999999999984 -0.459305 -0.495257
1451.31640625 0.754288 0.004891 -0.749397
1451.5703125 1.317078 0.567681 -0.749397
1452.09375 1.1848130000000001 0.421196 -0.763617
1452.5390625 1.232034 0.596322 -0.635712
1453.45703125 2.053003 1.40834 -0.644663
1454.1875 2.170255 1.612206 -0.558049
1454.8984375 1.642471 1.182496 -0.459975
1455.71484375 1.760043 1.31435 -0.445693
1456.59375 2.1144030000000003 1.406875 -0.707528
1457.29296875 2.285719 1.536589 -0.74913
1457.70703125 1.816242 0.987075 -0.829167
1458.5703125 1.317278 0.590214 -0.727064
1459.12109375 0.209084 -0.358867 -0.567951
1460.00390625 2.146919 1.512043 -0.634876
1460.8515625 2.215423 1.850423 -0.365
1461.390625 1.989518 1.630264 -0.359254
1461.953125 2.077185 1.728516 -0.348669
1462.3515625 1.809988 1.480359 -0.329629
1462.66796875 1.9550560000000001 1.435056 -0.52
1463.37109375 1.5260920000000002 1.015397 -0.510695
1464.14453125 2.109986 1.41 -0.699986
1465.0703125 1.6562489999999999 0.930485 -0.725764
1466.18359375 1.909948 1.234948 -0.675
1466.87109375 2.0235630000000002 1.353946 -0.669617
1468.0078125 2.238811 1.303811 -0.935
1468.984375 1.892795 0.994253 -0.898542
1469.484375 1.632229 0.875443 -0.756786
1470.23046875 2.0603730000000002 1.580249 -0.480124
1471.13671875 2.1290430000000002 1.613664 -0.515379
1471.7890625 2.295 1.69 -0.605
1472.18359375 1.934782 1.214782 -0.72
1472.7734375 1.7284449999999998 0.968895 -0.75955
1473.5859375 2.2086770000000002 1.314569 -0.894108
1474.2578125 2.335272 1.386522 -0.94875
1474.66796875 2.029051 1.058393 -0.970658
1475.06640625 2.0683819999999997 1.079945 -0.988437
1475.4296875 2.2106079999999997 1.20278 -1.007828
1476.08203125 2.280468 1.4 -0.880468
1476.71875 2.539271 1.699271 -0.84
1477.7421875 2.259532 1.52 -0.739532
1478.3203125 2.687459 1.977473 -0.709986
1478.94921875 2.3291459999999997 1.69 -0.639146
1479.62890625 2.571317 1.586046 -0.985271
1480.171875 2.6923529999999998 1.664153 -1.0282
1481.06640625 2.178948 1.713039 -0.465909
1481.88671875 2.496907 2.104746 -0.392161
1483.0625 2.439823 2.087237 -0.352586
1483.91796875 2.337989 1.84561 -0.492379
1484.40234375 1.053774 -0.011179 -1.064953
1485.1640625 2.223672 1.449595 -0.774077
1486.0625 2.561347 1.677083 -0.884264
1486.6171875 2.6464920000000003 1.996139 -0.650353
1487.08203125 2.7393140000000002 2.100877 -0.638437
1487.37890625 2.28868 1.87239 -0.41629
1487.76171875 1.9628229999999998 1.303783 -0.65904
1488.46484375 0.17648 -0.227309 -0.403789
0.0 3.0536079999999997 -1.0 -4.053608
1492.21484375 3.4516370000000003 -0.333363 -3.785
1492.61328125 3.773258 0.393258 -3.38
1492.81640625 3.354696 0.204848 -3.149848
1493.4921875 1.905881 -0.298413 -2.204294
1494.4375 2.455796 1.663571 -0.792225
1495.078125 2.649704 2.179262 -0.470442
1496.0078125 2.1593590000000003 1.781544 -0.377815
1496.6484375 2.2261800000000003 1.947707 -0.278473
1497.09765625 0.12826300000000002 0.139775 0.011512
1497.52734375 2.166467 0.551467 -1.615
1498.25 1.21 1.095 -0.115
1498.7109375 1.7547799999999998 1.50978 -0.245
1499.53125 1.5500340000000001 1.20429 -0.345744
1499.96484375 2.33 0.515 -1.815
1500.24609375 3.288195 1.473195 -1.815
1501.1015625 2.459734 1.716248 -0.743486
1501.6640625 0.05599499999999996 -0.27 -0.325995
1502.5625 1.513462 0.858462 -0.655
1503.05078125 2.066747 1.557525 -0.509222
1503.4765625 2.2814680000000003 1.711257 -0.570211
1504.08203125 1.9022599999999998 1.541899 -0.360361
1504.84765625 1.9588949999999998 1.704859 -0.254036
1505.6484375 1.8123010000000002 1.503157 -0.309144
1506.47265625 1.0221660000000001 0.791282 -0.230884
1507.27734375 1.57176 1.172619 -0.399141
1507.734375 1.553039 0.979209 -0.57383
1508.42578125 1.793364 1.029669 -0.763695
1509.0859375 1.912085 1.145569 -0.766516
1509.921875 1.319812 0.879812 -0.44
1510.56640625 0.749648 0.324648 -0.425
1511.1953125 1.4335360000000001 0.773022 -0.660514
1511.96484375 1.772109 0.833597 -0.938512
1512.60546875 1.973311 0.969978 -1.003333
1513.0234375 1.697864 0.681282 -1.016582
1513.73046875 0.9443579999999999 0.064981 -0.879377
1514.45703125 0.9516530000000001 0.281881 -0.669772
1515.27734375 1.714111 1.114119 -0.599992
1515.98046875 1.8065219999999997 1.174875 -0.631647
1516.3984375 1.746338 1.135454 -0.610884
1516.78515625 1.325774 0.707817 -0.617957
1517.07421875 1.902717 -0.045998 -1.948715
1517.71484375 1.059235 0.484403 -0.574832
1518.16015625 1.258868 0.594129 -0.664739
1518.96875 1.766197 0.788679 -0.977518
1519.4609375 1.619383 0.719832 -0.899551
1519.8984375 1.875789 1.060789 -0.815
1520.55859375 0.793032 0.235 -0.558032
1520.9921875 1.048559 0.659301 -0.389258
1522.03515625 1.689285 1.57206 -0.117225
1522.54296875 3.234838 1.1364 -2.098438
1523.6796875 1.067311 1.097375 0.030064
1524.85546875 1.503918 1.284918 -0.219
1525.296875 1.961422 0.344377 -1.617045
1525.55859375 2.589608 0.972563 -1.617045
1525.9921875 1.9048610000000001 1.191021 -0.71384
1526.609375 1.608403 0.943403 -0.665
1526.91015625 2.1404590000000003 -0.22029 -2.360749
1527.1796875 3.209511 0.754547 -2.454964
1527.78515625 1.179904 0.479904 -0.7
1528.49609375 1.6494330000000001 0.964433 -0.685
1529.15234375 1.797754 1.06 -0.737754
1529.79296875 1.809266 1.016071 -0.793195
1531.3125 1.297561 0.79 -0.507561
1531.765625 1.217251 0.75709 -0.460161
1532.640625 1.7637960000000001 1.220358 -0.543438
1533.26171875 2.0827039999999997 1.437841 -0.644863
1533.96484375 0.9254519999999999 0.38099 -0.544462
1534.66015625 1.133194 0.58003 -0.553164
1535.0 1.447444 -0.205 -1.652444
1535.55859375 1.8385479999999998 1.185784 -0.652764
1536.02734375 1.671413 0.993553 -0.67786
1536.78125 1.619761 0.92957 -0.690191
1537.50390625 0.92157 0.587521 -0.334049
1538.109375 1.3979 1.1629 -0.235
1538.40625 1.696803 0.341855 -1.354948
1539.04296875 1.859973 1.529973 -0.33
1539.4296875 1.57005 1.160107 -0.409943
1540.0703125 1.924927 1.384937 -0.53999
1540.71875 1.27032 0.86207 -0.40825
1541.2890625 1.634217 1.209732 -0.424485
1541.99609375 1.7144789999999999 1.189479 -0.525
1542.64453125 1.971352 1.319954 -0.651398
1543.47265625 1.799701 1.299701 -0.5
1544.2578125 1.06475 0.694806 -0.369944
1545.03515625 1.6883350000000001 1.235532 -0.452803
1545.5703125 2.0333390000000002 1.582426 -0.450913
1546.2265625 1.8468879999999999 1.380197 -0.466691
1546.76953125 1.916155 1.445271 -0.470884
1547.4453125 1.199373 0.659451 -0.539922
1548.10546875 1.714372 0.994924 -0.719448
1548.6875 1.9789910000000002 1.210134 -0.768857
1549.34375 1.813553 0.873641 -0.939912
1549.9765625 2.035699 1.175933 -0.859766
1550.68359375 1.595779 1.049276 -0.546503
1551.00390625 2.187903 0.294124 -1.893779
1551.265625 2.567675 0.969994 -1.597681
1551.67578125 0.351188 0.34766 -0.003528
1552.33203125 1.858945 1.233945 -0.625
1552.6796875 1.532839 0.115 -1.417839
1554.04296875 1.821369 0.971369 -0.85
1554.45703125 2.937284 -0.017716 -2.955
1554.72265625 5.03 2.075 -2.955
1555.45703125 1.8881230000000002 1.233494 -0.654629
1556.11328125 2.00735 1.708774 -0.298576
1556.76171875 1.8984779999999999 1.589415 -0.309063
1557.48046875 2.1196479999999998 1.599708 -0.51994
1557.8046875 1.894717 0.059736 -1.834981
1558.60546875 1.979723 1.19997 -0.779753
1559.1796875 2.403647 1.919375 -0.484272
1559.671875 2.098258 1.759469 -0.338789
1560.62109375 2.23437 1.739565 -0.494805
1561.5 2.08957 1.935 -0.15457
1562.0859375 2.182477 2.090544 -0.091933
1562.4921875 1.833662 1.462316 -0.371346
1563.203125 2.150982 1.473421 -0.677561
1563.68359375 2.3642630000000002 1.675 -0.689263
1564.1015625 1.8623750000000001 1.140442 -0.721933
1564.9140625 2.044658 1.309658 -0.735
1565.44140625 2.388213 1.751445 -0.636768
1566.25 2.108925 1.47 -0.638925
1566.6015625 1.87387 0.27887 -1.595
1567.34765625 2.088173 1.425938 -0.662235
1567.93359375 2.123666 1.444545 -0.679121
1568.94140625 2.003295 1.349506 -0.653789
1569.43359375 2.393773 1.734044 -0.659729
1569.890625 2.335117 1.635117 -0.7
1570.4765625 2.1034170000000003 1.403474 -0.699943
1571.03515625 2.3027740000000003 1.655059 -0.647715
1571.73828125 2.116705 1.587069 -0.529636
1572.53515625 2.205 1.75 -0.455
1573.40234375 2.189024 1.801348 -0.387676
1573.84765625 2.049888 1.526507 -0.523381
1574.62890625 1.700665 1.031066 -0.669599
1575.10546875 2.25816 1.604986 -0.653174
1576.12109375 2.287136 1.60737 -0.679766
1576.67578125 2.497049 1.50732 -0.989729
1577.05078125 1.224036 0.389036 -0.835
1577.3984375 1.180939 0.731333 -0.449606
1578.07421875 1.749849 1.589523 -0.160326
1578.84765625 2.136005 2.054653 -0.081352
1579.21484375 1.983988 0.743536 -1.240452
1580.33203125 1.694203 1.254672 -0.439531
1580.703125 3.3577529999999998 0.372753 -2.985
1580.9453125 5.085 2.1 -2.985
1581.62109375 1.628614 0.873949 -0.754665
1582.828125 2.11874 1.411035 -0.707705
1585.44921875 2.119033 1.447186 -0.671847
1586.3046875 1.086515 0.382391 -0.704124
1586.734375 2.130547 -0.177958 -2.308505
1587.234375 1.491902 0.646902 -0.845
1588.07421875 1.7883 1.3183 -0.47
1589.08203125 2.181059 1.607313 -0.573746
1589.64453125 2.230686 1.714905 -0.515781
1590.19921875 1.075491 0.65 -0.425491
1590.84375 1.0672160000000002 0.667321 -0.399895
1591.625 1.50543 0.995 -0.51043
1592.2890625 1.7585570000000001 1.209727 -0.54883
1592.6015625 2.1028290000000003 0.02822 -2.074609
1592.953125 2.155086 0.169258 -1.985828
1593.2109375 3.140714 1.154886 -1.985828
1595.1171875 1.276539 0.894753 -0.381786
1595.51953125 1.208809 0.774981 -0.433828
1596.21484375 1.8339690000000002 1.107056 -0.726913
1596.9609375 1.271084 0.564718 -0.706366
1598.05078125 0.739422 0.418774 -0.320648
1598.5078125 1.1405210000000001 0.961315 -0.179206
1598.9375 1.6261230000000002 1.323333 -0.30279
1599.59375 1.66535 1.020818 -0.644532
1600.26171875 1.105011 0.446272 -0.658739
1601.12109375 0.76276 0.23776 -0.525
1601.49609375 1.7411919999999999 0.434513 -1.306679
1602.1953125 1.447356 1.175 -0.272356
1602.7734375 1.965059 1.315918 -0.649141
1603.59375 1.363781 0.748828 -0.614953
1604.0703125 2.143892 0.028982 -2.11491
1604.5703125 0.839715 0.442172 -0.397543
1605.20703125 1.448523 1.138523 -0.31
1605.5078125 1.6647290000000001 0.064729 -1.6
1605.7578125 2.790302 0.718644 -2.071658
1606.1015625 1.963278 0.015252 -1.948026
1606.4609375 2.0446679999999997 -0.110294 -2.154962
1606.77734375 2.159382 -0.009153 -2.168535
1607.11328125 2.430796 0.262307 -2.168489
1607.44921875 2.423889 0.245709 -2.17818
1607.9375 1.2151260000000002 0.235556 -0.97957
1608.265625 1.086819 0.327183 -0.759636
1608.703125 1.71 0.965 -0.745
1609.0703125 1.1195629999999999 0.620867 -0.498696
1609.39453125 1.439215 0.89 -0.549215
1609.8125 1.6287880000000001 1.043466 -0.585322
1610.1953125 0.878607 0.398617 -0.47999
1610.84375 0.7347539999999999 0.144754 -0.59
1611.69921875 1.50209 1.148731 -0.353359
1612.05859375 1.367674 0.054206 -1.313468
1612.4609375 1.198327 0.844499 -0.353828
1614.18359375 1.08644 0.914936 -0.171504
1614.5859375 1.104932 0.969932 -0.135
1615.2890625 1.585056 1.279695 -0.305361
1615.65234375 1.887826 0.119347 -1.768479
1615.9453125 2.263178 0.400829 -1.862349
1616.21875 3.1648490000000002 1.3025 -1.862349
1616.5546875 1.385075 0.776155 -0.60892
1617.9140625 1.642105 1.434687 -0.207418
1618.7734375 1.7608460000000001 1.396276 -0.36457
1619.375 2.546933 0.28 -2.266933
1619.87109375 1.28091 0.654398 -0.626512
1620.28125 0.8869199999999999 0.29192 -0.595
1620.9140625 1.291253 0.864863 -0.42639
1621.70703125 1.5907589999999998 1.051189 -0.53957
1622.5625 1.145748 0.048587 -1.097161
1623.40234375 1.649338 0.749104 -0.900234
1623.98828125 1.883589 1.429387 -0.454202
1624.63671875 1.3297780000000001 0.700094 -0.629684
1625.05078125 1.024959 0.59 -0.434959
1626.00390625 1.480909 1.296156 -0.184753
1626.484375 1.539117 1.414229 -0.124888
1627.34765625 1.821422 1.16251 -0.658912
1627.75390625 1.351174 -0.059013 -1.410187
1628.5859375 1.050544 0.284611 -0.765933
1629.2109375 1.480331 0.779863 -0.700468
1630.296875 1.650563 1.714802 0.064239
1630.91796875 2.052116 1.752284 -0.299832
1631.6171875 1.787392 1.123133 -0.664259
1632.4375 1.6484070000000002 1.32 -0.328407
1633.01171875 1.86778 1.599343 -0.268437
1633.421875 1.197808 0.8035 -0.394308
1634.16796875 1.7943010000000001 1.174716 -0.619585
1634.8671875 1.8048000000000002 0.639363 -1.165437
1635.47265625 1.65362 0.948206 -0.705414
1637.0546875 1.418229 0.668229 -0.75
1637.9609375 1.543474 1.42 -0.123474
1638.3359375 2.075662 0.625662 -1.45
1638.6796875 2.614957 0.755 -1.859957
1639.01953125 2.596193 0.583075 -2.013118
1639.74609375 1.64975 0.891789 -0.757961
1640.625 1.739971 1.14 -0.599971
1641.15625 2.880771 0.150771 -2.73
1641.8203125 1.6271 0.82 -0.8071
1642.54296875 1.85 1.085 -0.765
1643.3125 1.779957 1.232391 -0.547566
1644.0703125 1.7631029999999999 1.253132 -0.509971
1644.87109375 1.888563 0.799067 -1.089496
1645.69140625 1.755842 0.930842 -0.825
1646.25 1.876599 1.575 -0.301599
1646.84765625 1.689245 1.544369 -0.144876
1647.65625 1.462103 0.983864 -0.478239
1648.24609375 1.829984 1.346531 -0.483453
1648.63671875 1.3579970000000001 0.838378 -0.519619
1649.359375 1.796619 0.877914 -0.918705
1650.13671875 1.7693409999999998 1.049397 -0.719944
1650.81640625 1.824965 1.374599 -0.450366
1651.6875 1.636402 0.686944 -0.949458
1652.46875 1.7279369999999998 1.575 -0.152937
1653.16015625 1.880824 1.765824 -0.115
1653.8515625 1.717204 1.202694 -0.51451
1655.21875 1.47962 0.718672 -0.760948
1656.0078125 1.699835 0.981564 -0.718271
1656.9609375 1.692007 1.199273 -0.492734
1657.32421875 2.2828120000000003 0.207812 -2.075
1657.65625 2.443684 0.358684 -2.085
1657.94140625 3.059559 0.974559 -2.085
1658.3828125 1.678801 0.757946 -0.920855
1658.77734375 1.479315 0.724347 -0.754968
1659.390625 1.554738 0.901414 -0.653324
1660.11328125 1.016853 0.566853 -0.45
1660.5859375 1.490188 0.9 -0.590188
1661.34765625 1.648959 0.813959 -0.835
1661.84375 1.843618 1.047566 -0.796052
1662.4765625 1.563331 1.003331 -0.56
1663.27734375 0.9834 0.029146 -0.954254
1663.95703125 1.394364 0.743795 -0.650569
1664.61328125 1.426174 1.422603 -0.003571
1664.9453125 2.157415 0.602415 -1.555
1665.2421875 2.312882 0.748351 -1.564531
1665.52734375 3.113933 1.549402 -1.564531
1665.98046875 1.582417 1.184889 -0.397528
1666.30859375 2.455304 0.319515 -2.135789
1667.234375 1.272288 0.659043 -0.613245
1668.05078125 1.653794 0.697272 -0.956522
1668.49609375 1.154122 0.013587 -1.140535
1669.1953125 1.6677689999999998 1.097559 -0.57021
1669.9765625 1.013326 1.008326 -0.0050
1670.4921875 0.651544 0.776544 0.125
1671.1328125 0.9300229999999999 0.78826 -0.141763
1671.44140625 2.382563 0.344463 -2.0381
1671.6953125 3.021452 0.983352 -2.0381
1672.07421875 1.6347990000000001 0.869347 -0.765452
1672.671875 1.65375 0.65375 -1.0
1674.71484375 1.0342660000000001 0.719565 -0.314701
1675.0546875 1.181657 0.929851 -0.251806
1675.4140625 1.1879709999999999 1.179141 -0.00883
1675.765625 1.500918 1.365 -0.135918
1676.46875 1.584788 1.000297 -0.584491
1676.828125 2.6119339999999998 0.428483 -2.183451
1677.05859375 2.389916 0.144916 -2.245
1677.29296875 2.7514060000000002 0.506406 -2.245
1678.94140625 1.543864 1.262103 -0.281761
1679.67578125 1.326434 1.071434 -0.255
1681.4921875 1.400236 1.103303 -0.296933
1682.42578125 1.6714820000000001 0.776482 -0.895
1682.94140625 1.2625579999999998 0.428701 -0.833857
1683.3125 0.549879 -0.011176 -0.561055
1683.91796875 1.091491 0.288795 -0.802696
1684.57421875 1.385424 1.045943 -0.339481
1685.11328125 1.658399 1.613908 -0.044491
1685.4765625 1.0690650000000002 0.939065 -0.13
1686.03125 0.920418 0.633409 -0.287009
1686.5 0.888917 0.38 -0.508917
1687.38671875 1.294574 0.594574 -0.7
1688.171875 1.549396 0.774396 -0.775
1688.49609375 1.8802340000000002 -0.196952 -2.077186
1688.7421875 2.943473 0.866287 -2.077186
1689.078125 1.089807 0.634807 -0.455
1690.29296875 1.3474689999999998 0.778511 -0.568958
1691.05859375 1.5490629999999999 1.139063 -0.41
1691.796875 1.368158 1.124775 -0.243383
1692.421875 0.828041 0.658085 -0.169956
1693.14453125 1.092471 0.684994 -0.407477
1694.05078125 1.457403 1.085242 -0.372161
1694.953125 1.552516 0.899118 -0.653398
1695.88671875 1.573958 0.779505 -0.794453
1696.3828125 1.774312 -0.112848 -1.88716
1696.859375 2.5456659999999998 0.337386 -2.20828
1697.21875 2.4651330000000002 0.273333 -2.1918
1697.47265625 3.38472 1.19292 -2.1918
1697.83984375 1.3432119999999999 0.609323 -0.733889
1698.51953125 1.509631 1.019687 -0.489944
1699.328125 1.591302 1.343504 -0.247798
1700.03125 1.640898 0.961875 -0.679023
1700.43359375 1.2086540000000001 -0.101074 -1.309728
1701.01953125 1.704253 1.069909 -0.634344
1701.7890625 0.914942 0.849978 -0.064964
1702.22265625 0.8799999999999999 0.82 -0.06
1703.01171875 1.433935 1.107869 -0.326066
1703.875 1.6099999999999999 0.96 -0.65
1704.65234375 1.680905 0.585937 -1.094968
1705.6484375 0.913991 0.589216 -0.324775
1706.79296875 1.456801 1.377971 -0.07883
1707.55859375 1.6195629999999999 1.25416 -0.365403
1708.1953125 1.529624 0.991796 -0.537828
1708.89453125 1.47316 0.904962 -0.568198
1709.66015625 1.1149930000000001 0.53 -0.584993
1710.50390625 1.6147070000000001 0.994707 -0.62
1710.96875 1.456382 0.619177 -0.837205
1711.72265625 1.6599940000000002 1.033959 -0.626035
1712.36328125 1.8132920000000001 1.24 -0.573292
1713.44140625 1.243321 1.020845 -0.222476
1714.0546875 1.627712 1.599761 -0.027951
1714.86328125 1.532222 1.178582 -0.35364
1715.515625 1.674489 1.039229 -0.63526
1716.28515625 1.71956 0.474986 -1.244574
1717.21484375 1.4446940000000001 1.002588 -0.442106
1718.109375 1.601714 1.592425 -0.009289
1718.74609375 1.6985869999999998 1.2 -0.498587
1719.41796875 1.68829 1.091247 -0.597043
1719.75 1.942965 0.04 -1.902965
1720.109375 2.039969 0.091357 -1.948612
1720.83203125 1.724949 0.716441 -1.008508
1721.265625 1.253747 0.533434 -0.720313
1721.66015625 1.7625229999999998 1.27253 -0.489993
1722.28515625 1.6209159999999998 1.336377 -0.284539
1722.6171875 2.490949 0.478675 -2.012274
1722.98046875 2.137543 0.554657 -1.582886
1723.66015625 1.8700809999999999 1.230091 -0.63999
1724.79296875 1.861498 1.051498 -0.81
1725.56640625 1.937266 1.16 -0.777266
1727.01953125 1.734036 1.549929 -0.184107
1727.72265625 1.8833130000000002 1.179531 -0.703782
1728.5 1.6348880000000001 1.09 -0.544888
1728.8515625 1.878613 0.155191 -1.723422
1729.40234375 1.694376 1.329704 -0.364672
1729.75 2.384855 1.15 -1.234855
1731.64453125 0.8328599999999999 0.279933 -0.552927
1732.21484375 1.418548 1.103945 -0.314603
1732.8203125 1.496904 1.321961 -0.174943
1733.1484375 2.241323 0.286978 -1.954345
1733.43359375 2.8775500000000003 0.941233 -1.936317
1733.89453125 1.050821 0.995283 -0.055538
1734.2734375 1.5906950000000002 1.195534 -0.395161
1734.98828125 1.607445 1.118616 -0.488829
1735.3671875 2.293963 0.488103 -1.80586
1736.1484375 1.7179609999999998 0.943719 -0.774242
1736.98046875 1.714914 0.809914 -0.905
1737.5859375 1.7993540000000001 1.144819 -0.654535
1738.46484375 1.6426319999999999 1.1478 -0.494832
1739.16796875 1.6584539999999999 1.266649 -0.391805
1739.57421875 1.504706 1.036737 -0.467969
1740.546875 1.585556 1.093914 -0.491642
1741.48046875 1.679986 0.679986 -1.0
1741.8515625 1.086724 -0.267086 -1.35381
1742.8359375 1.728024 1.689774 -0.03825
1743.74609375 0.9041469999999999 0.841803 -0.062344
1744.328125 1.321157 0.939438 -0.381719
1745.0078125 1.427609 0.603374 -0.824235
1745.4453125 1.312743 0.524602 -0.788141
1746.1953125 1.637859 0.817631 -0.820228
1747.09375 1.878587 1.465 -0.413587
1747.94921875 1.468461 0.493461 -0.975
1748.52734375 1.6651690000000001 1.202091 -0.463078
1749.25 1.837126 1.725 -0.112126
1749.671875 2.174098 1.814559 -0.359539
1750.078125 1.872298 1.843763 -0.028535
1750.4609375 1.585177 1.569622 -0.015555
1750.796875 1.176391 0.958096 -0.218295
1752.23046875 1.581869 1.049971 -0.531898
1752.98046875 1.826482 0.764961 -1.061521
1753.62109375 1.557344 0.299011 -1.258333
1754.89453125 0.724369 0.784973 0.060604
1755.54296875 1.415989 1.445989 0.03
1756.3046875 1.6640139999999999 1.24636 -0.417654
1756.9296875 1.5669629999999999 0.662886 -0.904077
