4.0234375 2.745739 2.005706 -0.740033
4.3046875 1.027795 0.558128 -0.469667
5.08203125 2.779257 1.951204 -0.828053
6.10546875 2.75496 1.96496 -0.79
7.140625 2.531371 2.066892 -0.464479
8.109375 2.8567590000000003 1.887024 -0.969735
8.984375 2.916742 1.909902 -1.00684
9.921875 2.704122 1.849862 -0.85426
10.921875 2.934686 1.910195 -1.024491
11.89453125 2.8494289999999998 2.094903 -0.754526
12.8125 2.8035949999999996 2.062283 -0.741312
13.7421875 2.896288 2.044114 -0.852174
14.59765625 2.8397959999999998 2.098277 -0.741519
15.4375 2.823697 2.135044 -0.688653
16.28515625 2.7274089999999998 2.106095 -0.621314
17.15234375 2.763001 2.064715 -0.698286
17.9765625 2.6862399999999997 1.90624 -0.78
18.76953125 2.524755 1.899989 -0.624766
19.5703125 2.678756 1.961556 -0.7172
20.375 2.707386 2.14 -0.567386
21.15234375 2.779996 2.19593 -0.584066
21.9375 2.786256 2.104063 -0.682193
22.73046875 2.687789 2.039937 -0.647852
23.54296875 2.897424 2.032469 -0.864955
24.328125 2.877758 1.988516 -0.889242
25.0703125 2.7464180000000002 1.915882 -0.830536
25.75390625 2.651387 1.866262 -0.785125
26.4375 2.764177 2.018681 -0.745496
27.13671875 2.819393 2.014459 -0.804934
27.88671875 2.799135 1.963265 -0.83587
28.65234375 2.829307 1.946087 -0.88322
29.3984375 2.65396 1.981295 -0.672665
30.234375 2.516439 1.90377 -0.612669
31.234375 2.266162 1.826286 -0.439876
32.19140625 2.1733 1.739574 -0.433726
33.15234375 1.933013 1.594553 -0.33846
34.12890625 1.7416129999999999 1.388175 -0.353438
35.13671875 1.642357 1.172357 -0.47
36.1171875 1.5682 1.15327 -0.41493
36.99609375 1.610368 1.205368 -0.405
37.82421875 1.4654669999999999 1.080623 -0.384844
38.66015625 1.4468770000000002 1.082791 -0.364086
39.5234375 1.309792 0.984792 -0.325
40.45703125 1.326003 1.023772 -0.302231
41.39453125 1.292021 0.970517 -0.321504
42.30859375 1.219828 0.919828 -0.3
43.2265625 1.205531 0.943264 -0.262267
44.16796875 1.302414 0.982414 -0.32
45.125 1.2896610000000002 0.92 -0.369661
46.125 1.239895 0.89 -0.349895
47.21484375 1.17159 0.85159 -0.32
48.20703125 1.222987 0.868707 -0.35428
49.16796875 1.245579 0.886649 -0.35893
50.0703125 1.222311 0.927502 -0.294809
50.92578125 1.2170429999999999 0.855 -0.362043
51.7890625 1.216321 0.86 -0.356321
52.6796875 1.330161 1.07 -0.260161
53.54296875 1.371079 1.142469 -0.22861
54.38671875 1.2296719999999999 1.075 -0.154672
55.19140625 1.212073 0.999346 -0.212727
55.93359375 1.234888 0.999888 -0.235
56.68359375 1.299701 0.984733 -0.314968
57.47265625 1.332637 1.067386 -0.265251
58.30078125 1.3210359999999999 1.129533 -0.191503
59.1640625 1.3900000000000001 1.07 -0.32
60.1015625 1.3666770000000001 1.033177 -0.3335
61.1328125 1.48839 1.183564 -0.304826
62.12109375 1.4627 1.113256 -0.349444
63.02734375 1.422075 1.139692 -0.282383
63.93359375 1.45495 1.10995 -0.345
64.8984375 1.4981460000000002 1.185585 -0.312561
65.88671875 1.683808 1.099406 -0.584402
66.80078125 1.658405 1.180839 -0.477566
67.671875 1.7009130000000001 1.274461 -0.426452
68.56640625 1.728698 1.279952 -0.448746
69.47265625 1.7962879999999999 1.349144 -0.447144
70.3828125 1.778594 1.354594 -0.424
71.37890625 1.798368 1.365 -0.433368
72.4140625 1.8932609999999999 1.468594 -0.424667
73.4296875 1.847092 1.431763 -0.415329
74.40625 1.962329 1.547662 -0.414667
75.3828125 2.079724 1.633643 -0.446081
76.30859375 2.080656 1.744503 -0.336153
77.25 2.241584 1.755 -0.486584
78.2265625 2.385961 1.883728 -0.502233
79.1640625 2.559642 1.865586 -0.694056
80.00390625 2.658938 1.922303 -0.736635
80.84765625 2.667084 1.915 -0.752084
81.6875 2.512016 1.806136 -0.70588
82.53125 2.617273 1.899766 -0.717507
83.40234375 2.249955 1.642647 -0.607308
84.26171875 2.18661 1.588157 -0.598453
85.08203125 2.268751 1.50152 -0.767231
85.890625 2.472769 1.805671 -0.667098
86.63671875 2.59167 2.005481 -0.586189
87.39453125 2.79479 1.984967 -0.809823
88.12890625 2.713772 1.873148 -0.840624
88.9296875 2.809145 1.898921 -0.910224
89.8203125 2.695499 1.903851 -0.791648
90.7421875 2.725141 1.9297 -0.795441
91.296875 2.534231 1.179542 -1.354689
91.78125 2.351041 1.514205 -0.836836
92.9921875 2.630242 2.044158 -0.586084
93.48046875 2.651945 1.134951 -1.516994
93.94921875 2.101042 1.419492 -0.68155
95.29296875 2.606682 2.016899 -0.589783
96.29296875 2.695704 1.899482 -0.796222
96.82421875 2.197222 0.849101 -1.348121
98.00390625 2.643465 1.955823 -0.687642
98.5234375 2.335872 0.897496 -1.438376
98.984375 2.230955 1.402942 -0.828013
100.28125 2.53063 1.887974 -0.642656
100.8046875 2.141664 0.719157 -1.422507
102.1015625 1.831599 1.501599 -0.33
102.640625 1.7441179999999998 0.834629 -0.909489
103.1171875 1.742632 1.222693 -0.519939
104.39453125 1.584348 1.369946 -0.214402
105.3125 1.749394 1.339394 -0.41
105.8125 1.735748 0.633611 -1.102137
106.296875 1.821955 1.079785 -0.74217
107.65625 2.335872 1.82175 -0.514122
108.1640625 2.300682 0.909365 -1.391317
108.65234375 1.971162 1.181162 -0.79
109.97265625 2.348013 1.835077 -0.512936
110.83984375 2.26291 1.629264 -0.633646
111.34765625 1.8311419999999998 0.619546 -1.211596
111.8125 1.994874 1.153594 -0.84128
113.09765625 1.677057 1.543411 -0.133646
113.98046875 1.7395589999999999 1.319834 -0.419725
114.50390625 1.588353 0.47779 -1.110563
114.984375 1.955081 1.246836 -0.708245
116.21484375 2.060628 1.724639 -0.335989
116.6796875 1.488513 0.543729 -0.944784
117.88671875 2.288866 1.873664 -0.415202
118.40234375 2.295306 0.923598 -1.371708
118.8828125 2.109789 1.489789 -0.62
120.2109375 2.03466 1.71 -0.32466
120.71875 2.203604 0.813796 -1.389808
121.9609375 1.804395 1.439583 -0.364812
122.453125 1.533458 0.355 -1.178458
123.6328125 1.748521 1.313183 -0.435338
124.14453125 1.66991 0.714994 -0.954916
124.6328125 1.789945 1.165 -0.624945
125.97265625 2.096345 1.541379 -0.554966
126.484375 1.215774 0.255508 -0.960266
127.7109375 2.209417 1.784658 -0.424759
128.2109375 2.059183 0.709813 -1.34937
128.66796875 2.117372 1.478512 -0.63886
129.9375 1.800695 1.535761 -0.264934
130.4375 1.5051290000000002 0.7405 -0.764629
131.703125 1.653002 1.394578 -0.258424
132.23828125 1.491026 0.629386 -0.86164
132.72265625 1.6009799999999998 1.098291 -0.502689
133.9609375 1.959596 1.374792 -0.584804
134.44921875 2.058878 0.603581 -1.455297
134.90625 1.9534669999999998 1.203738 -0.749729
136.13671875 1.999284 1.619687 -0.379597
136.64453125 2.005477 0.579923 -1.425554
137.1484375 1.707433 1.145933 -0.5615
138.43359375 1.863903 1.404361 -0.459542
138.953125 1.558063 0.79972 -0.758343
140.0703125 1.829388 1.361238 -0.46815
140.57421875 1.741218 0.51 -1.231218
141.03515625 1.9777200000000001 1.271509 -0.706211
142.25390625 1.973839 1.674952 -0.298887
142.77734375 2.065614 0.598364 -1.46725
144.02734375 1.782841 1.408207 -0.374634
144.55078125 1.714079 0.42061 -1.293469
145.03125 1.7516509999999998 1.101953 -0.649698
146.28515625 1.5502799999999999 1.26528 -0.285
146.765625 1.5693829999999998 0.501875 -1.067508
147.98828125 1.308069 1.029415 -0.278654
148.828125 1.297545 0.869812 -0.427733
149.6484375 1.283134 0.854423 -0.428711
150.203125 1.218922 0.229654 -0.989268
150.703125 1.9296540000000002 1.289654 -0.64
151.98828125 1.242562 0.967562 -0.275
152.46484375 1.29243 0.89243 -0.4
152.953125 1.476433 1.018597 -0.457836
154.33203125 1.118506 1.054576 -0.06393
154.8515625 1.538918 1.280918 -0.258
156.1875 1.119383 0.793654 -0.325729
157.078125 1.154522 0.689551 -0.464971
157.89453125 1.094782 0.849792 -0.24499
158.8203125 1.066837 0.706455 -0.360382
159.70703125 1.191942 0.657528 -0.534414
160.234375 1.021416 0.086572 -0.934844
160.7578125 1.8406120000000001 1.071287 -0.769325
162.0703125 1.08447 0.74447 -0.34
162.59765625 1.4205930000000002 1.009837 -0.410756
163.8671875 1.114798 0.954798 -0.16
164.359375 1.0878320000000001 0.498008 -0.589824
164.8046875 1.4546970000000001 1.084416 -0.370281
166.02734375 1.067113 0.872539 -0.194574
166.5390625 1.5847950000000002 1.119795 -0.465
167.8671875 1.109523 0.891562 -0.217961
168.43359375 1.725509 1.245509 -0.48
169.671875 1.0606740000000001 0.86336 -0.197314
170.2109375 1.729743 1.259968 -0.469775
171.47265625 1.192834 0.903535 -0.289299
172.49609375 1.123957 0.754109 -0.369848
173.578125 1.183541 0.743709 -0.439832
174.5078125 1.06433 0.62433 -0.44
175.35546875 0.93493 0.60993 -0.325
176.38671875 1.134355 0.754355 -0.38
176.921875 1.221918 0.446918 -0.775
177.39453125 1.814957 1.099978 -0.714979
177.875 1.099338 0.285 -0.814338
179.35546875 1.207214 0.779933 -0.427281
179.90625 1.822273 1.15707 -0.665203
181.3515625 1.164222 0.899473 -0.264749
182.51171875 1.177784 0.879272 -0.298512
183.625 1.21 0.88 -0.33
184.68359375 1.329497 0.939497 -0.39
185.79296875 1.359528 1.023241 -0.336287
186.94921875 1.3477109999999999 1.042768 -0.304943
188.0625 1.549853 1.184853 -0.365
189.15234375 1.623189 1.229347 -0.393842
190.17578125 1.6529570000000002 1.137957 -0.515
191.3046875 1.7765650000000002 1.456104 -0.320461
192.41796875 1.718442 1.373442 -0.345
193.43359375 1.957112 1.479345 -0.477767
194.34765625 2.0100290000000003 1.517845 -0.492184
195.2265625 2.051105 1.568702 -0.482403
196.1640625 2.12861 1.724474 -0.404136
197.21875 2.368781 1.933438 -0.435343
198.35546875 2.549989 1.974989 -0.575
199.48828125 2.623588 1.945984 -0.677604
200.53515625 2.526945 1.864341 -0.662604
201.5546875 2.578229 1.981913 -0.596316
202.625 2.5722460000000003 1.985 -0.587246
203.7109375 2.5665509999999996 2.033908 -0.532643
204.8046875 2.622008 2.066528 -0.55548
205.796875 2.719831 1.984167 -0.735664
206.69140625 2.574635 1.973974 -0.600661
207.6171875 2.612005 1.986264 -0.625741
208.71875 2.618952 1.989894 -0.629058
209.76171875 2.606748 1.986938 -0.61981
210.85546875 2.6349329999999997 2.049933 -0.585
211.91015625 2.628574 1.994677 -0.633897
212.97265625 2.640499 1.931043 -0.709456
213.95703125 2.596723 1.96092 -0.635803
215.00390625 2.627892 1.992035 -0.635857
216.03125 2.578493 2.01 -0.568493
217.1015625 2.598376 1.883971 -0.714405
218.05859375 2.6384410000000003 1.958342 -0.680099
219.046875 2.766215 1.948654 -0.817561
220.171875 2.565636 1.87617 -0.689466
221.25 2.6247499999999997 1.95 -0.67475
222.3125 2.574633 1.921471 -0.653162
223.26171875 2.804652 2.048219 -0.756433
224.12890625 2.83162 2.167485 -0.664135
225.0546875 2.7484610000000003 2.143889 -0.604572
226.0859375 2.7145740000000003 2.119794 -0.59478
227.234375 2.602898 2.038184 -0.564714
228.37109375 2.7825320000000002 2.100093 -0.682439
229.40625 2.7278779999999996 2.128525 -0.599353
230.40234375 2.708501 2.084536 -0.623965
231.41015625 2.661454 2.090674 -0.57078
232.3984375 2.704564 2.089565 -0.614999
233.4296875 2.724178 2.092719 -0.631459
234.54296875 2.736669 2.091804 -0.644865
235.65625 2.7230670000000003 2.066437 -0.65663
236.703125 2.742385 2.069918 -0.672467
237.77734375 2.808119 2.082965 -0.725154
238.921875 2.719266 1.969913 -0.749353
239.9453125 2.643078 1.994473 -0.648605
240.98828125 2.749062 2.022382 -0.72668
242.03515625 2.65449 1.904364 -0.750126
243.078125 2.623986 1.911393 -0.712593
244.13671875 2.663319 1.969475 -0.693844
245.2734375 2.6591370000000003 1.940854 -0.718283
246.421875 2.616045 1.845134 -0.770911
247.4921875 2.779557 1.875798 -0.903759
248.41796875 2.65496 1.805225 -0.849735
249.28515625 2.617653 1.988205 -0.629448
250.16015625 2.773976 1.995489 -0.778487
251.10546875 2.714795 1.934795 -0.78
252.16015625 2.774948 1.928028 -0.84692
253.1484375 2.589222 1.961528 -0.627694
254.04296875 2.571507 1.754705 -0.816802
254.87109375 2.637889 1.773199 -0.86469
255.68359375 2.644953 1.579953 -1.065
256.515625 2.647871 1.80409 -0.843781
257.38671875 2.689234 1.890651 -0.798583
258.375 2.542002 2.04 -0.502002
259.42578125 2.620062 1.852351 -0.767711
260.3125 2.649619 1.821154 -0.828465
261.20703125 2.586872 1.885426 -0.701446
262.15625 2.533786 1.78455 -0.749236
263.1015625 2.675704 1.762767 -0.912937
264.00390625 2.631164 1.940241 -0.690923
264.9453125 2.639835 1.932538 -0.707297
265.87890625 2.623316 1.943172 -0.680144
266.40234375 2.063945 0.688945 -1.375
267.59765625 2.205353 1.614144 -0.591209
268.5078125 2.20186 1.583824 -0.618036
269.46875 1.981846 1.607705 -0.374141
270.36328125 1.991769 1.369438 -0.622331
271.1640625 1.933363 1.399945 -0.533418
271.96875 1.82466 1.30466 -0.52
272.82421875 1.849463 1.314575 -0.534888
273.6484375 1.743619 1.325159 -0.41846
274.49609375 1.594981 1.130013 -0.464968
275.37109375 1.611112 1.181971 -0.429141
276.30859375 1.616203 1.214553 -0.40165
277.2421875 1.53105 1.173645 -0.357405
278.10546875 1.439781 1.159937 -0.279844
279.00390625 1.3863759999999998 1.030954 -0.355422
279.96484375 1.3319649999999998 1.003169 -0.328796
280.96875 1.2429970000000001 0.988535 -0.254462
281.99609375 1.395536 1.111312 -0.284224
283.0078125 1.3638730000000001 1.042561 -0.321312
283.96875 1.2283190000000002 1.023068 -0.205251
284.88671875 1.282065 1.004386 -0.277679
285.859375 1.3377919999999999 1.078301 -0.259491
286.9453125 1.277637 1.018486 -0.259151
287.9609375 1.339367 1.004367 -0.335
289.00390625 1.282985 0.940329 -0.342656
290.02734375 1.3882919999999999 1.042563 -0.345729
291.046875 1.356913 1.04853 -0.308383
292.0078125 1.399349 1.028835 -0.370514
293.0625 1.451781 1.106944 -0.344837
294.16015625 1.45353 1.099361 -0.354169
295.2421875 1.486898 1.165 -0.321898
296.1953125 1.468921 1.162555 -0.306366
297.16015625 1.432909 1.092652 -0.340257
298.23828125 1.594956 1.26647 -0.328486
299.375 1.559107 1.28 -0.279107
300.42578125 1.6092460000000002 1.264253 -0.344993
301.4921875 1.615694 1.303796 -0.311898
302.55859375 1.588848 1.299626 -0.289222
303.58203125 1.5871369999999998 1.286204 -0.300933
304.6328125 1.59321 1.20321 -0.39
305.73046875 1.59225 1.194923 -0.397327
306.75390625 1.609677 1.289737 -0.31994
307.7421875 1.701482 1.276596 -0.424886
308.7109375 1.694629 1.314854 -0.379775
309.63671875 1.6428880000000001 1.333563 -0.309325
310.6484375 1.734244 1.295903 -0.438341
311.7421875 1.8045470000000001 1.329811 -0.474736
312.8203125 1.8856130000000002 1.34864 -0.536973
313.765625 1.8354409999999999 1.380723 -0.454718
314.734375 2.004187 1.499187 -0.505
315.75390625 2.049216 1.609962 -0.439254
316.828125 2.205671 1.733171 -0.4725
317.7890625 2.163811 1.754243 -0.409568
318.71875 2.3958909999999998 1.825859 -0.570032
319.671875 2.555101 1.949818 -0.605283
320.6328125 2.733816 2.121749 -0.612067
321.56640625 2.734938 2.039782 -0.695156
322.55859375 2.782315 2.084889 -0.697426
323.69921875 2.763986 2.105 -0.658986
324.74609375 2.767284 2.102083 -0.665201
325.7734375 2.7646309999999996 2.044631 -0.72
326.8125 2.857218 2.129549 -0.727669
327.75 2.8588929999999997 2.175 -0.683893
328.78515625 2.885065 2.168151 -0.716914
329.8828125 2.909597 2.171441 -0.738156
330.9453125 2.873584 2.24826 -0.625324
331.90234375 2.919728 2.244728 -0.675
332.91796875 2.968605 2.240659 -0.727946
333.953125 2.767411 2.284326 -0.483085
335.0078125 2.859455 2.264597 -0.594858
336.125 2.84 2.25 -0.59
337.2265625 2.889138 2.284138 -0.605
338.25 2.8446860000000003 2.31 -0.534686
339.21875 2.821045 2.28 -0.541045
340.1953125 2.894386 2.227502 -0.666884
341.140625 2.9351269999999996 2.236016 -0.699111
342.05078125 2.847252 2.207963 -0.639289
343.01171875 2.931351 2.288744 -0.642607
344.1171875 2.9058640000000002 2.307722 -0.598142
345.1328125 2.948942 2.343875 -0.605067
346.234375 2.820026 2.35085 -0.469176
347.3125 2.820671 2.259853 -0.560818
348.37890625 2.858969 2.254093 -0.604876
349.4140625 2.965961 2.329764 -0.636197
350.3203125 2.8253069999999996 2.274456 -0.550851
351.25390625 2.884022 2.219093 -0.664929
352.25390625 2.877495 2.235656 -0.641839
353.24609375 2.898196 2.234067 -0.664129
354.34375 2.875107 2.236103 -0.639004
355.4296875 2.805699 2.297711 -0.507988
356.4140625 2.886244 2.270573 -0.615671
357.4375 2.748455 2.230357 -0.518098
358.46875 2.9180729999999997 2.174286 -0.743787
359.578125 2.8258210000000004 2.193337 -0.632484
360.609375 2.764769 2.066562 -0.698207
361.62109375 2.8152809999999997 2.062257 -0.753024
362.609375 2.729206 2.081309 -0.647897
363.53125 2.716258 1.997031 -0.719227
364.53515625 2.8187159999999998 2.007329 -0.811387
365.64453125 2.829276 2.089938 -0.739338
366.69921875 2.826036 2.187532 -0.638504
367.7265625 2.872274 2.207866 -0.664408
368.671875 2.8469379999999997 2.229612 -0.617326
369.66015625 2.799786 2.135038 -0.664748
370.73828125 2.883596 2.229739 -0.653857
371.765625 2.8361349999999996 2.153491 -0.682644
372.796875 2.889705 2.149716 -0.739989
373.80078125 2.843173 2.219376 -0.623797
374.734375 2.770918 2.107474 -0.663444
375.69921875 2.869224 2.121062 -0.748162
376.7109375 2.802042 2.169953 -0.632089
377.71484375 2.8808 2.13 -0.7508
378.76171875 2.848704 2.187529 -0.661175
379.7890625 2.923264 2.139837 -0.783427
380.71875 2.812267 2.083973 -0.728294
381.68359375 2.7214679999999998 1.964511 -0.756957
382.66015625 2.6913959999999997 2.040259 -0.651137
383.609375 2.290219 1.831841 -0.458378
384.61328125 2.314384 1.679434 -0.63495
385.60546875 2.139611 1.514886 -0.624725
386.58984375 1.9801060000000001 1.425357 -0.554749
387.58203125 1.7961330000000002 1.285654 -0.510479
388.54296875 1.786004 1.286004 -0.5
389.546875 1.6305840000000003 1.124297 -0.506287
390.48046875 1.5299110000000002 1.034995 -0.494916
391.4453125 1.49364 1.05864 -0.435
392.4375 1.527037 1.097037 -0.43
393.44140625 1.446169 0.969333 -0.476836
394.37109375 1.326333 0.922083 -0.40425
395.375 1.299219 0.865 -0.434219
396.42578125 1.262593 0.863472 -0.399121
397.41796875 1.3072840000000001 0.867284 -0.44
398.32421875 1.306172 0.779905 -0.526267
399.19140625 1.121742 0.956988 -0.164754
400.09765625 1.268503 0.803697 -0.464806
400.98828125 1.211815 0.746815 -0.465
401.890625 1.2613150000000002 0.762681 -0.498634
402.74609375 1.221846 0.736846 -0.485
403.65625 1.23393 0.730922 -0.503008
404.6875 1.205123 0.782115 -0.423008
405.73828125 1.314506 0.85 -0.464506
406.8125 1.3084660000000001 0.848466 -0.46
407.84375 1.245981 0.869271 -0.37671
408.8671875 1.3903629999999998 0.887573 -0.50279
409.828125 1.4298089999999999 0.94 -0.489809
410.7578125 1.357832 0.892832 -0.465
411.64453125 1.3299150000000002 0.799915 -0.53
412.55859375 1.3775309999999998 0.78909 -0.588441
413.578125 1.499121 0.889909 -0.609212
414.7265625 1.4930530000000002 1.043292 -0.449761
415.796875 1.407851 1.008828 -0.399023
416.7578125 1.491165 1.054767 -0.436398
417.73828125 1.564111 1.064422 -0.499689
418.83203125 1.597703 1.046407 -0.551296
419.94140625 1.6495699999999998 1.08967 -0.5599
421.0390625 1.6378270000000001 1.179828 -0.457999
422.03125 1.7599999999999998 1.265 -0.495
423.0234375 1.817498 1.367817 -0.449681
424.0703125 1.831078 1.37144 -0.459638
425.1484375 1.9138229999999998 1.53232 -0.381503
426.19921875 2.111287 1.666379 -0.444908
427.18359375 2.149165 1.804445 -0.34472
428.0234375 2.128243 1.738243 -0.39
428.8359375 2.216127 1.819811 -0.396316
429.67578125 2.347455 1.809181 -0.538274
430.57421875 2.5889889999999998 1.9133 -0.675689
431.4453125 2.496445 1.945919 -0.550526
432.31640625 2.507891 1.889494 -0.618397
433.16796875 2.4713279999999997 1.876339 -0.594989
433.96484375 2.577654 1.789542 -0.788112
434.71875 2.5960289999999997 1.849643 -0.746386
435.48046875 2.549983 1.914983 -0.635
436.2578125 2.605487 1.904321 -0.701166
437.0546875 2.627441 1.901141 -0.7263
437.82421875 2.753047 1.910796 -0.842251
438.6015625 2.634898 1.999084 -0.635814
439.36328125 2.6561779999999997 2.086515 -0.569663
440.09375 2.613385 1.96967 -0.643715
440.80859375 2.7548980000000003 2.044608 -0.71029
441.49609375 2.6367890000000003 2.032159 -0.60463
442.2265625 2.545375 1.965375 -0.58
443.01171875 2.672627 2.134743 -0.537884
443.84765625 2.6686330000000003 2.09987 -0.568763
444.78125 2.695611 2.076154 -0.619457
445.78125 2.72029 2.036591 -0.683699
446.265625 2.706883 0.983819 -1.723064
447.43359375 2.764627 2.013582 -0.751045
448.37890625 2.865608 2.081209 -0.784399
449.3046875 2.875814 2.135479 -0.740335
450.2109375 2.729187 2.134815 -0.594372
451.1796875 2.836837 2.162758 -0.674079
452.1640625 2.824604 2.125 -0.699604
452.65625 2.565636 1.061574 -1.504062
453.8046875 2.6215279999999996 2.025 -0.596528
454.74609375 2.712221 2.078127 -0.634094
455.74609375 2.571598 1.912136 -0.659462
456.70703125 2.813053 2.009552 -0.803501
457.6015625 2.775838 2.03117 -0.744668
458.50390625 2.733251 2.071858 -0.661393
459.453125 2.893489 1.997942 -0.895547
460.42578125 2.728824 2.038118 -0.690706
461.390625 2.849906 1.966455 -0.883451
462.27734375 2.889611 2.113636 -0.775975
463.125 3.0448030000000004 2.24 -0.804803
463.96875 2.860984 2.303525 -0.557459
464.89453125 2.8379689999999997 2.214571 -0.623398
465.8203125 2.9417 2.152495 -0.789205
466.77734375 2.8603229999999997 2.180814 -0.679509
467.78125 2.9662379999999997 2.266238 -0.7
468.8046875 2.8834530000000003 2.250554 -0.632899
469.75390625 2.804177 2.243285 -0.560892
470.66015625 2.952432 2.21 -0.742432
471.546875 2.9017090000000003 2.183816 -0.717893
472.4765625 2.76733 2.17 -0.59733
473.515625 2.844481 2.231625 -0.612856
474.51171875 2.970039 2.184973 -0.785066
475.4375 2.850702 2.34 -0.510702
476.34375 2.895311 2.362192 -0.533119
477.3046875 2.8059890000000003 2.396466 -0.409523
478.3359375 2.920284 2.350578 -0.569706
479.34375 3.004378 2.272936 -0.731442
480.30078125 2.851871 2.347361 -0.50451
481.2734375 2.8931880000000003 2.316482 -0.576706
482.21875 2.962952 2.157503 -0.805449
483.109375 2.799548 2.204257 -0.595291
483.984375 2.923006 2.241685 -0.681321
484.8828125 2.924679 2.284811 -0.639868
485.80078125 3.025831 2.275055 -0.750776
486.6328125 3.033131 2.404633 -0.628498
487.47265625 2.873363 2.393363 -0.48
488.28515625 2.8821339999999998 2.27276 -0.609374
489.0859375 2.880807 2.216101 -0.664706
489.953125 2.927356 2.284256 -0.6431
490.83203125 2.900223 2.322486 -0.577737
491.7109375 2.798353 2.319659 -0.478694
492.58203125 2.7587319999999997 2.262907 -0.495825
493.3828125 2.862431 2.092682 -0.769749
494.1328125 2.726471 1.96159 -0.764881
494.9609375 2.8339550000000004 2.234605 -0.59935
495.8203125 2.799738 2.313143 -0.486595
496.7578125 2.707964 2.114068 -0.593896
497.71484375 2.778358 2.125361 -0.652997
498.6171875 2.7862869999999997 2.19337 -0.592917
499.47265625 2.8413839999999997 2.153078 -0.688306
500.33984375 2.774833 2.100634 -0.674199
501.2265625 2.6623840000000003 1.969734 -0.69265
502.16796875 2.647425 1.988442 -0.658983
503.171875 2.710026 2.069592 -0.640434
504.171875 2.558693 1.929223 -0.62947
505.0859375 2.37532 1.664496 -0.710824
505.9609375 2.0700849999999997 1.769429 -0.300656
506.84765625 1.981541 1.648531 -0.33301
507.734375 1.9186429999999999 1.558643 -0.36
508.625 1.773352 1.365 -0.408352
509.54296875 1.610977 1.213098 -0.397879
510.4921875 1.579355 1.17 -0.409355
511.4375 1.5737750000000001 1.115687 -0.458088
512.30859375 1.429578 1.1246 -0.304978
513.19921875 1.35987 1.011838 -0.348032
514.140625 1.300192 0.890192 -0.41
515.1484375 1.328966 0.863966 -0.465
516.12890625 1.334898 0.953023 -0.381875
517.078125 1.241603 0.85 -0.391603
518.0390625 1.19 0.825 -0.365
518.94921875 1.2085380000000001 0.949057 -0.259481
519.85546875 1.289066 1.069974 -0.219092
520.85546875 1.264982 0.884982 -0.38
521.80859375 1.154992 0.87 -0.284992
522.8046875 1.23267 0.97488 -0.25779
523.75 1.229734 0.89 -0.339734
524.640625 1.257312 1.032474 -0.224838
525.55078125 1.246808 0.921808 -0.325
526.4296875 1.23559 0.854535 -0.381055
527.3203125 1.29231 0.981796 -0.310514
528.19921875 1.2609759999999999 0.962768 -0.298208
529.11328125 1.296816 0.908744 -0.388072
529.96484375 1.253362 0.908474 -0.344888
530.84765625 1.310626 0.951282 -0.359344
531.80859375 1.394336 1.029336 -0.365
532.8203125 1.378851 1.038851 -0.34
533.8359375 1.380607 1.04971 -0.330897
534.859375 1.34677 0.999242 -0.347528
535.84375 1.393327 0.963879 -0.429448
536.75390625 1.42584 1.012582 -0.413258
537.68359375 1.458587 1.044745 -0.413842
538.64453125 1.4398749999999998 1.014889 -0.424986
539.6015625 1.380167 1.005167 -0.375
540.57421875 1.467238 1.107326 -0.359912
541.54296875 1.485399 1.117835 -0.367564
542.4453125 1.441249 1.087245 -0.354004
543.34375 1.448539 1.083814 -0.364725
544.33984375 1.522595 1.107707 -0.414888
545.33984375 1.488139 1.125202 -0.362937
546.34765625 1.431247 1.056317 -0.37493
547.359375 1.477087 1.078447 -0.39864
548.33203125 1.488907 1.066771 -0.422136
549.265625 1.569169 1.137914 -0.431255
550.19140625 1.63154 1.164704 -0.466836
551.14453125 1.6057810000000001 1.175 -0.430781
552.12109375 1.6462940000000001 1.207033 -0.439261
553.15234375 1.7750620000000001 1.332688 -0.442374
554.12109375 1.8047710000000001 1.310672 -0.494099
555.0078125 1.91064 1.402757 -0.507883
555.9375 2.004902 1.549336 -0.455566
556.93359375 2.168186 1.549148 -0.619038
557.93359375 2.3049999999999997 1.71 -0.595
558.93359375 2.3939079999999997 1.854409 -0.539499
559.85546875 2.514846 1.854846 -0.66
560.71875 2.579713 1.983393 -0.59632
561.57421875 2.594041 2.044216 -0.549825
562.4453125 2.664687 1.981165 -0.683522
563.2734375 2.5393 1.987749 -0.551551
564.12109375 2.609535 2.024894 -0.584641
564.96875 2.6163540000000003 1.975 -0.641354
565.78515625 2.59903 1.969375 -0.629655
566.5859375 2.61397 2.024662 -0.589308
567.40234375 2.4944349999999997 2.019859 -0.474576
568.2734375 2.570417 1.934491 -0.635926
569.21484375 2.549239 1.951212 -0.598027
570.26171875 2.530504 2.048047 -0.482457
571.296875 2.562903 1.952031 -0.610872
572.25 2.5998390000000002 2.055 -0.544839
573.22265625 2.622286 2.071632 -0.550654
574.17578125 2.667746 2.024114 -0.643632
575.1875 2.6434889999999998 2.053654 -0.589835
576.28125 2.695674 2.026429 -0.669245
577.30859375 2.618094 1.992424 -0.62567
578.28515625 2.638339 1.955513 -0.682826
579.25 2.620098 1.985 -0.635098
580.24609375 2.635272 1.975421 -0.659851
581.25 2.626366 1.985 -0.641366
582.26171875 2.568883 2.01347 -0.555413
583.25390625 2.5396520000000002 1.922272 -0.61738
584.1796875 2.5542759999999998 1.925584 -0.628692
585.1171875 2.626522 1.979585 -0.646937
586.08203125 2.663748 1.901292 -0.762456
587.09375 2.61956 1.891466 -0.728094
588.09765625 2.6558070000000003 1.907861 -0.747946
589.109375 2.675691 1.879334 -0.796357
590.05859375 2.580801 1.829641 -0.75116
590.98828125 2.689055 1.883512 -0.805543
591.98828125 2.624285 1.865383 -0.758902
592.984375 2.640545 1.793974 -0.846571
593.96484375 2.678044 1.833112 -0.844932
594.95703125 2.705444 1.879076 -0.826368
595.8984375 2.411978 1.565832 -0.846146
596.71484375 2.350544 1.440634 -0.90991
597.5859375 2.479339 1.79958 -0.679759
598.55078125 2.5585259999999996 1.926346 -0.63218
599.5625 2.653346 1.934451 -0.718895
600.56640625 2.6829270000000003 1.903229 -0.779698
601.484375 2.575511 1.809085 -0.766426
602.359375 2.568759 1.895884 -0.672875
603.22265625 2.656429 1.83142 -0.825009
604.12890625 2.6175800000000002 1.832705 -0.784875
605.03515625 2.60187 1.739403 -0.862467
605.93359375 2.696149 1.854775 -0.841374
606.84375 2.672464 1.928082 -0.744382
607.7578125 2.742395 1.996768 -0.745627
608.67578125 2.793269 2.005519 -0.78775
609.5859375 2.6303010000000002 1.895573 -0.734728
610.52734375 2.72813 1.979562 -0.748568
611.5078125 2.704467 2.013358 -0.691109
612.55078125 2.697305 2.022857 -0.674448
613.546875 2.644769 1.983125 -0.661644
614.515625 2.67663 2.019125 -0.657505
615.546875 2.693268 2.093024 -0.600244
616.640625 2.747223 2.113047 -0.634176
617.7578125 2.6535270000000004 2.051648 -0.601879
618.8125 2.7490129999999997 2.114413 -0.6346
619.828125 2.686457 2.115246 -0.571211
620.82421875 2.628444 2.076162 -0.552282
621.7890625 2.648394 2.029601 -0.618793
622.7890625 2.660661 1.944777 -0.715884
623.7890625 2.468981 1.959773 -0.509208
624.71875 2.123358 1.697936 -0.425422
625.63671875 1.984016 1.54 -0.444016
626.5234375 1.7799180000000001 1.322812 -0.457106
627.3828125 1.6471270000000002 1.360807 -0.28632
628.265625 1.547863 1.037914 -0.509949
629.15625 1.474767 1.03 -0.444767
630.05859375 1.3647390000000001 1.024739 -0.34
630.91796875 1.40269 1.05161 -0.35108
631.72265625 1.373856 0.983856 -0.39
632.55078125 1.3270499999999998 0.939491 -0.387559
633.375 1.218148 0.83 -0.388148
634.2734375 1.27665 0.82665 -0.45
635.21484375 1.289968 0.73 -0.559968
636.125 1.13779 0.805 -0.33279
637.03515625 1.145602 0.77251 -0.373092
637.96875 1.247746 0.932879 -0.314867
638.8515625 1.204761 0.697643 -0.507118
639.6875 1.214986 0.73 -0.484986
640.5390625 1.2149320000000001 0.854932 -0.36
641.4609375 1.2222819999999999 0.824789 -0.397493
642.40625 1.156822 0.8026 -0.354222
643.36328125 1.259654 0.874714 -0.38494
644.2890625 1.234977 0.784977 -0.45
645.12890625 1.109848 0.895 -0.214848
646.015625 1.300063 0.985361 -0.314702
646.97265625 1.313552 0.974046 -0.339506
647.94140625 1.247585 0.964823 -0.282762
648.87890625 1.285653 0.947141 -0.338512
649.78125 1.292009 1.064635 -0.227374
650.67578125 1.337233 1.042233 -0.295
651.58203125 1.469268 1.063393 -0.405875
652.4765625 1.443889 1.118953 -0.324936
653.4140625 1.424388 1.199659 -0.224729
654.3828125 1.4743810000000002 1.168163 -0.306218
655.37109375 1.4871240000000001 1.147124 -0.34
656.30078125 1.544549 1.184549 -0.36
657.20703125 1.467695 0.972807 -0.494888
658.08203125 1.5244980000000001 1.091498 -0.433
658.9921875 1.514313 1.221779 -0.292534
659.94921875 1.6090650000000002 1.30184 -0.307225
660.92578125 1.625067 1.205067 -0.42
661.79296875 1.502221 1.117378 -0.384843
662.68359375 1.683918 1.434212 -0.249706
663.6015625 1.775389 1.495389 -0.28
664.6015625 1.8088659999999999 1.479661 -0.329205
665.60546875 1.873434 1.425287 -0.448147
666.5546875 2.051889 1.440554 -0.611335
667.4453125 2.193545 1.405727 -0.787818
668.26171875 2.192929 1.57835 -0.614579
669.0625 2.450761 1.882649 -0.568112
669.91796875 2.422439 1.775755 -0.646684
670.875 2.544862 1.865 -0.679862
671.8515625 2.591014 1.972899 -0.618115
672.8671875 2.554608 1.963923 -0.590685
673.8828125 2.641204 2.016127 -0.625077
674.890625 2.4942 1.902889 -0.591311
675.84765625 2.556102 1.829087 -0.727015
676.83984375 2.506281 1.867959 -0.638322
677.8359375 2.597712 1.868155 -0.729557
678.76953125 2.634172 1.914815 -0.719357
679.71875 2.578315 1.911056 -0.667259
680.640625 2.589672 1.8 -0.789672
681.578125 2.5629169999999997 1.80784 -0.755077
682.56640625 2.602129 1.914951 -0.687178
683.5390625 2.695983 1.863665 -0.832318
684.484375 2.694712 1.921406 -0.773306
685.4140625 2.786292 1.879649 -0.906643
686.23828125 2.743379 1.926112 -0.817267
687.0546875 2.665956 1.982098 -0.683858
687.8828125 2.851244 1.93247 -0.918774
688.75390625 2.822986 1.989235 -0.833751
689.6015625 2.743823 1.993823 -0.75
690.453125 2.831786 1.955088 -0.876698
691.28125 2.8594559999999998 2.098445 -0.761011
692.1171875 2.807843 2.154753 -0.65309
692.9375 2.913661 2.146136 -0.767525
693.73046875 2.744921 2.119921 -0.625
694.56640625 2.759214 2.269704 -0.48951
695.42578125 2.732298 2.110796 -0.621502
696.26171875 2.654991 2.055454 -0.599537
697.109375 2.774152 2.045 -0.729152
697.87890625 2.737767 1.948053 -0.789714
698.6640625 2.745879 2.044979 -0.7009
699.48046875 2.904936 2.009936 -0.895
700.328125 2.8109889999999997 2.056116 -0.754873
701.3203125 2.744955 2.117783 -0.627172
702.3046875 2.932799 2.154519 -0.77828
703.2265625 2.6206650000000002 2.096652 -0.524013
704.08984375 2.839951 1.89803 -0.941921
704.89453125 2.769718 1.944982 -0.824736
705.734375 2.865895 1.988591 -0.877304
706.55078125 2.831773 1.958654 -0.873119
707.4140625 2.8894320000000002 2.03558 -0.853852
708.32421875 2.79195 2.045263 -0.746687
709.1875 2.868538 1.954483 -0.914055
710.0390625 2.967053 2.192995 -0.774058
710.88671875 2.935197 2.184747 -0.75045
711.40234375 2.487437 0.847733 -1.639704
712.5234375 2.9428360000000002 2.078352 -0.864484
713.36328125 2.93078 2.072647 -0.858133
714.203125 2.822726 2.273698 -0.549028
715.01171875 2.8210260000000003 2.16407 -0.656956
715.51171875 2.829394 1.118999 -1.710395
716.5546875 2.7409869999999996 2.060497 -0.68049
717.0546875 2.8800209999999997 0.815092 -2.064929
718.1484375 2.849435 2.036347 -0.813088
718.65625 2.95811 0.96161 -1.9965
719.80078125 2.8299320000000003 1.998474 -0.831458
720.60546875 2.959886 2.019886 -0.94
721.11328125 2.1641880000000002 0.704257 -1.459931
722.1953125 2.620885 2.172158 -0.448727
722.6875 2.654167 0.945 -1.709167
723.875 2.732577 2.11 -0.622577
724.6875 2.867102 2.067877 -0.799225
725.5 2.8449199999999997 2.05 -0.79492
726.33203125 2.866225 1.946247 -0.919978
726.85546875 2.325443 0.751359 -1.574084
727.90625 2.867112 2.181146 -0.685966
728.6484375 2.772441 2.063213 -0.709228
729.37890625 2.784604 2.108663 -0.675941
729.859375 2.323398 0.863487 -1.459911
730.32421875 2.654058 1.759058 -0.895
731.54296875 2.8024310000000003 2.102431 -0.7
732.3515625 2.860923 2.161614 -0.699309
732.84765625 2.441215 0.884581 -1.556634
733.921875 2.769396 2.184487 -0.584909
734.40625 2.4850060000000003 0.972537 -1.512469
735.44140625 2.602431 2.079073 -0.523358
736.2265625 2.5274859999999997 2.024781 -0.502705
737.046875 2.521632 2.086824 -0.434808
737.56640625 2.411658 0.84995 -1.561708
738.69921875 2.148267 1.782985 -0.365282
739.4765625 2.193164 1.65341 -0.539754
739.96875 2.134219 0.334219 -1.8
740.4296875 2.196005 1.257267 -0.938738
741.49609375 1.8182679999999998 1.403382 -0.414886
741.96484375 2.1043320000000003 0.514332 -1.59
743.03515625 1.6531179999999999 1.193612 -0.459506
743.78125 1.476894 1.121894 -0.355
744.29296875 1.575337 0.336825 -1.238512
744.796875 1.9990800000000002 0.995 -1.00408
745.85546875 1.466954 0.970287 -0.496667
746.29296875 1.669689 0.315 -1.354689
747.23046875 1.369747 0.864981 -0.504766
747.71484375 1.493576 0.226542 -1.267034
748.68359375 1.350669 0.810701 -0.539968
749.1796875 1.5110959999999998 0.342502 -1.168594
750.12109375 1.325566 0.895954 -0.429612
750.58984375 1.503469 0.256328 -1.247141
751.51953125 1.26571 0.834981 -0.430729
751.96484375 1.31 0.385 -0.925
752.8515625 1.19746 0.617817 -0.579643
753.30859375 1.2747890000000002 0.58482 -0.689969
754.20703125 1.158129 0.842265 -0.315864
754.6875 1.170361 0.635 -0.535361
755.68359375 1.094861 0.63988 -0.454981
756.1640625 1.3267419999999999 0.874937 -0.451805
757.1640625 1.156028 0.761028 -0.395
757.63671875 1.383458 0.913908 -0.46955
758.55859375 1.097217 0.739171 -0.358046
759.00390625 1.4173529999999999 0.885 -0.532353
759.9765625 1.219909 0.871103 -0.348806
760.4609375 1.361745 0.879536 -0.482209
761.48046875 1.234041 0.87493 -0.359111
761.98046875 1.613233 1.140448 -0.472785
763.01171875 1.3893360000000001 0.915447 -0.473889
763.47265625 1.641867 0.958515 -0.683352
764.41796875 1.366412 0.856847 -0.509565
764.890625 1.8169399999999998 1.284023 -0.532917
765.796875 1.466211 1.142564 -0.323647
766.28515625 1.692508 0.329953 -1.362555
767.234375 1.408952 0.900824 -0.508128
767.72265625 1.858004 1.409849 -0.448155
768.6640625 1.3344479999999999 1.049883 -0.284565
769.16015625 1.930297 1.509565 -0.420732
770.07421875 1.41517 1.121482 -0.293688
770.52734375 2.1133640000000002 1.578364 -0.535
771.4453125 1.511334 1.181014 -0.33032
771.89453125 1.851464 1.425531 -0.425933
772.8671875 1.430491 1.229241 -0.20125
773.3671875 2.016487 1.53 -0.486487
774.36328125 1.486458 1.166938 -0.31952
774.83984375 1.7800280000000002 1.459813 -0.320215
775.75 1.5035759999999998 1.18 -0.323576
776.1953125 1.713025 1.568272 -0.144753
777.0546875 1.547606 1.203832 -0.343774
777.5 1.4 0.925 -0.475
778.4140625 1.266991 0.884569 -0.382422
778.89453125 1.676835 1.31997 -0.356865
779.80078125 1.261608 0.757522 -0.504086
780.28125 1.875577 1.510625 -0.364952
781.1796875 1.313708 0.70988 -0.603828
781.63671875 1.911022 1.448499 -0.462523
782.5234375 1.631599 1.191599 -0.44
782.9609375 1.7225130000000002 0.91439 -0.808123
783.8984375 1.5604330000000002 1.012564 -0.547869
784.3359375 1.5692780000000002 0.91971 -0.649568
785.31640625 1.669333 1.259333 -0.41
785.7890625 1.8692290000000003 0.615527 -1.253702
786.74609375 1.592624 1.122675 -0.469949
787.2265625 2.162727 1.792727 -0.37
788.09765625 1.906122 1.551271 -0.354851
788.53515625 2.214047 1.821773 -0.392274
789.3984375 1.773466 1.341417 -0.432049
789.8671875 2.413684 1.724479 -0.689205
790.80859375 2.068277 1.72381 -0.344467
791.28125 2.336632 1.894725 -0.441907
792.22265625 2.092383 1.733757 -0.358626
792.6796875 2.18607 1.188901 -0.997169
793.59375 2.345764 1.729215 -0.616549
794.0234375 2.5603789999999997 1.86075 -0.699629
794.9140625 2.512093 1.794229 -0.717864
795.36328125 2.612698 1.970413 -0.642285
796.2890625 2.5925469999999997 1.874334 -0.718213
796.75 2.438494 1.735 -0.703494
797.73046875 2.619933 1.959933 -0.66
798.20703125 2.522569 1.761695 -0.760874
799.22265625 2.602634 1.892679 -0.709955
799.671875 2.736157 1.864205 -0.871952
800.640625 2.730751 2.052986 -0.677765
801.08203125 2.577758 1.847758 -0.73
802.0703125 2.712152 1.981398 -0.730754
802.54296875 2.6791300000000002 2.068833 -0.610297
803.6015625 2.674151 1.819151 -0.855
804.1015625 2.793312 2.163337 -0.629975
805.0859375 2.7094899999999997 2.05815 -0.65134
805.546875 2.817038 2.159819 -0.657219
806.44140625 2.629552 1.869953 -0.759599
806.90625 2.948976 2.30413 -0.644846
807.82421875 2.803101 2.051584 -0.751517
808.3125 2.807674 2.237222 -0.570452
809.25390625 2.63707 2.0891 -0.54797
809.74609375 2.6456530000000003 2.109649 -0.536004
810.67578125 2.235849 1.458657 -0.777192
811.15234375 2.600659 2.111185 -0.489474
812.046875 2.262825 1.559149 -0.703676
812.51171875 2.491695 1.912562 -0.579133
813.43359375 2.290566 1.468582 -0.821984
813.8984375 2.4748479999999997 1.971725 -0.503123
814.90234375 2.5127 1.924412 -0.588288
815.3828125 2.376026 1.516026 -0.86
816.44921875 2.506035 1.7386 -0.767435
816.93359375 2.616319 0.809843 -1.806476
817.8984375 2.430803 1.665846 -0.764957
818.359375 2.44041 0.425723 -2.014687
819.30078125 2.504394 1.69595 -0.808444
819.84765625 1.074477 0.389541 -0.684936
820.73828125 2.574467 1.724621 -0.849846
821.296875 2.68192 1.96 -0.72192
822.23828125 2.422715 1.663144 -0.759571
822.73046875 2.609203 1.969352 -0.639851
823.70703125 2.4325989999999997 1.636974 -0.795625
824.171875 2.554721 1.929772 -0.624949
825.15234375 2.478172 1.86457 -0.613602
825.6171875 2.154292 1.343215 -0.811077
826.69921875 2.19225 1.534905 -0.657345
827.19140625 2.59764 1.94896 -0.64868
828.3515625 2.520383 1.859399 -0.660984
828.84765625 2.782732 2.05438 -0.728352
829.98046875 2.559859 1.889859 -0.67
830.4453125 2.507323 1.803104 -0.704219
831.5703125 2.540472 1.857495 -0.682977
832.05078125 2.612276 1.989581 -0.622695
833.32421875 2.651803 1.924626 -0.727177
833.83203125 2.8504699999999996 2.154851 -0.695619
835.02734375 2.619825 2.008207 -0.611618
835.515625 2.717957 2.085486 -0.632471
836.69921875 2.552733 1.761987 -0.790746
837.1875 2.789442 2.078889 -0.710553
838.40625 2.49467 1.939773 -0.554897
838.9140625 2.725741 1.959757 -0.765984
840.1171875 2.5222249999999997 1.783634 -0.738591
840.64453125 2.9399640000000002 2.21497 -0.724994
841.7578125 2.632562 1.989807 -0.642755
842.25 3.0048880000000002 2.125 -0.879888
843.265625 2.488154 1.742274 -0.74588
843.75390625 2.9887539999999997 2.100535 -0.888219
844.88671875 2.61098 1.849909 -0.761071
845.3984375 2.793947 2.102218 -0.691729
846.6171875 2.52595 1.913659 -0.612291
847.12890625 2.96938 2.249197 -0.720183
848.2734375 2.504139 1.981948 -0.522191
848.75 2.449578 1.92 -0.529578
849.92578125 2.450598 1.852974 -0.597624
850.453125 2.8792039999999997 2.254583 -0.624621
851.6640625 2.492647 1.919785 -0.572862
852.19921875 3.03125 2.14518 -0.88607
853.30078125 2.622306 1.946535 -0.675771
853.7734375 1.3676599999999999 0.053292 -1.314368
854.86328125 2.683402 1.771363 -0.912039
855.36328125 2.585193 1.811237 -0.773956
856.51171875 2.6184700000000003 2.030387 -0.588083
857.02734375 2.87451 2.183223 -0.691287
858.2265625 2.0726240000000002 1.676644 -0.39598
858.765625 2.597002 1.987002 -0.61
859.9140625 1.717143 1.185 -0.532143
860.39453125 2.279927 1.599994 -0.679933
861.484375 1.269226 0.885643 -0.383583
863.1171875 1.276001 0.811681 -0.46432
863.6640625 1.4660549999999999 0.87 -0.596055
864.76171875 1.241917 0.742592 -0.499325
865.26953125 1.5449860000000002 1.039986 -0.505
866.3125 1.334359 0.827187 -0.507172
866.80078125 1.196526 0.077085 -1.119441
867.25390625 1.8415850000000002 1.031894 -0.809691
868.44140625 1.326616 0.886616 -0.44
868.93359375 1.138271 0.76 -0.378271
870.04296875 1.13398 0.980022 -0.153958
870.55078125 1.425267 1.034415 -0.390852
871.05859375 1.6323789999999998 1.039448 -0.592931
872.20703125 1.1617739999999999 0.802592 -0.359182
872.6484375 1.09842 0.39842 -0.7
873.73828125 1.184459 0.776725 -0.407734
874.2265625 1.625307 0.937755 -0.687552
875.3203125 1.156992 0.803859 -0.353133
875.83984375 1.304385 0.155532 -1.148853
876.921875 1.136765 0.723607 -0.413158
877.3828125 0.847205 0.024753 -0.822452
878.390625 1.1200109999999999 0.708374 -0.411637
878.8671875 1.629635 1.039044 -0.590591
879.859375 1.092364 0.747949 -0.344415
880.36328125 1.386501 0.878711 -0.50779
881.4296875 1.154319 0.653889 -0.50043
881.921875 1.249814 0.728384 -0.52143
882.984375 1.2260149999999999 0.906484 -0.319531
883.46875 1.221075 0.793219 -0.427856
884.546875 1.376871 0.967142 -0.409729
885.02734375 1.915708 1.36 -0.555708
886.10546875 1.330091 1.034967 -0.295124
886.6015625 1.8205459999999998 1.144008 -0.676538
887.73046875 1.3245689999999999 0.939927 -0.384642
888.2421875 1.6265889999999998 0.222948 -1.403641
889.34765625 1.5542310000000001 0.953809 -0.600422
889.84375 2.263906 1.553906 -0.71
890.8046875 1.494225 1.154472 -0.339753
891.52734375 1.609962 1.15451 -0.455452
892.05859375 1.632024 0.219553 -1.412471
892.5625 1.7273649999999998 0.998594 -0.728771
893.7734375 1.622703 1.214562 -0.408141
894.2578125 2.0751999999999997 0.504068 -1.571132
895.36328125 1.7180339999999998 1.019434 -0.6986
895.8125 0.968051 -0.173333 -1.141384
896.90234375 1.6627370000000001 1.163982 -0.498755
897.3984375 2.48205 1.823632 -0.658418
898.53515625 1.983749 1.570186 -0.413563
899.12890625 0.771894 0.141894 -0.63
900.1875 2.176015 1.395919 -0.780096
900.97265625 2.4211210000000003 1.570434 -0.850687
901.7109375 2.517615 1.809278 -0.708337
902.4375 2.519272 1.772714 -0.746558
902.94140625 2.018127 0.58786 -1.430267
903.39453125 2.628762 1.63957 -0.989192
904.5078125 2.5635199999999996 2.126206 -0.437314
905.3046875 2.733213 1.991471 -0.741742
906.0859375 2.5738440000000002 1.819504 -0.75434
906.84375 2.496678 1.776859 -0.719819
907.34375 2.254866 0.82286 -1.432006
908.40625 2.558118 1.895 -0.663118
908.890625 2.572658 2.038317 -0.534341
909.94140625 2.373137 1.884466 -0.488671
910.546875 1.098217 0.543459 -0.554758
911.55078125 2.518716 1.877902 -0.640814
912.328125 2.5154750000000003 1.834391 -0.681084
912.83203125 2.137487 0.964384 -1.173103
913.30859375 1.96482 1.353965 -0.610855
914.46875 2.605 1.903047 -0.701953
915.00390625 0.962783 0.237843 -0.72494
916.01953125 2.5840009999999998 1.779892 -0.804109
916.6015625 0.912544 0.432564 -0.47998
917.69140625 2.7071639999999997 1.894148 -0.813016
918.47265625 2.597415 1.920461 -0.676954
919.29296875 2.6836010000000003 1.996339 -0.687262
920.11328125 2.810816 2.05207 -0.758746
920.97265625 2.719635 1.956691 -0.762944
921.46484375 2.525323 0.705323 -1.82
922.70703125 2.676378 2.045998 -0.63038
923.65234375 2.7444620000000004 2.054028 -0.690434
924.55078125 2.737737 2.05219 -0.685547
925.45703125 2.674328 2.150453 -0.523875
926.43359375 2.818565 2.078691 -0.739874
927.32421875 2.7533090000000002 2.099781 -0.653528
928.2421875 2.766153 2.156359 -0.609794
929.2109375 2.658343 1.949779 -0.708564
930.1484375 2.678113 2.166586 -0.511527
931.046875 2.8187040000000003 2.232991 -0.585713
931.93359375 2.765756 2.023755 -0.742001
932.76953125 2.794384 1.984947 -0.809437
933.6328125 2.842335 2.127586 -0.714749
934.5078125 2.744042 1.952963 -0.791079
935.41796875 2.61686 2.039463 -0.577397
936.296875 2.337606 1.387961 -0.949645
937.1171875 2.711585 1.941292 -0.770293
937.9296875 2.74844 1.960532 -0.787908
938.7421875 2.8156600000000003 1.977926 -0.837734
939.54296875 2.642338 1.908182 -0.734156
940.421875 2.808768 2.044915 -0.763853
941.31640625 2.882153 1.999467 -0.882686
942.18359375 2.830518 2.19 -0.640518
943.0703125 2.701333 2.194484 -0.506849
943.94140625 2.7973079999999997 2.108802 -0.688506
944.78125 2.768099 2.2155 -0.552599
945.66015625 2.751636 2.304716 -0.44692
946.61328125 2.825241 2.17634 -0.648901
947.54296875 2.6995389999999997 2.092195 -0.607344
948.4921875 2.8097769999999995 2.14578 -0.663997
949.44140625 2.695017 2.038967 -0.65605
950.3046875 2.654698 2.038038 -0.61666
951.1953125 2.639357 2.08 -0.559357
952.1484375 2.639063 1.976806 -0.662257
953.08203125 2.718128 2.048268 -0.66986
954.02734375 2.803023 2.046384 -0.756639
954.921875 2.614586 1.927758 -0.686828
955.80078125 2.526205 1.85958 -0.666625
956.68359375 2.688599 1.795851 -0.892748
957.51171875 2.418849 1.438026 -0.980823
958.3984375 2.565496 1.842556 -0.72294
959.328125 2.490782 1.707609 -0.783173
960.23046875 2.592705 1.828951 -0.763754
961.14453125 2.719021 1.889769 -0.829252
962.0078125 2.500466 1.719812 -0.780654
962.8203125 2.514112 1.925005 -0.589107
963.609375 2.587115 1.745868 -0.841247
964.359375 2.444323 1.534792 -0.909531
965.16015625 2.489757 1.678663 -0.811094
965.98046875 2.354142 1.544946 -0.809196
966.54296875 2.3831819999999997 1.455582 -0.9276
966.9921875 2.25638 1.509114 -0.747266
968.09375 1.9578710000000001 1.371768 -0.586103
968.59375 2.3040950000000002 1.034095 -1.27
969.578125 2.253695 1.639391 -0.614304
970.1640625 1.1588690000000001 0.289841 -0.869028
971.08203125 2.392718 1.807882 -0.584836
971.58984375 2.125381 0.775381 -1.35
972.56640625 2.28203 1.779225 -0.502805
973.08203125 2.3250849999999996 0.71837 -1.606715
974.05078125 2.370096 1.70491 -0.665186
974.734375 2.298855 1.706625 -0.59223
975.23046875 1.792188 0.649921 -1.142267
975.67578125 2.2565429999999997 1.343783 -0.91276
976.8125 1.947155 1.5175 -0.429655
977.33203125 1.88166 0.624238 -1.257422
978.453125 1.661451 1.389102 -0.272349
979.20703125 1.5228169999999999 1.138795 -0.384022
979.9453125 1.52286 0.962538 -0.560322
980.43359375 1.3624930000000002 0.399131 -0.963362
980.8515625 1.407961 0.908923 -0.499038
982.07421875 1.333444 0.975 -0.358444
982.5625 0.554329 -0.016 -0.570329
983.76953125 1.130205 0.904956 -0.225249
984.24609375 0.573368 0.048685 -0.524683
985.41015625 1.068691 0.734055 -0.334636
986.1484375 1.214614 0.825023 -0.389591
986.87109375 1.18279 0.842914 -0.339876
987.60546875 1.084994 0.749994 -0.335
988.36328125 1.076625 0.701846 -0.374779
989.20703125 1.181649 0.751649 -0.43
990.06640625 1.093453 0.764266 -0.329187
990.58203125 1.04299 0.236047 -0.806943
991.70703125 1.154652 0.797421 -0.357231
992.50390625 1.103972 0.69089 -0.413082
993.2578125 1.008363 0.659187 -0.349176
994.09765625 1.1749999999999998 0.815 -0.36
995.0390625 1.1598870000000001 0.704887 -0.455
995.578125 1.127104 0.222104 -0.905
996.75 0.9226810000000001 0.53 -0.392681
997.59765625 0.948135 0.459541 -0.488594
998.3828125 0.999379 0.519553 -0.479826
998.89453125 1.099872 0.16997 -0.929902
999.359375 1.037471 0.498042 -0.539429
1000.5625 0.9067419999999999 0.442 -0.464742
1001.03125 0.8445210000000001 -0.065406 -0.909927
1002.26953125 1.024978 0.534994 -0.489984
1003.09375 1.063955 0.552012 -0.511943
1003.8515625 1.12761 0.682885 -0.444725
1004.34375 1.070567 0.181719 -0.888848
1004.78125 1.890352 1.134205 -0.756147
1005.95703125 1.120869 0.815896 -0.304973
1006.4296875 0.6567369999999999 -0.010824 -0.667561
1007.71484375 1.3149060000000001 0.804906 -0.51
1008.546875 1.32849 0.794805 -0.533685
1009.34765625 1.3583660000000002 0.844184 -0.514182
1010.12890625 1.349389 0.811065 -0.538324
1010.89453125 1.30505 0.740275 -0.564775
1011.6640625 1.380189 0.884669 -0.49552
1012.44921875 1.4030230000000001 0.933099 -0.469924
1013.30078125 1.424471 0.889471 -0.535
1014.12109375 1.3229030000000002 0.739585 -0.583318
1014.93359375 1.3522699999999999 0.879304 -0.472966
1015.765625 1.543417 1.123434 -0.419983
1016.58203125 1.5241259999999999 1.139238 -0.384888
1017.3515625 1.342739 0.842739 -0.5
1018.11328125 1.35161 0.950909 -0.400701
1018.93359375 1.485625 1.049753 -0.435872
1019.80859375 1.5641500000000002 1.205 -0.35915
1020.67578125 1.581552 0.967404 -0.614148
1021.48046875 1.5707330000000002 0.934973 -0.63576
1022.265625 1.5874329999999999 0.992474 -0.594959
1023.0625 1.6158000000000001 1.0958 -0.52
1023.87109375 1.6697030000000002 1.159235 -0.510468
1024.7109375 1.606045 1.094834 -0.511211
1025.5625 1.763512 1.213333 -0.550179
1026.40234375 1.8159830000000001 1.27955 -0.536433
1027.20703125 1.754464 1.223494 -0.53097
1028.02734375 1.941437 1.54752 -0.393917
1028.88671875 2.180152 1.608821 -0.571331
1029.734375 2.253826 1.601328 -0.652498
1030.609375 1.976194 1.495675 -0.480519
1031.5234375 2.3947019999999997 1.64 -0.754702
1032.40625 2.5593120000000003 1.837966 -0.721346
1033.30859375 2.427148 1.725848 -0.7013
1034.18359375 2.532687 1.571868 -0.960819
1034.984375 2.28406 1.541477 -0.742583
1035.89453125 2.398205 1.814976 -0.583229
1036.88671875 2.589699 1.883228 -0.706471
1037.85546875 2.70987 1.97987 -0.73
1038.7265625 2.57801 1.838345 -0.739665
1039.5703125 2.773225 2.008225 -0.765
1040.3515625 2.586599 1.851599 -0.735
1041.16015625 2.58627 1.892419 -0.693851
1042.03125 2.710204 2.018112 -0.692092
1042.98046875 2.618638 1.95405 -0.664588
1043.8984375 2.6488150000000004 2.033377 -0.615438
1044.89453125 2.6514100000000003 2.184968 -0.466442
1045.8828125 2.724024 2.061911 -0.662113
1046.78515625 2.564625 2.05714 -0.507485
1047.75 2.569847 1.965 -0.604847
1048.75 2.595351 1.855 -0.740351
1049.359375 2.21249 1.435909 -0.776581
1050.68359375 2.5727640000000003 2.006606 -0.566158
1051.2734375 1.270095 0.175095 -1.095
1052.37890625 2.4016729999999997 1.903158 -0.498515
1053.20703125 2.682265 1.940267 -0.741998
1054.0390625 2.670049 1.964979 -0.70507
1054.9765625 2.5271429999999997 1.647506 -0.879637
1055.5234375 2.310023 1.060023 -1.25
1056.01171875 2.470986 1.529257 -0.941729
1057.29296875 2.442118 1.721506 -0.720612
1057.7890625 2.424946 1.142602 -1.282344
1059.015625 2.370983 1.712656 -0.658327
1059.50390625 2.4713700000000003 1.083142 -1.388228
1059.96484375 2.109948 1.288431 -0.821517
1061.26171875 2.344994 1.583629 -0.761365
1061.7578125 1.4893109999999998 0.179239 -1.310072
1063.1171875 2.367489 1.614633 -0.752856
1063.6171875 2.9767930000000002 2.262157 -0.714636
1064.79296875 2.511034 1.974891 -0.536143
1065.30078125 2.970541 2.30415 -0.666391
1066.5625 2.368057 1.818693 -0.549364
1067.08984375 2.97444 2.422624 -0.551816
1068.4765625 2.499588 1.989588 -0.51
1068.984375 3.1272409999999997 2.443154 -0.684087
1070.23046875 2.375658 1.844365 -0.531293
1070.73828125 3.0431250000000003 2.338744 -0.704381
1072.01953125 2.282614 1.699969 -0.582645
1072.5234375 2.846148 2.272464 -0.573684
1073.9140625 2.3308109999999997 1.809929 -0.520882
1074.43359375 2.9437810000000004 2.319872 -0.623909
1075.7734375 2.132161 1.747709 -0.384452
1076.26953125 2.454958 1.959966 -0.494992
1077.5234375 2.310322 1.486572 -0.82375
1078.01171875 1.428126 0.006614 -1.421512
1079.42578125 2.31975 1.587473 -0.732277
1079.9765625 3.085692 2.152914 -0.932778
1081.2578125 2.532566 1.767793 -0.764773
1082.21875 2.708158 1.854672 -0.853486
1083.109375 2.619324 1.957062 -0.662262
1083.6328125 2.284814 0.92304 -1.361774
1084.1171875 2.499174 1.663088 -0.836086
1085.5 2.48926 1.775 -0.71426
1085.9921875 1.46875 0.209789 -1.258961
1087.3828125 2.5274330000000003 1.841677 -0.685756
1087.92578125 2.320536 0.870575 -1.449961
1088.375 2.661484 1.695 -0.966484
1089.6015625 2.4551990000000004 1.765454 -0.689745
1090.171875 1.224454 0.241961 -0.982493
1091.421875 2.5354039999999998 1.849195 -0.686209
1091.97265625 2.4337590000000002 0.893325 -1.540434
1093.2578125 2.52135 1.690023 -0.831327
1094.171875 2.589174 1.77666 -0.812514
1094.67578125 2.143576 0.632234 -1.511342
1095.90625 2.5248939999999997 1.542352 -0.982542
1096.85546875 2.490005 1.584897 -0.905108
1097.4296875 2.210323 0.70488 -1.505443
1097.921875 2.3826970000000003 1.453815 -0.928882
1099.2109375 2.321435 1.561652 -0.759783
1099.78515625 1.081401 0.059658 -1.021743
1100.953125 1.9228729999999998 1.522104 -0.400769
1101.46484375 2.61396 1.87527 -0.73869
1102.71484375 1.525063 1.222888 -0.302175
1103.25390625 1.673037 0.593107 -1.07993
1104.578125 1.376085 0.966085 -0.41
1105.54296875 1.3251439999999999 0.940151 -0.384993
1106.0546875 1.529449 0.39 -1.139449
1106.52734375 1.640002 0.952884 -0.687118
1107.8203125 1.160581 0.957221 -0.20336
1108.33203125 1.373862 0.46 -0.913862
1109.703125 1.254842 0.92491 -0.329932
1110.74609375 1.2103679999999999 0.930986 -0.279382
1111.6953125 1.032807 0.739456 -0.293351
1112.68359375 1.110676 0.809286 -0.30139
1113.21875 1.108066 0.181906 -0.92616
1114.54296875 1.041001 0.811001 -0.23
1115.6171875 1.0671 0.7821 -0.285
1116.61328125 1.044397 0.669397 -0.375
1117.66015625 1.0869520000000001 0.706952 -0.38
1118.19921875 1.144681 0.105 -1.039681
1119.453125 1.083716 0.704888 -0.378828
1120.4296875 1.151229 0.762544 -0.388685
1121.0078125 1.145 0.235 -0.91
1121.54296875 1.216776 0.693258 -0.523518
1122.8828125 1.165916 0.943781 -0.222135
1123.34765625 0.699441 0.099638 -0.599803
1124.65234375 1.204589 0.955566 -0.249023
1125.1640625 1.3835700000000002 0.644977 -0.738593
1126.41015625 1.312972 1.11181 -0.201162
1127.0234375 1.495167 0.586211 -0.908956
1128.32421875 1.153822 0.899447 -0.254375
1129.26953125 1.3349820000000001 1.054988 -0.279994
1129.8125 1.588553 0.583824 -1.004729
1130.3046875 1.518853 0.86778 -0.651073
1131.52734375 1.293814 0.993821 -0.299993
1132.03125 1.6322160000000001 0.727321 -0.904895
1133.31640625 1.28812 0.919898 -0.368222
1134.2421875 1.3635840000000001 1.033835 -0.329749
1134.7890625 1.723613 0.6798 -1.043813
1135.28515625 1.9526210000000002 1.256637 -0.695984
1136.4921875 1.337529 0.940755 -0.396774
1136.9765625 1.749676 0.82651 -0.923166
1138.21875 1.565172 1.170201 -0.394971
1138.75390625 1.98365 0.778762 -1.204888
1140.03125 1.533067 1.160641 -0.372426
1140.5625 2.530324 1.838625 -0.691699
1141.80078125 1.807391 1.295161 -0.51223
1142.30078125 2.8049920000000004 2.067883 -0.737109
1143.46484375 2.152036 1.657779 -0.494257
1143.97265625 2.491336 1.293044 -1.198292
1145.2109375 2.404411 1.739803 -0.664608
1145.7421875 2.9544879999999996 2.177691 -0.776797
1147.046875 2.618582 1.963036 -0.655546
1147.546875 3.033712 2.239483 -0.794229
1148.73828125 2.533394 1.89 -0.643394
1149.23046875 2.967504 2.209895 -0.757609
1150.50390625 2.551918 1.811816 -0.740102
1151.0390625 3.022913 2.199962 -0.822951
1152.375 2.544575 1.9 -0.644575
1152.8984375 2.8814889999999997 2.171489 -0.71
1154.140625 2.399819 1.738613 -0.661206
1154.63671875 2.9539429999999998 2.138025 -0.815918
1155.90234375 2.642625 1.847861 -0.794764
1156.4453125 3.039134 2.145 -0.894134
1157.73046875 2.499898 1.874898 -0.625
1158.26953125 3.029886 2.284964 -0.744922
1159.53515625 2.545996 1.910954 -0.635042
1160.04296875 3.1022950000000002 2.27361 -0.828685
1161.265625 2.6201559999999997 1.989822 -0.630334
1161.76171875 3.163255 2.363563 -0.799692
1163.05859375 2.696797 1.978572 -0.718225
1163.609375 3.214747 2.377754 -0.836993
1164.9140625 2.680468 2.014668 -0.6658
1165.41796875 3.191271 2.413536 -0.777735
1166.65625 2.559336 1.91475 -0.644586
1167.140625 3.1783010000000003 2.353914 -0.824387
1168.3984375 2.7047689999999998 2.021607 -0.683162
1168.94140625 3.13415 2.34 -0.79415
1170.25390625 2.447137 1.867331 -0.579806
1170.765625 3.1127270000000005 2.380768 -0.731959
1172.01953125 2.8189019999999996 2.154816 -0.664086
1172.5234375 3.199743 2.429449 -0.770294
1173.72265625 2.7155810000000002 2.003531 -0.71205
1174.21875 3.1798840000000004 2.354051 -0.825833
1175.55078125 2.773785 1.956839 -0.816946
1176.0703125 3.272961 2.373832 -0.899129
1177.3515625 2.781864 1.98117 -0.800694
1177.86328125 3.159465 2.145 -1.014465
1179.09375 2.745847 1.953529 -0.792318
1179.58984375 3.307707 2.472707 -0.835
1180.93359375 2.887896 2.178602 -0.709294
1181.47265625 3.37042 2.56792 -0.8025
1182.78125 2.774286 2.069506 -0.70478
1183.2890625 3.159441 2.409441 -0.75
1184.484375 2.64311 2.077539 -0.565571
1184.9921875 2.908469 1.688866 -1.219603
1186.22265625 2.683491 2.089728 -0.593763
1186.765625 3.2790470000000003 2.550675 -0.728372
1188.0078125 2.7453689999999997 2.099811 -0.645558
1188.97265625 2.829578 2.106113 -0.723465
1189.93359375 2.901072 2.2 -0.701072
1190.46484375 2.665005 1.29698 -1.368025
1191.65625 2.621364 2.048286 -0.573078
1192.59375 2.747076 2.076145 -0.670931
1193.5859375 2.7665990000000003 1.984734 -0.781865
1194.5390625 2.667736 1.97 -0.697736
1195.09375 2.711374 1.2839 -1.427474
1196.32421875 2.743592 2.008305 -0.735287
1197.28515625 2.699275 1.897064 -0.802211
1198.25 2.746978 2.0 -0.746978
1199.25 2.819931 2.025 -0.794931
1200.2578125 2.68154 1.862984 -0.818556
1201.25 2.704903 1.9 -0.804903
1202.20703125 2.65434 1.868545 -0.785795
1203.21484375 2.631757 1.879383 -0.752374
1203.7578125 2.510041 1.224244 -1.285797
1205.07421875 2.544886 1.951471 -0.593415
1206.19140625 2.561906 1.828118 -0.733788
1207.2265625 2.468165 1.807921 -0.660244
1208.2421875 2.474097 1.836178 -0.637919
1209.26171875 2.434159 1.748886 -0.685273
1209.796875 2.4880240000000002 1.213837 -1.274187
1211.1328125 2.311341 1.757737 -0.553604
1212.20703125 2.101011 1.53 -0.571011
1212.76953125 2.2441079999999998 1.07 -1.174108
1214.0390625 1.755577 1.410577 -0.345
1215.0703125 1.6613630000000001 1.199157 -0.462206
1215.6015625 1.9374280000000002 0.832799 -1.104629
1216.91796875 1.4016250000000001 1.286842 -0.114783
1217.48828125 1.905994 0.864698 -1.041296
1218.76171875 0.9046339999999999 0.724698 -0.179936
1220.578125 1.251806 0.769819 -0.481987
1221.1015625 1.766164 0.587914 -1.17825
1221.58203125 1.577788 0.732219 -0.845569
1222.9140625 1.1886860000000001 0.764642 -0.424044
1223.46484375 1.7842120000000001 0.679212 -1.105
1224.80078125 1.202214 0.814533 -0.387681
1225.3203125 1.655 0.645 -1.01
1226.58203125 1.12567 0.754769 -0.370901
1227.078125 1.951918 1.271918 -0.68
1228.34765625 1.141587 0.888283 -0.253304
1228.890625 1.683685 0.819487 -0.864198
1230.2265625 1.088912 0.742043 -0.346869
1230.75390625 1.8873319999999998 1.161055 -0.726277
1232.04296875 1.149851 0.944851 -0.205
1232.546875 1.615733 0.841104 -0.774629
1233.78515625 1.11791 0.80791 -0.31
1234.31640625 1.869249 1.215797 -0.653452
1235.62109375 1.044564 0.630954 -0.41361
1236.62890625 1.169748 0.742879 -0.426869
1237.18359375 1.55452 0.479266 -1.075254
1238.3828125 1.095587 0.740755 -0.354832
1238.88671875 1.964421 1.315 -0.649421
1240.1328125 1.062709 0.763068 -0.299641
1240.6953125 1.6287289999999999 0.733729 -0.895
1241.90234375 1.123665 0.803665 -0.32
1242.4609375 1.554841 0.739841 -0.815
1243.5546875 1.133729 0.843729 -0.29
1244.0703125 1.543971 0.663971 -0.88
1245.26171875 1.140107 0.856669 -0.283438
1246.18359375 1.138543 0.829466 -0.309077
1246.73046875 1.5848179999999998 0.639945 -0.944873
1248.0234375 1.120851 0.780918 -0.339933
1248.6015625 1.748602 0.789008 -0.959594
1249.89453125 1.274124 0.844599 -0.429525
1250.390625 2.157024 1.461572 -0.695452
1251.5859375 1.1824109999999999 0.979725 -0.202686
1252.11328125 1.653271 0.872338 -0.780933
1253.4296875 1.16303 1.403577 0.240547
1254.421875 1.144434 0.928201 -0.216233
1254.9765625 1.9949270000000001 0.77 -1.224927
1256.21484375 1.192202 0.652985 -0.539217
1257.18359375 1.399336 0.809123 -0.590213
1257.71484375 2.219272 0.955 -1.264272
1259.0625 1.3448039999999999 0.787143 -0.557661
1259.61328125 2.132022 1.048486 -1.083536
1260.984375 1.4152360000000002 1.001576 -0.41366
1261.5234375 2.326262 1.305 -1.021262
1262.79296875 1.503498 1.097411 -0.406087
1263.31640625 2.4019589999999997 1.329466 -1.072493
1264.63671875 1.525051 1.17105 -0.354001
1265.203125 2.587405 1.919671 -0.667734
1266.55078125 1.8005719999999998 1.342336 -0.458236
1267.1015625 2.786832 1.680696 -1.106136
1268.35546875 1.935832 1.445832 -0.49
1268.859375 2.838356 2.110675 -0.727681
1270.15625 2.085242 1.604635 -0.480607
1270.72265625 2.937679 2.207679 -0.73
1272.0546875 2.198695 1.697617 -0.501078
1272.6015625 3.174019 2.021483 -1.152536
1273.890625 2.194875 1.538732 -0.656143
1274.40234375 2.601757 1.053411 -1.548346
1275.60546875 2.424995 1.684995 -0.74
1276.51171875 2.644493 1.891812 -0.752681
1277.48828125 2.692931 1.960344 -0.732587
1278.046875 2.597199 0.897243 -1.699956
1279.3984375 2.79491 2.19292 -0.60199
1280.375 2.7846219999999997 2.09 -0.694622
1281.30859375 2.7953040000000002 2.163876 -0.631428
1282.3515625 2.846482 2.186482 -0.66
1283.48828125 2.724428 1.99 -0.734428
1284.546875 2.654226 1.998421 -0.655805
1285.62890625 2.630578 2.112005 -0.518573
1286.6953125 2.737648 2.18 -0.557648
1287.76171875 2.769405 2.134882 -0.634523
1288.7890625 2.716472 2.120575 -0.595897
1289.8828125 2.773338 2.191688 -0.58165
1290.98046875 2.780602 2.219875 -0.560727
1292.04296875 2.7704449999999996 2.193818 -0.576627
1293.0703125 2.7669989999999998 2.099274 -0.667725
1294.109375 2.728011 2.16357 -0.564441
1295.265625 2.7999449999999997 2.143753 -0.656192
1296.390625 2.8235650000000003 2.13005 -0.693515
1297.46484375 2.752106 2.074277 -0.677829
1298.48046875 2.7 2.095 -0.605
1299.56640625 2.909165 2.274009 -0.635156
1300.6875 2.976361 2.137778 -0.838583
1301.73828125 2.678433 2.032165 -0.646268
1302.80859375 2.724002 2.069503 -0.654499
1303.83203125 2.615791 2.007118 -0.608673
1304.8828125 2.714402 2.018558 -0.695844
1305.9453125 2.701472 2.008295 -0.693177
1307.01171875 2.749927 2.067753 -0.682174
1308.12109375 2.841659 2.088034 -0.753625
1309.11328125 2.606714 1.965425 -0.641289
1310.0859375 2.824431 1.994866 -0.829565
1311.16015625 2.770645 1.919902 -0.850743
1312.234375 2.731519 2.041071 -0.690448
1313.26953125 2.813073 2.029967 -0.783106
1314.3359375 2.838387 2.224867 -0.61352
1315.35546875 2.904969 2.189969 -0.715
1316.37109375 2.955803 2.169126 -0.786677
1317.33203125 2.939807 2.177074 -0.762733
1318.3203125 2.805582 2.217538 -0.588044
1319.41015625 2.8698539999999997 2.325509 -0.544345
1320.5703125 2.862407 2.378067 -0.48434
1321.69921875 2.8278220000000003 2.357549 -0.470273
1322.8046875 2.737341 2.32983 -0.407511
1323.9140625 2.818462 2.2049 -0.613562
1325.03125 2.734748 2.185608 -0.54914
1326.15625 2.75868 2.184641 -0.574039
1327.25 2.69495 2.165 -0.52995
1328.296875 2.69676 2.069022 -0.627738
1329.30078125 2.581467 2.072354 -0.509113
1330.40625 2.458647 1.984 -0.474647
1331.52734375 2.301496 1.799715 -0.501781
1332.61328125 1.98596 1.497288 -0.488672
1333.76953125 2.014586 1.489951 -0.524635
1334.79296875 1.759729 1.31112 -0.448609
1335.80859375 1.580968 1.119163 -0.461805
1336.8828125 1.461654 1.043456 -0.418198
1338.01171875 1.458887 1.019406 -0.439481
1339.16796875 1.450329 1.05 -0.400329
1340.1796875 1.3417189999999999 0.981719 -0.36
1341.265625 1.305722 0.932363 -0.373359
1342.3515625 1.336541 0.968869 -0.367672
1343.4921875 1.259575 0.863456 -0.396119
1344.51171875 1.220884 0.78 -0.440884
1345.51953125 1.2279870000000002 0.739979 -0.488008
1346.5390625 1.284359 0.789774 -0.494585
1347.5390625 1.269977 0.864977 -0.405
1348.4765625 1.186579 0.796826 -0.389753
1349.484375 1.173683 0.731183 -0.4425
1350.5625 1.323571 0.808571 -0.515
1351.59765625 1.271877 0.819852 -0.452025
1352.55859375 1.3042880000000001 0.849295 -0.454993
1353.55859375 1.262359 0.874888 -0.387471
1354.53515625 1.2995809999999999 0.852699 -0.446882
1355.65625 1.425148 1.032358 -0.39279
1356.67578125 1.291536 0.973118 -0.318418
1357.71484375 1.352224 0.952762 -0.399462
1358.7734375 1.532111 1.093923 -0.438188
1359.76171875 1.5299749999999999 1.155138 -0.374837
1360.83984375 1.5649359999999999 1.1878 -0.377136
1361.9375 1.619004 1.195 -0.424004
1362.94140625 1.548014 1.228014 -0.32
1363.91015625 1.741185 1.339763 -0.401422
1364.90234375 1.762238 1.372984 -0.389254
1365.90234375 1.7001789999999999 1.368136 -0.332043
1366.95703125 1.7835079999999999 1.418801 -0.364707
1368.05078125 1.924347 1.364564 -0.559783
1369.11328125 1.9349889999999998 1.407028 -0.527961
1370.1171875 1.999807 1.519807 -0.48
1371.05859375 2.147009 1.674282 -0.472727
1372.02734375 2.356491 1.789028 -0.567463
1373.02734375 2.469094 1.794049 -0.675045
1374.0703125 2.550429 1.895716 -0.654713
1375.15234375 2.709588 2.033049 -0.676539
1376.14453125 2.669108 2.054909 -0.614199
1377.14453125 2.673186 2.034861 -0.638325
1378.19921875 2.670038 1.968544 -0.701494
1379.26953125 2.5949 1.994995 -0.599905
1380.359375 2.611009 2.094607 -0.516402
1381.42578125 2.589444 2.09713 -0.492314
1382.421875 2.501856 1.97 -0.531856
1383.375 2.655918 1.97 -0.685918
1384.31640625 2.645409 1.919374 -0.726035
1385.3046875 2.595482 1.909771 -0.685711
1386.2890625 2.572574 1.864733 -0.707841
1387.3046875 2.479127 1.900554 -0.578573
1388.3125 2.5568589999999998 1.930875 -0.625984
1389.2578125 2.505975 1.88981 -0.616165
1390.2734375 2.499893 1.910598 -0.589295
1391.37109375 2.624389 1.891846 -0.732543
1392.4140625 2.6397779999999997 1.904874 -0.734904
1393.46484375 2.672213 1.915047 -0.757166
1394.46484375 2.663818 1.924272 -0.739546
1395.421875 2.638555 1.934349 -0.704206
1396.44921875 2.6864879999999998 1.939282 -0.747206
1397.5625 2.62892 1.942838 -0.686082
1398.67578125 2.6373949999999997 2.063941 -0.573454
1399.77734375 2.6515009999999997 2.087716 -0.563785
1400.81640625 2.682842 1.994953 -0.687889
1401.94921875 2.613549 2.026525 -0.587024
1403.078125 2.5892609999999996 2.014099 -0.575162
1404.21875 2.617814 2.040719 -0.577095
1405.3203125 2.632233 2.074467 -0.557766
1406.34375 2.656334 1.99915 -0.657184
1407.3828125 2.65455 1.994442 -0.660108
1408.44140625 2.598821 2.069587 -0.529234
1409.55078125 2.645371 2.0 -0.645371
1410.72265625 2.634108 2.025 -0.609108
1411.78515625 2.55988 1.930361 -0.629519
1412.87109375 2.62164 1.991743 -0.629897
1413.9375 2.700555 2.092838 -0.607717
1415.04296875 2.697101 2.112302 -0.584799
1416.19140625 2.782012 2.169617 -0.612395
1417.2734375 2.626217 2.151982 -0.474235
1418.34375 2.667428 2.154205 -0.513223
1419.31640625 2.738424 2.209841 -0.528583
1420.4140625 2.64892 2.229445 -0.419475
1421.52734375 2.708669 2.28 -0.428669
1422.57421875 2.600819 2.108007 -0.492812
1423.5390625 2.446609 1.794977 -0.651632
1424.41015625 2.45763 1.82811 -0.62952
1425.2734375 2.568803 1.980843 -0.58796
1426.1171875 2.633162 1.987449 -0.645713
1427.00390625 2.386468 1.894136 -0.492332
1427.87890625 2.362517 1.615135 -0.747382
1428.71484375 2.442561 1.5613 -0.881261
1429.54296875 2.299474 1.615648 -0.683826
1430.359375 2.488975 1.728975 -0.76
1431.1953125 2.480887 1.749978 -0.730909
1432.03515625 2.519428 1.790345 -0.729083
1432.8984375 2.423124 1.635703 -0.787421
1433.73828125 2.4026 1.595847 -0.806753
1434.59375 2.360166 1.651179 -0.708987
1435.5 2.43486 1.635 -0.79986
1436.015625 1.897005 0.534257 -1.362748
1437.203125 2.287294 1.584145 -0.703149
1438.078125 2.361743 1.677923 -0.68382
1438.6171875 1.8572000000000002 0.677426 -1.179774
1439.8984375 2.240873 1.678016 -0.562857
1440.8671875 2.296043 1.718113 -0.57793
1441.38671875 2.00835 0.658411 -1.349939
1442.578125 2.216181 1.732933 -0.483248
1443.09375 2.061056 0.576056 -1.485
1444.30078125 2.0241290000000003 1.269511 -0.754618
1444.8359375 1.516167 -0.120056 -1.636223
1446.08984375 1.666669 1.221669 -0.445
1446.6171875 1.7380269999999998 0.507948 -1.230079
1447.1171875 1.42309 0.869258 -0.553832
1448.36328125 1.67386 1.266899 -0.406961
1448.8359375 2.0270799999999998 0.669615 -1.357465
1450.10546875 1.60494 1.20494 -0.4
1450.6171875 1.837394 0.547528 -1.289866
1451.921875 1.3911609999999999 1.004308 -0.386853
1452.4609375 1.592918 0.429848 -1.16307
1453.72265625 1.324856 0.889036 -0.43582
1454.19921875 1.444653 0.345 -1.099653
1455.3671875 1.170737 0.74435 -0.426387
1455.86328125 1.2420039999999999 0.29 -0.952004
1457.20703125 1.1068250000000002 0.726825 -0.38
1457.75390625 1.459739 0.959739 -0.5
1459.03515625 1.008574 0.813612 -0.194962
1459.54296875 1.40171 1.04671 -0.355
1460.79296875 1.015 0.815 -0.2
1461.27734375 1.433371 1.089402 -0.343969
1462.546875 1.0222419999999999 0.859081 -0.163161
1463.08203125 1.409958 1.096521 -0.313437
1464.38671875 0.9008039999999999 0.751726 -0.149078
1464.91796875 1.621667 1.1784 -0.443267
1466.109375 0.93498 0.71248 -0.2225
1466.59375 1.708641 1.218641 -0.49
1467.73046875 0.949689 0.68 -0.269689
1468.23046875 1.623138 1.074929 -0.548209
1469.5 1.04 0.775 -0.265
1470.0234375 1.389413 0.970729 -0.418684
1471.3125 0.982504 0.6785 -0.304004
1471.796875 1.534909 1.089909 -0.445
1473.015625 1.026354 0.70857 -0.317784
1473.5 1.538238 1.03 -0.508238
1474.78515625 1.038508 0.858508 -0.18
1475.3203125 1.5188819999999998 1.172327 -0.346555
1476.640625 1.018821 0.863092 -0.155729
1477.1640625 1.628922 1.299845 -0.329077
1478.3984375 1.211327 0.957643 -0.253684
1478.8828125 1.698945 1.341562 -0.357383
1480.02734375 1.157656 1.102699 -0.054957
1480.546875 1.294005 0.639059 -0.654946
1481.796875 1.288427 1.153427 -0.135
1482.3203125 1.5130430000000001 1.25 -0.263043
1483.53125 1.4157860000000002 1.203472 -0.212314
1484.015625 1.752643 1.362326 -0.390317
1485.09765625 1.415806 1.291685 -0.124121
1485.59765625 1.382189 0.54451 -0.837679
1486.828125 1.399461 1.124461 -0.275
1487.3359375 1.429789 1.029789 -0.4
1488.62109375 1.441928 1.10708 -0.334848
1489.12890625 1.811331 1.281391 -0.52994
1490.33203125 1.579497 1.275476 -0.304021
1490.828125 1.398008 0.44 -0.958008
1492.109375 1.504251 1.199251 -0.305
1492.6171875 1.5512210000000002 0.339301 -1.21192
1493.953125 1.674302 1.269334 -0.404968
1494.48828125 1.613131 0.524707 -1.088424
1495.71484375 1.687211 1.328699 -0.358512
1496.21484375 1.6032220000000001 1.053536 -0.549686
1497.40234375 1.879774 1.508694 -0.37108
1497.8984375 1.864988 0.451321 -1.413667
1499.17578125 2.054489 1.608099 -0.44639
1500.1015625 2.286725 1.856725 -0.43
1500.640625 2.1502429999999997 0.573591 -1.576652
1501.16796875 1.989617 1.246422 -0.743195
1502.41796875 2.4941690000000003 2.046044 -0.448125
1502.8984375 2.628132 0.821895 -1.806237
1504.13671875 2.524477 1.948664 -0.575813
1505.03125 2.629201 1.989313 -0.639888
1505.57421875 2.50161 0.754579 -1.747031
1506.0859375 2.198281 1.474857 -0.723424
1507.390625 2.546195 2.061567 -0.484628
1507.8828125 2.799981 0.951663 -1.848318
1509.09765625 2.613789 2.066329 -0.54746
1509.58203125 2.612034 0.848783 -1.763251
1510.8515625 2.641605 2.091605 -0.55
1511.41796875 2.637995 0.709152 -1.928843
1512.69921875 2.60069 1.955878 -0.644812
1513.21484375 2.554393 0.642249 -1.912144
1514.43359375 2.576055 1.838978 -0.737077
1514.92578125 2.1952249999999998 0.97 -1.225225
1516.08203125 2.310268 1.62654 -0.683728
1516.625 2.019415 0.8 -1.219415
1517.12109375 1.9028109999999998 1.149894 -0.752917
1518.41796875 2.391808 1.71842 -0.673388
1518.92578125 2.531357 0.94 -1.591357
1520.19140625 2.439503 1.804503 -0.635
1520.67578125 2.48525 1.848348 -0.636902
1521.84375 2.422278 1.939174 -0.483104
1522.34375 2.174028 0.990859 -1.183169
1523.62890625 2.291573 1.646858 -0.644715
1524.15625 2.302415 1.747 -0.555415
1525.37109375 2.393067 1.826962 -0.566105
1525.8671875 2.217406 1.613123 -0.604283
1527.05078125 2.389999 1.699326 -0.690673
1527.5390625 2.061368 1.299778 -0.76159
1528.76953125 2.417211 1.854931 -0.56228
1529.3046875 2.188846 1.539502 -0.649344
1530.5390625 2.4132860000000003 1.714282 -0.699004
1531.0546875 2.6022800000000004 1.987008 -0.615272
1532.21484375 2.355791 1.812336 -0.543455
1532.70703125 2.464495 1.909265 -0.55523
1533.87890625 2.364449 1.709993 -0.654456
1534.39453125 2.336228 0.874861 -1.461367
1535.6640625 2.4374700000000002 1.794848 -0.642622
1536.203125 2.599812 1.954812 -0.645
1537.48046875 2.4749670000000004 1.809967 -0.665
1537.9921875 2.367689 0.905255 -1.462434
1539.2109375 2.462131 1.870587 -0.591544
1539.71875 2.882658 2.205 -0.677658
1540.99609375 2.434886 1.903154 -0.531732
1541.5390625 2.654766 2.119766 -0.535
1542.8515625 2.508705 1.940418 -0.568287
1543.3671875 2.803756 2.211626 -0.59213
1544.54296875 2.5150419999999998 1.921093 -0.593949
1545.05078125 2.30715 1.678565 -0.628585
1546.328125 2.4303850000000002 1.689256 -0.741129
1546.84765625 2.647291 0.944773 -1.702518
1548.16015625 2.545114 1.885496 -0.659618
1548.6875 2.400547 1.780547 -0.62
1549.92578125 2.348961 1.664576 -0.684385
1550.515625 1.080667 0.142425 -0.938242
1551.6484375 2.394573 1.764659 -0.629914
1552.15625 2.036728 0.743537 -1.293191
1553.46875 2.4416789999999997 1.780384 -0.661295
1554.02734375 2.386975 0.877256 -1.509719
1555.34375 2.49561 1.747095 -0.748515
1555.84765625 2.215686 0.854362 -1.361324
1556.33203125 2.204885 1.378258 -0.826627
1557.5859375 2.771423 2.061123 -0.7103
1558.109375 2.527455 1.43248 -1.094975
1559.39453125 2.550286 2.099954 -0.450332
1559.94921875 2.611496 1.361596 -1.2499
1560.4453125 2.168164 1.579176 -0.588988
1561.75390625 2.247724 1.79398 -0.453744
1562.25 2.7249999999999996 1.555 -1.17
1563.55859375 2.493717 1.96755 -0.526167
1564.0703125 2.49003 1.068016 -1.422014
1564.5625 2.166127 1.4697 -0.696427
1566.0 2.469923 1.8 -0.669923
1567.07421875 2.468045 1.80595 -0.662095
1568.046875 2.537179 1.871892 -0.665287
1568.57421875 2.438842 1.022476 -1.416366
1569.03515625 2.382776 1.535323 -0.847453
1570.38671875 2.4183380000000003 1.82343 -0.594908
1571.54296875 2.483298 1.797109 -0.686189
1572.10546875 2.228495 1.239663 -0.988832
1572.61328125 2.398023 1.53473 -0.863293
1573.9453125 2.043121 1.619481 -0.42364
1574.4375 1.959063 0.906371 -1.052692
1574.9140625 2.008706 1.258706 -0.75
1576.26953125 1.619906 1.274966 -0.34494
1577.36328125 1.5426099999999998 1.14187 -0.40074
1578.328125 1.4076849999999999 0.94336 -0.464325
1579.33984375 1.440759 1.054906 -0.385853
1579.87890625 1.3719359999999998 0.416936 -0.955
1580.359375 1.502231 0.867231 -0.635
1581.64453125 1.174978 0.869978 -0.305
1582.7421875 1.194665 0.9 -0.294665
1583.8828125 1.227412 0.888068 -0.339344
1584.984375 1.2024270000000001 0.808027 -0.3944
1586.046875 1.195327 0.864062 -0.331265
1587.1953125 1.234755 0.907544 -0.327211
1588.25 1.194875 0.84 -0.354875
1589.2421875 1.152342 0.721522 -0.43082
1590.265625 1.15168 0.706696 -0.444984
1591.3828125 1.166243 0.783431 -0.382812
1592.38671875 1.187154 0.808486 -0.378668
1593.47265625 1.248235 0.843897 -0.404338
1594.640625 1.161504 0.815385 -0.346119
1595.77734375 1.243452 0.947539 -0.295913
1596.9296875 1.231354 0.962277 -0.269077
1598.0859375 1.2843710000000002 1.019851 -0.26452
1599.26953125 1.253153 1.014955 -0.238198
1600.515625 1.300387 1.020643 -0.279744
1601.71875 1.3607470000000002 1.047079 -0.313668
1602.94140625 1.352674 1.024947 -0.327727
1604.05078125 1.434877 1.08602 -0.348857
1605.1640625 1.472309 1.059674 -0.412635
1606.22265625 1.4273219999999998 1.007386 -0.419936
1607.37890625 1.4813450000000001 1.025954 -0.455391
1608.62109375 1.57838 1.144302 -0.434078
1609.80078125 1.641563 1.186563 -0.455
1610.7578125 1.7008800000000002 1.273287 -0.427593
1611.7421875 1.8075039999999998 1.397984 -0.40952
1612.7890625 1.744949 1.244949 -0.5
1613.75390625 1.785241 1.260241 -0.525
1614.69921875 2.015313 1.511871 -0.503442
1615.2890625 2.073958 0.848981 -1.224977
1615.78125 2.225455 1.332031 -0.893424
1617.0390625 2.426317 1.884928 -0.541389
1618.0 2.661365 1.97 -0.691365
1618.98828125 2.655986 1.862715 -0.793271
1619.953125 2.516943 1.824495 -0.692448
1620.52734375 2.38847 1.004541 -1.383929
1621.03515625 2.4156370000000003 1.592208 -0.823429
1622.40234375 2.615271 1.934418 -0.680853
1623.5 2.574931 1.97 -0.604931
1624.625 2.6898899999999997 2.05 -0.63989
1625.203125 2.5614790000000003 1.069429 -1.49205
1625.71875 2.443785 1.609844 -0.833941
1627.16015625 2.492578 1.896546 -0.596032
1628.2890625 2.643096 2.090583 -0.552513
1628.8203125 2.5075399999999997 1.10258 -1.40496
1629.296875 2.393297 1.615853 -0.777444
1630.75390625 2.580937 2.08318 -0.497757
1631.97265625 2.712189 2.15956 -0.552629
1632.53515625 2.5240080000000003 1.106377 -1.417631
1633.03515625 2.568636 1.728636 -0.84
1634.4296875 2.6921690000000003 2.141913 -0.550256
1635.64453125 2.803758 2.239874 -0.563884
1636.17578125 2.527313 1.227113 -1.3002
1636.68359375 2.0847689999999997 1.374302 -0.710467
1638.21484375 2.6422640000000004 2.274856 -0.367408
1638.74609375 2.744021 1.157625 -1.586396
1639.234375 2.524509 1.817891 -0.706618
1640.60546875 2.634873 2.144873 -0.49
1641.7265625 2.729028 2.201826 -0.527202
1642.265625 2.67765 1.123447 -1.554203
1642.75390625 2.524896 1.818127 -0.706769
1644.23828125 2.682785 2.176818 -0.505967
1645.421875 2.7541700000000002 2.292495 -0.461675
1645.9453125 2.646906 1.132399 -1.514507
1646.4140625 2.582313 1.799863 -0.78245
1647.81640625 2.657814 2.104507 -0.553307
1649.01953125 2.724347 2.324912 -0.399435
1649.58203125 2.613851 1.113487 -1.500364
1650.078125 2.55596 1.804182 -0.751778
1651.52734375 2.663532 2.178341 -0.485191
1652.68359375 2.809644 2.304644 -0.505
1653.20703125 2.613616 1.145003 -1.468613
1653.66796875 2.489303 1.754953 -0.73435
1655.12890625 2.4903969999999997 2.05413 -0.436267
1656.40625 2.691368 2.275681 -0.415687
1656.9453125 2.594898 1.166759 -1.428139
1657.43359375 2.3959669999999997 1.716616 -0.679351
1658.81640625 2.628043 2.134351 -0.493692
1659.34375 2.618894 1.273894 -1.345
1659.8125 2.346081 1.735543 -0.610538
1661.28125 2.49114 1.996604 -0.494536
1662.5625 2.6237 2.10872 -0.51498
1663.109375 2.556342 1.136241 -1.420101
1663.6015625 2.29692 1.603474 -0.693446
1664.96875 2.44877 1.904531 -0.544239
1665.45703125 2.4341180000000002 0.960859 -1.473259
1665.92578125 2.277978 1.524491 -0.753487
1667.4375 2.425996 1.882448 -0.543548
1668.6328125 2.462793 1.868287 -0.594506
1669.18359375 2.400913 0.894473 -1.50644
1669.6484375 2.338523 1.542225 -0.796298
1671.03125 2.3658099999999997 1.740068 -0.625742
1672.1796875 2.510909 1.88892 -0.621989
1672.734375 2.38553 0.900645 -1.484885
1673.2421875 2.268998 1.618018 -0.65098
1674.7265625 2.378845 1.808845 -0.57
1675.828125 2.574283 1.994411 -0.579872
1676.35546875 2.316615 0.945287 -1.371328
1676.81640625 2.418388 1.684951 -0.733437
1678.1875 2.349741 1.849274 -0.500467
1679.36328125 2.45406 1.905354 -0.548706
1679.921875 2.3535459999999997 1.008516 -1.34503
1680.42578125 2.323891 1.647332 -0.676559
1681.8125 2.304003 1.768667 -0.535336
1682.875 2.423867 1.885 -0.538867
1683.3984375 2.363588 1.02141 -1.342178
1683.88671875 2.247548 1.512548 -0.735
1685.27734375 2.240187 1.663904 -0.576283
1686.48046875 2.15495 1.64495 -0.51
1687.02734375 2.024577 0.839192 -1.185385
1687.52734375 1.733172 1.038665 -0.694507
1688.87109375 1.708636 1.322136 -0.3865
1689.38671875 1.858816 0.603616 -1.2552
1689.86328125 1.801759 1.189422 -0.612337
1691.2578125 1.477394 1.147426 -0.329968
1691.78515625 1.5375189999999999 0.50206 -1.035459
1692.296875 1.7209940000000001 1.139785 -0.581209
1693.6328125 1.219545 0.834545 -0.385
1694.09375 0.868127 0.099167 -0.76896
1695.33203125 1.228173 1.028297 -0.199876
1695.859375 1.175277 0.512493 -0.662784
1696.328125 1.5804589999999998 1.07375 -0.506709
1697.6796875 1.156331 0.856337 -0.299994
1698.20703125 1.259693 0.408738 -0.850955
1698.68359375 1.4144780000000001 0.93 -0.484478
1699.96484375 1.032917 0.742985 -0.289932
1700.37890625 0.9396100000000001 -0.061437 -1.001047
1701.75 0.871521 0.725 -0.146521
1702.28515625 0.8838900000000001 0.385 -0.49889
1702.828125 1.241784 0.7 -0.541784
1704.2109375 1.044054 0.749249 -0.294805
1704.73046875 1.209926 0.234949 -0.974977
1706.03125 1.0872600000000001 0.637391 -0.449869
1706.9765625 1.116227 0.66896 -0.447267
1707.484375 1.157158 0.192172 -0.964986
1708.77734375 1.084022 0.604022 -0.48
1709.80078125 1.0816970000000001 0.551697 -0.53
1710.359375 1.195208 0.125605 -1.069603
1711.69921875 1.165252 0.74842 -0.416832
1712.6796875 1.206635 0.78228 -0.424355
1713.1953125 1.206626 0.241626 -0.965
1713.6953125 1.393094 0.766033 -0.627061
1715.1328125 1.197232 0.949553 -0.247679
1716.32421875 1.23342 0.94342 -0.29
1716.87109375 1.255982 0.457914 -0.798068
1718.2265625 1.213592 0.968341 -0.245251
1718.765625 1.307615 0.424217 -0.883398
1719.27734375 1.384727 0.904087 -0.48064
1720.6953125 1.297591 0.996132 -0.301459
1721.8828125 1.310191 1.022691 -0.2875
1722.44921875 1.4231989999999999 0.495 -0.928199
1722.984375 1.5691700000000002 1.06 -0.50917
1724.375 1.449458 1.085 -0.364458
1725.40625 1.3642809999999999 1.029281 -0.335
1725.9453125 1.4640140000000001 0.519937 -0.944077
1726.44921875 1.518844 0.918348 -0.600496
1727.94921875 1.458537 1.163544 -0.294993
1729.09765625 1.524319 1.096382 -0.427937
1730.12890625 1.453794 1.110421 -0.343373
1730.6640625 1.603392 0.50471 -1.098682
1731.17578125 1.576236 0.977085 -0.599151
1732.56640625 1.6207479999999999 1.114779 -0.505969
1733.703125 1.583268 1.238407 -0.344861
1734.2734375 1.6106569999999998 0.53116 -1.079497
1734.78125 1.627569 1.091536 -0.536033
1736.16015625 1.789934 1.310458 -0.479476
1737.140625 1.9796399999999998 1.497561 -0.482079
1737.6640625 1.828584 0.689859 -1.138725
1738.93359375 1.994641 1.344949 -0.649692
1739.51171875 1.750042 0.41653 -1.333512
1740.765625 2.0991850000000003 1.435 -0.664185
1741.62109375 2.309698 1.472276 -0.837422
1742.55078125 2.391283 1.518637 -0.872646
1743.4140625 2.373571 1.589846 -0.783725
1743.98046875 2.575287 1.44 -1.135287
1744.46875 2.033293 1.365289 -0.668004
1745.8125 2.280895 1.5 -0.780895
1746.34375 1.9028520000000002 0.43355 -1.469302
1747.546875 2.35663 1.474391 -0.882239
1748.34765625 2.465392 1.421403 -1.043989
1749.11328125 2.427029 1.475 -0.952029
1749.921875 2.368723 1.444915 -0.923808
1750.71875 2.383022 1.483424 -0.899598
1751.578125 2.2955829999999997 1.24 -1.055583
1752.1484375 2.128489 0.851333 -1.277156
1752.62890625 2.300069 1.486156 -0.813913
1753.89453125 2.469753 1.814469 -0.655284
1754.34765625 1.4682590000000002 0.014428 -1.453831
1755.5078125 2.438251 1.867722 -0.570529
1756.40625 2.639967 1.945381 -0.694586
1756.96875 2.097319 0.847754 -1.249565
1757.4921875 2.355975 1.538905 -0.81707
1758.69921875 2.3977180000000002 1.791017 -0.606701
1759.2109375 1.9852020000000001 0.861662 -1.12354
1760.2890625 2.381764 1.81432 -0.567444
1760.78515625 2.3335350000000004 0.849361 -1.484174
1761.24609375 1.872414 1.26 -0.612414
1762.41796875 2.182398 1.540607 -0.641791
1762.94921875 2.170309 0.997344 -1.172965
1764.1015625 2.292386 1.616528 -0.675858
1764.6328125 3.0799339999999997 2.255715 -0.824219
1765.7109375 2.4143310000000002 1.889612 -0.524719
1766.2109375 2.5384219999999997 1.049316 -1.489106
1767.30078125 2.277191 1.507074 -0.770117
1767.79296875 2.8842369999999997 2.272407 -0.61183
1769.00390625 2.286216 1.698369 -0.587847
1769.546875 3.092334 2.294342 -0.797992
1770.76171875 2.374706 1.835217 -0.539489
1771.28125 3.048115 2.372321 -0.675794
1772.44140625 2.289074 1.659846 -0.629228
1772.9375 3.1190689999999996 2.385385 -0.733684
1774.0625 2.3521330000000003 1.916727 -0.435406
1774.59765625 2.379313 1.857974 -0.521339
1775.8359375 2.4609579999999998 1.894533 -0.566425
1776.359375 2.776405 2.0964 -0.680005
1777.5 2.624891 1.995 -0.629891
1778.01171875 2.2102329999999997 1.5169 -0.693333
1778.50390625 2.021256 1.257034 -0.764222
1779.703125 2.445937 1.927464 -0.518473
1780.2109375 2.6134150000000003 1.999602 -0.613813
1781.4140625 2.509217 1.879636 -0.629581
1782.26953125 2.619295 1.935 -0.684295
1782.80078125 2.661064 0.871544 -1.78952
1783.3046875 3.045818 2.201257 -0.844561
1784.4453125 2.3732670000000002 1.809493 -0.563774
1784.91796875 2.119015 1.480151 -0.638864
1786.02734375 2.5662469999999997 1.794036 -0.772211
1786.546875 2.306242 0.75613 -1.550112
1787.66796875 2.456953 1.793541 -0.663412
1788.22265625 1.9918679999999997 0.52987 -1.461998
1789.28125 2.596648 1.833145 -0.763503
1790.03515625 2.561472 1.827938 -0.733534
1790.5546875 2.2737730000000003 0.819464 -1.454309
1791.02734375 3.0613900000000003 2.19139 -0.87
1792.1875 2.447453 1.775833 -0.67162
1792.6875 1.236786 0.191786 -1.045
1793.89453125 2.463085 1.763955 -0.69913
1794.4296875 2.262191 0.719163 -1.543028
1794.93359375 2.1407369999999997 1.399174 -0.741563
1796.15625 2.532248 1.789952 -0.742296
1796.98828125 2.686946 1.907816 -0.77913
1797.84375 2.746698 1.966283 -0.780415
1798.80859375 2.774661 2.013323 -0.761338
1799.3828125 2.2294650000000003 0.64371 -1.585755
1800.73828125 2.3539849999999998 1.754745 -0.59924
1801.7265625 2.436959 1.800286 -0.636673
1802.69140625 2.543679 1.629212 -0.914467
1803.2265625 2.037288 0.917288 -1.12
1803.70703125 2.035238 1.261498 -0.77374
