4.19921875 2.586826 1.536433 -1.050393
4.51171875 0.18518799999999996 0.302455 0.117267
5.09375 2.509256 1.514256 -0.995
5.421875 0.464134 0.38 -0.084134
5.78125 0.26250799999999996 -0.007031 -0.269539
6.83203125 2.198542 1.819406 -0.379136
7.21875 0.35691399999999995 0.343008 -0.013906
7.75 2.531035 1.6 -0.931035
8.03125 0.166968 0.324594 0.157626
8.578125 2.479521 1.534521 -0.945
9.5 2.605 1.605 -1.0
10.4296875 2.486685 1.515403 -0.971282
11.26953125 2.483962 1.520301 -0.963661
12.18359375 2.547193 1.553285 -0.993908
13.109375 2.51253 1.515483 -0.997047
13.98828125 2.483757 1.440689 -1.043068
14.9375 2.538517 1.463723 -1.074794
15.9453125 2.47601 1.428237 -1.047773
16.83203125 2.5152479999999997 1.420248 -1.095
17.8203125 2.5864260000000003 1.484337 -1.102089
18.88671875 2.569254 1.469317 -1.099937
19.78125 2.499317 1.360298 -1.139019
20.77734375 2.5745009999999997 1.450467 -1.124034
21.7421875 2.5141169999999997 1.436418 -1.077699
22.60546875 2.498491 1.332439 -1.166052
23.55078125 2.56181 1.392598 -1.169212
24.49609375 2.467581 1.37274 -1.094841
25.37890625 2.512807 1.408276 -1.104531
26.37890625 2.499169 1.460244 -1.038925
27.37109375 2.494392 1.474446 -1.019946
28.28125 2.529737 1.444943 -1.084794
29.2734375 2.654772 1.490087 -1.164685
30.2578125 2.4949019999999997 1.449902 -1.045
31.1796875 2.486534 1.332884 -1.15365
32.171875 2.560877 1.368865 -1.192012
33.1015625 2.486199 1.366199 -1.12
33.98828125 2.5025649999999997 1.347565 -1.155
34.96875 2.6081469999999998 1.438147 -1.17
35.94921875 2.511508 1.416508 -1.095
36.8359375 2.592465 1.414774 -1.177691
37.82421875 2.5449 1.360834 -1.184066
38.74609375 2.508997 1.396972 -1.112025
39.67578125 2.554838 1.341077 -1.213761
40.62890625 2.593031 1.414216 -1.178815
41.578125 2.5925380000000002 1.422538 -1.17
42.46484375 2.5516680000000003 1.328583 -1.223085
43.4375 2.5988049999999996 1.372391 -1.226414
44.3828125 2.501846 1.332336 -1.16951
45.2890625 2.519863 1.324863 -1.195
46.25 2.569559 1.35 -1.219559
47.2734375 2.591904 1.442476 -1.149428
48.203125 2.493184 1.344107 -1.149077
49.1875 2.590798 1.420852 -1.169946
50.1328125 2.4722049999999998 1.378388 -1.093817
51.03125 2.504264 1.346762 -1.157502
51.98828125 2.604064 1.417678 -1.186386
52.9296875 2.5423229999999997 1.465984 -1.076339
53.79296875 2.4997730000000002 1.395475 -1.104298
54.77734375 2.6581770000000002 1.48862 -1.169557
55.70703125 2.550307 1.452447 -1.09786
56.59375 2.5186159999999997 1.4 -1.118616
57.58203125 2.6168259999999997 1.400988 -1.215838
58.5234375 2.5960010000000002 1.436326 -1.159675
59.3984375 2.543635 1.419208 -1.124427
60.36328125 2.5951389999999996 1.44627 -1.148869
61.27734375 2.550873 1.501917 -1.048956
62.16015625 2.5515939999999997 1.5168 -1.034794
63.12890625 2.617056 1.574288 -1.042768
64.09375 2.603092 1.580289 -1.022803
64.98828125 2.548292 1.518586 -1.029706
65.96484375 2.5704700000000003 1.497522 -1.072948
66.8984375 2.490357 1.500842 -0.989515
67.7890625 2.479477 1.441506 -1.037971
68.80078125 2.561405 1.531767 -1.029638
69.77734375 2.582507 1.589916 -0.992591
70.68359375 2.562904 1.542929 -1.019975
71.6953125 2.626485 1.524485 -1.102
72.65625 2.602493 1.528999 -1.073494
73.58984375 2.581134 1.516748 -1.064386
74.5546875 2.55108 1.468325 -1.082755
75.5390625 2.548127 1.494727 -1.0534
76.515625 2.491926 1.503464 -0.988462
77.42578125 2.5285140000000004 1.484593 -1.043921
78.34765625 2.5319000000000003 1.492713 -1.039187
79.32421875 2.539694 1.482848 -1.056846
80.2421875 2.436353 1.376416 -1.059937
81.20703125 2.547882 1.407882 -1.14
82.203125 2.547942 1.484919 -1.063023
83.12890625 2.525991 1.397176 -1.128815
84.11328125 2.5627500000000003 1.450051 -1.112699
85.1015625 2.528449 1.479526 -1.048923
86.04296875 2.45936 1.404922 -1.054438
87.01171875 2.568737 1.45865 -1.110087
88.03515625 2.5432040000000002 1.473715 -1.069489
88.94140625 2.5348610000000003 1.467761 -1.0671
89.88671875 2.5540760000000002 1.454209 -1.099867
90.84375 2.537935 1.438212 -1.099723
91.7421875 2.489068 1.396422 -1.092646
92.66015625 2.573326 1.383532 -1.189794
93.64453125 2.594586 1.369586 -1.225
94.51953125 2.4507649999999996 1.314258 -1.136507
96.25390625 2.153233 1.573281 -0.579952
97.15625 2.5286730000000004 1.375428 -1.153245
98.85546875 2.136246 1.506654 -0.629592
100.578125 2.076499 1.507035 -0.569464
102.33203125 2.240224 1.725326 -0.514898
104.01171875 2.1661449999999998 1.652073 -0.514072
105.7109375 2.271147 1.833705 -0.437442
107.37109375 2.165158 1.730765 -0.434393
109.0703125 2.099075 1.704801 -0.394274
110.73046875 2.139494 1.709942 -0.429552
112.3828125 2.100861 1.654506 -0.446355
114.05078125 2.282574 1.78 -0.502574
115.6875 2.129746 1.615072 -0.514674
117.28125 2.6440900000000003 1.509557 -1.134533
118.8515625 2.613801 1.397391 -1.21641
120.4375 2.652394 1.487394 -1.165
122.046875 2.69934 1.52934 -1.17
123.68359375 2.668256 1.563297 -1.104959
125.3125 2.6805149999999998 1.567273 -1.113242
126.921875 2.614524 1.559324 -1.0552
128.48828125 2.7078990000000003 1.635469 -1.07243
130.046875 2.620216 1.560918 -1.059298
131.66015625 2.4501989999999996 1.370313 -1.079886
133.359375 2.638026 1.504807 -1.133219
134.99609375 2.572407 1.461511 -1.110896
136.62109375 2.644916 1.42 -1.224916
138.28515625 2.606191 1.431191 -1.175
139.921875 2.7191739999999998 1.524533 -1.194641
141.58203125 2.601702 1.436702 -1.165
143.21875 2.64363 1.504143 -1.139487
144.83984375 2.5825519999999997 1.413244 -1.169308
146.10546875 2.658181 1.49987 -1.158311
147.20703125 2.536501 1.403587 -1.132914
147.88671875 2.613107 2.049736 -0.563371
148.30859375 2.8796340000000002 1.695 -1.184634
149.38671875 2.469804 1.399932 -1.069872
150.30078125 2.524658 1.346837 -1.177821
151.22265625 2.598844 1.423844 -1.175
152.140625 2.5160270000000002 1.436027 -1.08
153.02734375 2.554023 1.397062 -1.156961
153.9609375 2.627465 1.419517 -1.207948
154.96875 2.5391500000000002 1.387369 -1.151781
155.8828125 2.533733 1.364625 -1.169108
156.88671875 2.608254 1.469346 -1.138908
157.8984375 2.5257259999999997 1.409022 -1.116704
158.8671875 2.60134 1.376483 -1.224857
159.91015625 2.641489 1.460835 -1.180654
160.921875 2.527974 1.419333 -1.108641
161.83984375 2.6204289999999997 1.461401 -1.159028
162.7890625 2.6631270000000002 1.568958 -1.094169
163.7109375 2.509075 1.524075 -0.985
164.625 2.6420250000000003 1.59 -1.052025
165.5703125 2.557506 1.495931 -1.061575
166.5546875 2.469619 1.494619 -0.975
167.484375 2.535209 1.510972 -1.024237
168.4921875 2.6599969999999997 1.625156 -1.034841
169.5234375 2.534017 1.596947 -0.93707
170.47265625 2.667931 1.539572 -1.128359
171.51953125 2.599627 1.559971 -1.039656
172.5546875 2.539179 1.509179 -1.03
173.546875 2.5592189999999997 1.414219 -1.145
174.59375 2.651481 1.496038 -1.155443
175.63671875 2.514617 1.42474 -1.089877
176.58984375 2.550166 1.425823 -1.124343
177.609375 2.614864 1.440777 -1.174087
178.55859375 2.558197 1.478197 -1.08
179.5 2.5947829999999996 1.44 -1.154783
180.56640625 2.657418 1.504291 -1.153127
181.53125 2.557473 1.434001 -1.123472
182.50390625 2.61809 1.404134 -1.213956
183.48828125 2.609258 1.452198 -1.15706
184.42578125 2.525683 1.410683 -1.115
185.36328125 2.577666 1.452819 -1.124847
186.37890625 2.5936009999999996 1.457253 -1.136348
187.37109375 2.570364 1.471629 -1.098735
188.40234375 2.630656 1.509146 -1.12151
189.44140625 2.667712 1.607989 -1.059723
190.4140625 2.557682 1.537975 -1.019707
191.37109375 2.601637 1.505983 -1.095654
192.34375 2.6793310000000004 1.559331 -1.12
193.29296875 2.521856 1.497241 -1.024615
194.26171875 2.621544 1.491731 -1.129813
195.23046875 2.586298 1.504965 -1.081333
196.20703125 2.513716 1.445683 -1.068033
197.1796875 2.536105 1.417332 -1.118773
198.1484375 2.579706 1.435522 -1.144184
199.15234375 2.588293 1.51377 -1.074523
200.09765625 2.5215129999999997 1.439117 -1.082396
201.07421875 2.61454 1.543702 -1.070838
202.06640625 2.549192 1.506399 -1.042793
203.0078125 2.4928369999999997 1.444622 -1.048215
203.98046875 2.213901 1.214879 -0.999022
204.98046875 1.6878730000000002 0.869982 -0.817891
205.8984375 1.38615 0.605641 -0.780509
206.91015625 1.339462 0.592691 -0.746771
207.87890625 1.357504 0.557504 -0.8
208.82421875 1.584022 0.734022 -0.85
209.80859375 1.499787 0.666633 -0.833154
210.828125 2.43475 1.427961 -1.006789
211.7578125 2.56837 1.521409 -1.046961
212.75390625 2.5373799999999997 1.498526 -1.038854
213.76171875 2.473628 1.47378 -0.999848
214.703125 2.499457 1.469457 -1.03
215.69921875 2.5260160000000003 1.441016 -1.085
216.6953125 2.523366 1.453821 -1.069545
217.6015625 2.488894 1.398924 -1.08997
218.5546875 2.5649480000000002 1.458896 -1.106052
219.5234375 2.477462 1.432781 -1.044681
220.40234375 2.451122 1.394149 -1.056973
221.34765625 2.5086209999999998 1.403645 -1.104976
222.3125 2.464376 1.414444 -1.049932
223.171875 2.4118760000000004 1.387596 -1.02428
224.0859375 2.5397 1.3997 -1.14
225.0703125 2.4419649999999997 1.362973 -1.078992
225.95703125 2.410253 1.355253 -1.055
226.875 2.409297 1.29 -1.119297
227.87890625 2.4450760000000002 1.357416 -1.08766
228.80859375 2.343446 1.329511 -1.013935
229.6953125 2.4042760000000003 1.292076 -1.1122
230.6796875 2.407561 1.319867 -1.087694
231.6015625 2.39882 1.274137 -1.124683
232.4765625 2.337007 1.255674 -1.081333
233.44921875 2.392967 1.307013 -1.085954
234.375 2.2920249999999998 1.25 -1.042025
235.234375 2.354579 1.297567 -1.057012
236.2109375 2.414057 1.319536 -1.094521
237.12890625 2.367095 1.280088 -1.087007
237.99609375 2.323813 1.243269 -1.080544
238.9140625 2.361306 1.228884 -1.132422
239.82421875 2.365562 1.257022 -1.10854
240.67578125 2.2568989999999998 1.178202 -1.078697
241.60546875 2.3246849999999997 1.181382 -1.143303
242.56640625 2.363073 1.229069 -1.134004
243.46875 2.228619 1.148682 -1.079937
244.41796875 2.354934 1.218568 -1.136366
245.453125 2.401516 1.288672 -1.112844
246.4296875 2.318062 1.277159 -1.040903
247.37109375 2.3089 1.2389 -1.07
248.36328125 2.345058 1.31587 -1.029188
249.3125 2.233531 1.275816 -0.957715
250.23046875 2.36248 1.29997 -1.06251
251.18359375 2.338571 1.273585 -1.064986
252.10546875 2.264646 1.274797 -0.989849
253.00390625 2.219107 1.2021 -1.017007
253.953125 2.270161 1.267138 -1.003023
254.9609375 2.278181 1.304211 -0.97397
255.87109375 2.2399649999999998 1.205088 -1.034877
256.82421875 2.315 1.26 -1.055
257.82421875 2.247983 1.233216 -1.014767
258.796875 2.304546 1.239546 -1.065
259.7421875 2.327785 1.237808 -1.089977
260.7421875 2.2886480000000002 1.208383 -1.080265
261.64453125 2.151478 1.144978 -1.0065
262.55859375 2.176667 1.086715 -1.089952
263.51953125 2.295457 1.179717 -1.11574
264.46484375 2.252419 1.180805 -1.071614
265.3515625 2.301037 1.147102 -1.153935
266.34765625 2.3008110000000004 1.193993 -1.106818
267.2421875 2.2255260000000003 1.185707 -1.039819
268.16796875 2.2348280000000003 1.174971 -1.059857
269.125 2.216601 1.21 -1.006601
270.09375 2.189993 1.234993 -0.955
270.9921875 2.2649600000000003 1.265179 -0.999781
271.9921875 2.331584 1.313076 -1.018508
272.9453125 2.317445 1.337939 -0.979506
273.828125 2.221929 1.324139 -0.89779
274.78515625 2.243445 1.308257 -0.935188
275.74609375 2.252357 1.342451 -0.909906
276.66015625 2.217227 1.305931 -0.911296
277.5859375 2.3485899999999997 1.324799 -1.023791
278.5703125 2.336067 1.342075 -0.993992
279.453125 2.233281 1.283281 -0.95
280.40234375 2.29316 1.317777 -0.975383
281.34375 2.285202 1.30684 -0.978362
282.2109375 2.348633 1.349321 -0.999312
283.2109375 2.4273540000000002 1.384574 -1.04278
284.1875 2.27492 1.295 -0.97992
285.0859375 2.223891 1.264825 -0.959066
286.0703125 2.338569 1.360358 -0.978211
287.01953125 2.318782 1.347337 -0.971445
287.9140625 2.344173 1.414223 -0.92995
288.87890625 2.3740940000000004 1.399744 -0.97435
289.8046875 2.334326 1.443025 -0.891301
290.6953125 2.248986 1.359203 -0.889783
291.69921875 2.342542 1.437542 -0.905
292.65234375 2.2930219999999997 1.435091 -0.857931
293.5625 2.305355 1.435451 -0.869904
294.5625 2.379568 1.455397 -0.924171
295.52734375 2.325872 1.447941 -0.877931
296.4453125 2.320767 1.427431 -0.893336
297.45703125 2.3347860000000003 1.409786 -0.925
298.41015625 2.313718 1.402128 -0.91159
299.34375 2.3299909999999997 1.360774 -0.969217
300.33203125 2.369827 1.399827 -0.97
301.28125 2.334268 1.374268 -0.96
302.1953125 2.378985 1.344253 -1.034732
303.16796875 2.3784910000000004 1.343541 -1.03495
304.09765625 2.357448 1.386265 -0.971183
305.0234375 2.325216 1.383243 -0.941973
305.9765625 2.382589 1.396205 -0.986384
306.91796875 2.45724 1.459605 -0.997635
307.83984375 2.255169 1.380533 -0.874636
308.80859375 2.329576 1.354576 -0.975
309.80859375 2.364442 1.404171 -0.960271
310.8203125 2.325925 1.40803 -0.917895
311.72265625 2.387076 1.434176 -0.9529
312.6875 2.3965170000000002 1.449615 -0.946902
313.6640625 2.344468 1.444468 -0.9
314.578125 2.399232 1.424232 -0.975
315.5390625 2.399222 1.449828 -0.949394
316.51953125 2.386813 1.469813 -0.917
317.40234375 2.345528 1.378014 -0.967514
318.37890625 2.374882 1.369882 -1.005
319.34765625 2.327513 1.399154 -0.928359
320.23828125 2.299988 1.355365 -0.944623
321.1640625 2.458881 1.448881 -1.01
322.1171875 2.296848 1.341848 -0.955
322.96484375 2.265838 1.267407 -0.998431
323.8984375 2.328846 1.316694 -1.012152
324.8203125 2.16958 1.246857 -0.922723
325.703125 2.283773 1.318773 -0.965
326.66015625 2.384413 1.338328 -1.046085
327.6875 2.433839 1.40887 -1.024969
328.546875 2.486195 1.431195 -1.055
329.51171875 2.478151 1.39567 -1.082481
330.43359375 2.399235 1.389249 -1.009986
332.18359375 2.039558 1.584745 -0.454813
333.109375 2.354284 1.360546 -0.993738
334.80078125 1.999843 1.496229 -0.503614
336.55078125 1.9389530000000001 1.459907 -0.479046
338.3125 2.088155 1.573561 -0.514594
339.99609375 2.059937 1.583452 -0.476485
341.74609375 1.872473 1.428643 -0.44383
343.37890625 2.432252 1.391331 -1.040921
345.03125 2.492572 1.434124 -1.058448
346.65625 2.601362 1.504872 -1.09649
348.3046875 2.542231 1.500949 -1.041282
349.953125 2.586923 1.516923 -1.07
351.5859375 2.479909 1.434909 -1.045
353.24609375 2.58404 1.521704 -1.062336
354.88671875 2.543866 1.443926 -1.09994
356.546875 2.582515 1.489833 -1.092682
358.16015625 2.4873979999999998 1.435688 -1.05171
359.81640625 2.583728 1.539061 -1.044667
361.50390625 2.597763 1.56988 -1.027883
363.16796875 2.405491 1.421237 -0.984254
364.8125 2.599703 1.530532 -1.069171
366.43359375 2.594855 1.539855 -1.055
368.06640625 2.594453 1.579609 -1.014844
369.71875 2.5061720000000003 1.46217 -1.044002
371.41796875 1.96374 1.528879 -0.434861
373.1328125 2.150048 1.696359 -0.453689
374.88671875 2.0299389999999997 1.574299 -0.45564
376.6328125 2.040812 1.603966 -0.436846
378.3203125 2.04977 1.547536 -0.502234
379.96875 1.96408 1.510194 -0.453886
381.61328125 2.611264 1.552358 -1.058906
383.21484375 2.511492 1.469038 -1.042454
384.8515625 2.460205 1.470205 -0.99
386.484375 2.5418950000000002 1.517247 -1.024648
388.12890625 2.528041 1.53045 -0.997591
389.7890625 2.625291 1.644754 -0.980537
391.41796875 2.488604 1.568049 -0.920555
393.046875 2.631161 1.687411 -0.94375
394.65234375 2.596752 1.66894 -0.927812
396.25 2.4749999999999996 1.65 -0.825
397.80859375 2.607497 1.724803 -0.882694
399.40234375 2.558063 1.713775 -0.844288
401.046875 2.6633839999999998 1.788228 -0.875156
402.671875 2.515314 1.689533 -0.825781
404.3125 2.666786 1.801786 -0.865
405.98046875 2.043019 1.744081 -0.298938
407.609375 2.092546 1.78757 -0.304976
409.2421875 2.114665 1.806384 -0.308281
410.96484375 2.136884 1.819521 -0.317363
412.61328125 2.222733 1.898963 -0.32377
414.32421875 2.121075 1.784179 -0.336896
415.97265625 2.184059 1.787353 -0.396706
417.578125 2.183578 1.733523 -0.450055
419.2265625 2.163883 1.758967 -0.404916
420.85546875 2.177054 1.719775 -0.457279
422.578125 2.066297 1.578564 -0.487733
424.2265625 2.301126 1.786634 -0.514492
425.9296875 2.192196 1.708212 -0.483984
427.6328125 2.106649 1.693881 -0.412768
429.265625 2.235483 1.765 -0.470483
430.94140625 2.201395 1.786807 -0.414588
432.54296875 2.192126 1.754114 -0.438012
434.140625 2.155785 1.686243 -0.469542
435.75 2.229715 1.745 -0.484715
437.375 2.0803700000000003 1.61 -0.47037
439.04296875 2.219364 1.698658 -0.520706
440.640625 2.126152 1.601152 -0.525
442.2578125 2.031542 1.551672 -0.47987
443.83203125 2.1553139999999997 1.607939 -0.547375
445.4609375 2.155895 1.634958 -0.520937
447.109375 2.274258 1.794281 -0.479977
448.70703125 2.134853 1.716513 -0.41834
450.3671875 2.295829 1.854225 -0.441604
451.95703125 2.172959 1.763984 -0.408975
453.61328125 2.111657 1.759372 -0.352285
455.25390625 2.115375 1.680459 -0.434916
456.91796875 2.184672 1.774767 -0.409905
458.640625 2.275086 1.798521 -0.476565
460.34375 2.131284 1.651352 -0.479932
462.00390625 2.2315579999999997 1.681579 -0.549979
463.72265625 2.060409 1.58457 -0.475839
465.42578125 2.229104 1.755 -0.474104
467.13671875 2.17162 1.714717 -0.456903
468.83984375 2.117675 1.653107 -0.464568
470.62109375 2.167071 1.69544 -0.471631
472.375 2.17 1.67 -0.5
474.10546875 2.082276 1.6298 -0.452476
475.89453125 2.1483 1.627523 -0.520777
477.6015625 2.076257 1.506745 -0.569512
479.25 2.240023 1.615 -0.625023
480.9140625 2.1460980000000003 1.574402 -0.571696
482.5625 2.100168 1.520096 -0.580072
484.25 2.277584 1.635 -0.642584
485.9375 2.098814 1.494189 -0.604625
487.62109375 2.141375 1.588846 -0.552529
489.3046875 2.099177 1.501614 -0.597563
490.9375 2.152005 1.542735 -0.60927
492.55859375 2.12933 1.53933 -0.59
494.21875 2.037544 1.472721 -0.564823
495.8515625 2.200298 1.596725 -0.603573
497.5390625 2.0871009999999997 1.49914 -0.587961
499.1875 2.194436 1.609592 -0.584844
500.80859375 2.0920419999999997 1.489688 -0.602354
502.46484375 2.1524229999999998 1.597878 -0.554545
504.11328125 2.038221 1.493221 -0.545
505.8671875 2.148722 1.671017 -0.477705
507.55859375 2.07539 1.581521 -0.493869
509.2890625 2.145436 1.680594 -0.464842
510.9609375 2.212244 1.739911 -0.472333
512.66015625 2.076838 1.653318 -0.42352
514.3515625 2.180226 1.806723 -0.373503
516.08984375 2.078683 1.73628 -0.342403
517.73828125 2.179583 1.735651 -0.443932
519.47265625 2.134522 1.727181 -0.407341
521.1953125 2.268061 1.865632 -0.402429
522.90625 2.096759 1.747059 -0.3497
524.59765625 2.148264 1.764175 -0.384089
526.21484375 2.1962829999999998 1.811807 -0.384476
527.8828125 2.0620060000000002 1.746772 -0.315234
529.546875 2.183151 1.854215 -0.328936
531.23046875 2.2236830000000003 1.859871 -0.363812
532.9453125 2.251436 1.901299 -0.350137
534.5546875 2.12174 1.752823 -0.368917
536.23046875 2.228324 1.804815 -0.423509
537.83203125 2.223774 1.743995 -0.479779
539.51953125 2.229063 1.814797 -0.414266
541.109375 2.250241 1.720387 -0.529854
542.73828125 2.201712 1.721943 -0.479769
544.33203125 2.208703 1.784125 -0.424578
545.94921875 2.1826879999999997 1.68905 -0.493638
547.61328125 2.246893 1.810136 -0.436757
549.30078125 2.140956 1.725688 -0.415268
550.96875 2.2120629999999997 1.742163 -0.4699
552.60546875 2.202752 1.699781 -0.502971
554.24609375 2.162783 1.668659 -0.494124
555.87890625 2.197766 1.617875 -0.579891
557.46875 2.1049249999999997 1.585179 -0.519746
559.0625 2.154461 1.609715 -0.544746
560.76953125 2.124591 1.639786 -0.484805
562.40234375 2.2660739999999997 1.78622 -0.479854
563.2734375 2.652086 1.568734 -1.083352
564.1171875 2.631084 1.54658 -1.084504
565.00390625 2.656389 1.531579 -1.12481
565.99609375 2.611605 1.534469 -1.077136
566.9375 2.550729 1.475788 -1.074941
567.91796875 2.651356 1.526356 -1.125
568.953125 2.609283 1.55965 -1.049633
569.94140625 2.5877619999999997 1.538076 -1.049686
570.875 2.594774 1.52 -1.074774
571.90625 2.590055 1.527287 -1.062768
572.84375 2.583478 1.530324 -1.053154
573.73828125 2.5032769999999998 1.436246 -1.067031
574.65234375 2.608432 1.477271 -1.131161
575.5625 2.531136 1.451165 -1.079971
576.41796875 2.565297 1.475519 -1.089778
577.35546875 2.617833 1.478308 -1.139525
578.25390625 2.5710129999999998 1.45727 -1.113743
579.08984375 2.533352 1.448352 -1.085
580.0078125 2.606993 1.513986 -1.093007
580.96875 2.5964980000000004 1.556137 -1.040361
581.83984375 2.4904789999999997 1.475018 -1.015461
582.78515625 2.581735 1.481961 -1.099774
583.73828125 2.547482 1.508817 -1.038665
584.609375 2.576193 1.542959 -1.033234
585.55078125 2.6641440000000003 1.560316 -1.103828
586.51171875 2.669568 1.58066 -1.088908
587.39453125 2.510287 1.49559 -1.014697
588.3203125 2.605447 1.507767 -1.09768
589.29296875 2.638751 1.528799 -1.109952
590.25 2.5183679999999997 1.515 -1.003368
591.1640625 2.510154 1.43964 -1.070514
592.23828125 2.586105 1.569011 -1.017094
593.24609375 2.567279 1.542279 -1.025
594.2265625 2.59201 1.471735 -1.120275
595.25 2.631737 1.505 -1.126737
596.2578125 2.62544 1.501096 -1.124344
597.27734375 2.6653339999999996 1.483099 -1.182235
598.32421875 2.665498 1.513939 -1.151559
599.33984375 2.503908 1.42 -1.083908
600.29296875 2.55714 1.392981 -1.164159
601.23828125 2.559407 1.434207 -1.1252
602.203125 2.544854 1.50176 -1.043094
603.13671875 2.5853580000000003 1.448738 -1.13662
604.13671875 2.665253 1.56073 -1.104523
605.1640625 2.628377 1.623377 -1.005
606.1171875 2.597016 1.49704 -1.099976
607.1484375 2.567024 1.491195 -1.075829
608.18359375 2.524483 1.494748 -1.029735
609.18359375 2.603373 1.428373 -1.175
610.1953125 2.7076770000000003 1.539417 -1.16826
611.19921875 2.579948 1.45254 -1.127408
612.125 2.678668 1.445 -1.233668
613.109375 2.685486 1.474949 -1.210537
614.09375 2.498727 1.379579 -1.119148
615.0 2.511996 1.39 -1.121996
615.984375 2.522595 1.363064 -1.159531
616.95703125 2.524413 1.389413 -1.135
617.8515625 2.50842 1.398427 -1.109993
618.83203125 2.593384 1.410326 -1.183058
619.828125 2.6444140000000003 1.524414 -1.12
620.7265625 2.570798 1.430607 -1.140191
621.72265625 2.629098 1.472692 -1.156406
622.66015625 2.572146 1.469587 -1.102559
623.546875 2.557159 1.429644 -1.127515
624.50390625 2.603367 1.462402 -1.140965
625.4375 2.5639950000000002 1.489 -1.074995
626.30859375 2.558325 1.501941 -1.056384
627.29296875 2.595416 1.555439 -1.039977
628.26171875 2.617645 1.566484 -1.051161
629.17578125 2.615014 1.54835 -1.066664
630.09765625 2.64167 1.529741 -1.111929
631.06640625 2.630231 1.549556 -1.080675
632.0 2.596012 1.555 -1.041012
632.90625 2.560966 1.480966 -1.08
633.83203125 2.5949660000000003 1.494966 -1.1
634.71484375 2.549094 1.439396 -1.109698
635.5625 2.553042 1.403111 -1.149931
636.47265625 2.6493390000000003 1.488696 -1.160643
637.390625 2.618038 1.557726 -1.060312
638.3125 2.515574 1.486497 -1.029077
639.20703125 2.488658 1.453658 -1.035
640.2265625 2.516524 1.488304 -1.02822
641.203125 2.5340499999999997 1.52905 -1.005
642.12109375 2.5320549999999997 1.482079 -1.049976
643.171875 2.5677510000000003 1.540151 -1.0276
644.2421875 2.504932 1.520027 -0.984905
645.16796875 2.487152 1.502872 -0.98428
646.1484375 2.580733 1.555907 -1.024826
647.14453125 2.5298 1.539908 -0.989892
648.05078125 2.454964 1.470714 -0.98425
649.02734375 2.508537 1.494429 -1.014108
650.03125 2.478491 1.459663 -1.018828
650.91796875 2.472321 1.41237 -1.059951
651.87890625 2.523936 1.414954 -1.108982
652.859375 2.428862 1.374209 -1.054653
653.734375 2.4628240000000003 1.392824 -1.07
654.6953125 2.560422 1.470422 -1.09
655.65625 2.495082 1.406126 -1.088956
656.5078125 2.448485 1.367474 -1.081011
657.4375 2.475986 1.345986 -1.13
658.40625 2.519998 1.409678 -1.11032
659.3046875 2.3851139999999997 1.355686 -1.029428
660.19140625 2.3499559999999997 1.314899 -1.035057
661.1015625 2.438761 1.369801 -1.06896
661.98828125 2.4828900000000003 1.408477 -1.074413
662.859375 2.425063 1.361857 -1.063206
663.7890625 2.511919 1.394443 -1.117476
664.71484375 2.466123 1.408762 -1.057361
665.64453125 2.399198 1.408433 -0.990765
666.54296875 2.431781 1.392117 -1.039664
667.5625 2.49357 1.447261 -1.046309
668.54296875 2.415375 1.413772 -1.001603
669.45703125 2.3763069999999997 1.336033 -1.040274
670.4375 2.3991759999999998 1.358984 -1.040192
671.4375 2.354922 1.284935 -1.069987
672.3515625 2.4118950000000003 1.321935 -1.08996
673.328125 2.523054 1.418054 -1.105
674.31640625 2.404604 1.342111 -1.062493
675.23828125 2.3945179999999997 1.279812 -1.114706
676.23828125 2.330133 1.240133 -1.09
677.234375 2.291759 1.221759 -1.07
678.1328125 2.315051 1.227997 -1.087054
679.09765625 2.452268 1.337034 -1.115234
680.04296875 2.373043 1.335835 -1.037208
680.9375 2.345217 1.345229 -0.999988
681.8359375 2.432144 1.419296 -1.012848
682.8046875 2.41327 1.413805 -0.999465
683.71875 2.32018 1.402026 -0.918154
684.609375 2.308775 1.345351 -0.963424
685.5703125 2.373998 1.387608 -0.98639
686.53515625 2.320076 1.383654 -0.936422
687.41015625 2.2803560000000003 1.349237 -0.931119
688.3828125 2.364128 1.36578 -0.998348
689.3203125 2.335156 1.356051 -0.979105
690.21875 2.257184 1.262787 -0.994397
691.15234375 2.317988 1.264129 -1.053859
692.09765625 2.379331 1.334065 -1.045266
692.96875 2.286671 1.277161 -1.00951
693.9140625 2.305365 1.254958 -1.050407
694.85546875 2.268014 1.269769 -0.998245
695.75 2.259734 1.25 -1.009734
696.68359375 2.301649 1.27171 -1.029939
697.6640625 2.343842 1.348865 -0.994977
698.5390625 2.2559899999999997 1.28599 -0.97
699.44921875 2.29418 1.257636 -1.036544
700.38671875 2.334287 1.369287 -0.965
701.33984375 2.274477 1.381452 -0.893025
702.234375 2.3289660000000003 1.415966 -0.913
703.2421875 2.313372 1.433503 -0.879869
704.21875 2.2677009999999997 1.449676 -0.818025
705.1484375 2.2694769999999997 1.454751 -0.814726
706.08984375 2.3433840000000004 1.526585 -0.816799
707.0625 2.321285 1.571291 -0.749994
707.98046875 2.254191 1.529726 -0.724465
708.93359375 2.338873 1.540176 -0.798697
709.87890625 2.230185 1.461431 -0.768754
710.796875 2.309529 1.454329 -0.8552
711.74609375 2.332612 1.417812 -0.9148
712.66015625 2.268888 1.388033 -0.880855
714.44921875 1.954222 1.538061 -0.416161
715.33203125 2.249387 1.345457 -0.90393
716.21484375 2.238999 1.255454 -0.983545
717.1328125 2.348731 1.313731 -1.035
718.0703125 2.308127 1.309544 -0.998583
718.98046875 2.304244 1.309779 -0.994465
719.9765625 2.33377 1.311076 -1.022694
720.97265625 2.368578 1.375892 -0.992686
721.91796875 2.3453600000000003 1.375253 -0.970107
722.87890625 2.4052740000000004 1.412462 -0.992812
723.86328125 2.327899 1.403576 -0.924323
724.81640625 2.3256680000000003 1.412365 -0.913303
725.7578125 2.3665719999999997 1.446721 -0.919851
726.734375 2.337428 1.457428 -0.88
727.671875 2.330803 1.473474 -0.857329
728.56640625 2.358239 1.433239 -0.925
729.51953125 2.414736 1.499788 -0.914948
730.44140625 2.320002 1.425881 -0.894121
731.30859375 2.30654 1.378399 -0.928141
732.2890625 2.4167690000000004 1.363798 -1.052971
733.234375 2.352018 1.367899 -0.984119
734.08984375 2.295951 1.292149 -1.003802
735.0546875 2.3869629999999997 1.297126 -1.089837
736.03515625 2.368715 1.298715 -1.07
736.9609375 2.345782 1.299517 -1.046265
737.9140625 2.4454219999999998 1.349226 -1.096196
738.88671875 2.440798 1.384227 -1.056571
739.8359375 2.4135400000000002 1.439324 -0.974216
740.78125 2.358987 1.384375 -0.974612
741.796875 2.401103 1.482239 -0.918864
742.78125 2.361047 1.45431 -0.906737
743.74609375 2.389459 1.444459 -0.945
744.73828125 2.403464 1.470871 -0.932593
745.69140625 2.34444 1.422759 -0.921681
746.6328125 2.426995 1.46746 -0.959535
747.58203125 2.4421 1.4921 -0.95
748.515625 2.353354 1.471309 -0.882045
749.3984375 2.387826 1.483281 -0.904545
750.30859375 2.444709 1.514443 -0.930266
751.21875 2.404453 1.50401 -0.900443
752.09765625 2.332885 1.432893 -0.899992
753.0078125 2.387973 1.392973 -0.995
753.90234375 2.3788919999999996 1.376807 -1.002085
754.78125 2.323947 1.359194 -0.964753
755.6953125 2.4519640000000003 1.39743 -1.054534
756.63671875 2.418273 1.375393 -1.04288
757.53125 2.426628 1.357038 -1.06959
758.5625 2.465556 1.375878 -1.089678
759.54296875 2.42544 1.376128 -1.049312
760.5078125 2.336198 1.327443 -1.008755
761.4765625 2.388305 1.324772 -1.063533
762.453125 2.4262829999999997 1.426283 -1.0
763.37109375 2.3899999999999997 1.375 -1.015
764.33984375 2.48594 1.451771 -1.034169
765.234375 2.429662 1.460662 -0.969
766.1171875 2.369256 1.41437 -0.954886
767.0234375 2.443804 1.446354 -0.99745
767.95703125 2.415464 1.459971 -0.955493
768.84375 2.370502 1.422821 -0.947681
769.85546875 2.506133 1.499912 -1.006221
770.86328125 2.502009 1.468501 -1.033508
771.84375 2.451328 1.431484 -1.019844
772.83984375 2.4709130000000004 1.391113 -1.0798
773.86328125 2.537705 1.470659 -1.067046
774.86328125 2.499723 1.467223 -1.0325
775.78125 2.349287 1.349287 -1.0
776.74609375 2.423719 1.355262 -1.068457
777.74609375 2.440073 1.375248 -1.064825
778.66796875 2.445246 1.415246 -1.03
779.6171875 2.492137 1.398557 -1.09358
780.5859375 2.5186450000000002 1.449111 -1.069534
781.50390625 2.412954 1.358413 -1.054541
782.44140625 2.4979810000000002 1.392981 -1.105
783.37109375 2.494388 1.413559 -1.080829
784.296875 2.389831 1.404831 -0.985
785.203125 2.4676799999999997 1.437417 -1.030263
786.20703125 2.473436 1.440329 -1.033107
787.18359375 2.384794 1.434807 -0.949987
788.1328125 2.444407 1.47497 -0.969437
789.10546875 2.461623 1.467148 -0.994475
790.07421875 2.496893 1.553486 -0.943407
791.00390625 2.4295619999999998 1.472387 -0.957175
791.9765625 2.457246 1.427276 -1.02997
792.92578125 2.384479 1.390519 -0.99396
793.84375 2.3309189999999997 1.294104 -1.036815
794.74609375 2.408569 1.288769 -1.1198
795.68359375 2.4269730000000003 1.312003 -1.11497
796.5859375 2.400928 1.334406 -1.066522
797.51171875 2.508685 1.364004 -1.144681
798.44921875 2.468088 1.406082 -1.062006
799.34765625 2.356048 1.371383 -0.984665
801.05859375 1.977491 1.683842 -0.293649
802.7734375 1.997189 1.697189 -0.3
804.5390625 2.138057 1.894936 -0.243121
806.24609375 2.032462 1.769371 -0.263091
808.0078125 2.077061 1.862212 -0.214849
809.68359375 2.0868539999999998 1.849092 -0.237762
811.328125 2.468032 1.752255 -0.715777
812.92578125 2.595268 1.775268 -0.82
814.51953125 2.485884 1.681135 -0.804749
816.15234375 2.569049 1.769049 -0.8
817.734375 2.514404 1.641074 -0.87333
819.41015625 2.570115 1.667684 -0.902431
821.0390625 2.574863 1.654863 -0.92
822.65625 2.598976 1.719364 -0.879612
824.27734375 2.578345 1.714591 -0.863754
825.88671875 2.521908 1.672296 -0.849612
827.54296875 2.627415 1.757598 -0.869817
829.21484375 2.552775 1.688559 -0.864216
830.84765625 2.652307 1.704621 -0.947686
832.484375 2.626693 1.652184 -0.974509
834.078125 2.679691 1.669171 -1.01052
835.6640625 2.6252139999999997 1.5847 -1.040514
837.26953125 2.604515 1.539579 -1.064936
838.85546875 2.606218 1.539917 -1.066301
840.53125 2.5468450000000002 1.48247 -1.064375
842.1640625 2.604491 1.519545 -1.084946
843.93359375 2.054468 1.561327 -0.493141
845.62890625 2.250423 1.765429 -0.484994
847.32421875 2.002978 1.599347 -0.403631
848.98828125 2.0994900000000003 1.69449 -0.405
850.59765625 2.080645 1.618304 -0.462341
852.265625 2.0409930000000003 1.576394 -0.464599
853.875 2.128341 1.57 -0.558341
855.51171875 2.029146 1.489161 -0.539985
857.13671875 2.163582 1.57916 -0.584422
858.81640625 1.980985 1.462627 -0.518358
860.54296875 2.207103 1.592143 -0.61496
862.17578125 2.096949 1.508842 -0.588107
863.89453125 2.237909 1.719916 -0.517993
865.58984375 2.148594 1.703766 -0.444828
867.3046875 2.153246 1.761764 -0.391482
869.00390625 2.217472 1.832518 -0.384954
870.72265625 2.121563 1.804484 -0.317079
872.41015625 2.0807789999999997 1.79334 -0.287439
874.0703125 2.18777 1.813812 -0.373958
875.66015625 2.019798 1.715985 -0.303813
877.3203125 2.145457 1.82225 -0.323207
878.96875 2.140094 1.831182 -0.308912
880.6484375 2.188133 1.913133 -0.275
882.33203125 2.153445 1.893875 -0.25957
884.03515625 2.168787 1.906273 -0.262514
885.734375 2.228482 1.938482 -0.29
887.390625 2.183605 1.781027 -0.402578
889.0390625 2.225164 1.869836 -0.355328
890.7421875 2.175682 1.847708 -0.327974
892.45703125 2.125589 1.805806 -0.319783
894.12109375 2.208948 1.829383 -0.379565
895.8046875 2.099445 1.745763 -0.353682
897.46484375 2.234532 1.766345 -0.468187
899.203125 2.069835 1.629835 -0.44
900.90625 2.247399 1.760769 -0.48663
902.6015625 2.059845 1.641896 -0.417949
904.32421875 2.127012 1.772388 -0.354624
905.953125 2.162176 1.77555 -0.386626
907.62890625 2.078473 1.718518 -0.359955
909.28125 2.117744 1.746143 -0.371601
910.94140625 1.9620499999999998 1.570674 -0.391376
912.61328125 2.190794 1.732835 -0.457959
914.2578125 2.076431 1.621582 -0.454849
915.953125 2.238186 1.808938 -0.429248
917.61328125 2.136736 1.777364 -0.359372
919.28515625 2.203237 1.8964 -0.306837
920.98828125 2.10022 1.805689 -0.294531
922.6484375 2.227173 1.902173 -0.325
924.3046875 2.051285 1.690904 -0.360381
925.9765625 2.169365 1.770917 -0.398448
927.5859375 2.148243 1.76843 -0.379813
929.25390625 2.1191310000000003 1.749227 -0.369904
930.875 2.205159 1.77 -0.435159
932.60546875 2.132026 1.731948 -0.400078
934.265625 2.342823 1.902823 -0.44
935.953125 2.147475 1.72523 -0.422245
937.6953125 2.206002 1.746594 -0.459408
939.3671875 2.132376 1.722376 -0.41
941.1015625 2.230034 1.805034 -0.425
942.7890625 2.163939 1.703939 -0.46
944.48828125 2.1864179999999998 1.769218 -0.4172
946.1484375 2.004688 1.605025 -0.399663
947.765625 2.263648 1.754256 -0.509392
949.40625 2.091953 1.61125 -0.480703
951.078125 2.280229 1.757666 -0.522563
952.75390625 2.129962 1.59 -0.539962
954.5 2.157908 1.635 -0.522908
956.15234375 2.158234 1.580063 -0.578171
957.859375 2.117068 1.608414 -0.508654
959.53125 2.111357 1.517682 -0.593675
961.16796875 2.040258 1.425356 -0.614902
962.796875 2.159133 1.488512 -0.670621
964.47265625 2.058015 1.439122 -0.618893
966.16015625 2.202945 1.51776 -0.685185
967.83203125 2.072069 1.457654 -0.614415
969.515625 2.164012 1.518954 -0.645058
971.1953125 2.0349209999999998 1.454661 -0.58026
972.90234375 2.044597 1.539597 -0.505
974.53515625 2.1546849999999997 1.605354 -0.549331
976.1953125 2.105361 1.624253 -0.481108
977.7890625 2.194756 1.704913 -0.489843
979.40234375 2.109697 1.676554 -0.433143
981.0390625 2.203236 1.749935 -0.453301
982.66015625 2.105889 1.652403 -0.453486
984.33203125 2.155054 1.740103 -0.414951
985.9453125 2.109801 1.685108 -0.424693
987.63671875 2.0795850000000002 1.650562 -0.429023
989.23828125 2.206534 1.626895 -0.579639
990.85546875 2.164707 1.604707 -0.56
992.49609375 2.282958 1.763396 -0.519562
994.11328125 2.030884 1.641477 -0.389407
995.80078125 2.207653 1.764203 -0.44345
997.46875 2.217816 1.742174 -0.475642
999.22265625 2.282487 1.840301 -0.442186
1000.9453125 2.166041 1.762159 -0.403882
1002.68359375 2.1486359999999998 1.765555 -0.383081
1004.3984375 2.277637 1.832637 -0.445
1006.03515625 2.150706 1.76939 -0.381316
1007.671875 2.278327 1.854319 -0.424008
1009.32421875 2.190811 1.773709 -0.417102
1011.0 2.223953 1.775 -0.448953
1012.6484375 2.203764 1.728764 -0.475
1014.33203125 2.099164 1.690219 -0.408945
1015.97265625 2.237189 1.764895 -0.472294
1017.64453125 2.197606 1.674699 -0.522907
1019.30078125 2.2714 1.76807 -0.50333
1020.94921875 2.201089 1.794607 -0.406482
1022.62890625 2.089148 1.723569 -0.365579
1024.30859375 2.288961 1.834749 -0.454212
1026.00390625 2.150925 1.790953 -0.359972
1027.6875 2.202985 1.845816 -0.357169
1029.41015625 2.052145 1.69124 -0.360905
1031.1875 2.198729 1.81875 -0.379979
1032.8828125 2.241691 1.799207 -0.442484
1034.5625 2.146716 1.855229 -0.291487
1036.17578125 2.251132 1.906273 -0.344859
1037.80078125 2.0812589999999997 1.816876 -0.264383
1039.46875 2.279712 1.945617 -0.334095
1041.17578125 2.1685049999999997 1.801826 -0.366679
1042.94140625 2.2277899999999997 1.854442 -0.373348
1044.62109375 2.228115 1.843395 -0.38472
1045.49609375 2.60851 1.629775 -0.978735
1046.32421875 2.6514610000000003 1.631678 -1.019783
1047.30078125 2.671916 1.672704 -0.999212
1048.25 2.644654 1.715 -0.929654
1049.13671875 2.577438 1.672791 -0.904647
1050.19140625 2.6506920000000003 1.70683 -0.943862
1051.26171875 2.586061 1.670552 -0.915509
1052.26953125 2.614442 1.639583 -0.974859
1053.37890625 2.668298 1.714303 -0.953995
1054.3828125 2.620672 1.700056 -0.920616
1055.3671875 2.635322 1.605481 -1.029841
1056.38671875 2.6608270000000003 1.611421 -1.049406
1057.34765625 2.512771 1.538562 -0.974209
1058.3046875 2.4666810000000003 1.412773 -1.053908
1059.3046875 2.570995 1.495995 -1.075
1060.26171875 2.559732 1.489717 -1.070015
1061.18359375 2.579728 1.504749 -1.074979
1062.12890625 2.566083 1.443109 -1.122974
1063.0703125 2.542553 1.503125 -1.039428
1064.0 2.463424 1.45 -1.013424
1064.94140625 2.541244 1.478406 -1.062838
1065.8984375 2.495621 1.455951 -1.03967
1066.78515625 2.424498 1.38524 -1.039258
1067.77734375 2.517373 1.484442 -1.032931
1068.76171875 2.4946479999999998 1.500203 -0.994445
1069.71875 2.467694 1.494891 -0.972803
1070.6875 2.566875 1.531875 -1.035
1071.6640625 2.524393 1.559393 -0.965
1072.58203125 2.499605 1.491498 -1.008107
1073.5859375 2.502882 1.488666 -1.014216
1074.58203125 2.423006 1.469928 -0.953078
1075.5390625 2.4451020000000003 1.444911 -1.000191
1076.5234375 2.456279 1.466756 -0.989523
1077.4921875 2.381909 1.492009 -0.8899
1078.40234375 2.393071 1.46822 -0.924851
1079.33984375 2.462821 1.488793 -0.974028
1080.24609375 2.363236 1.458348 -0.904888
1081.1328125 2.304389 1.364301 -0.940088
1082.01953125 2.434995 1.459995 -0.975
1082.9375 2.342726 1.394842 -0.947884
1083.83203125 2.347329 1.453294 -0.894035
1084.80859375 2.385946 1.46673 -0.919216
1085.8359375 2.40755 1.534702 -0.872848
1086.796875 2.396064 1.461923 -0.934141
1087.78125 2.3861410000000003 1.461141 -0.925
1088.80078125 2.428724 1.541592 -0.887132
1089.75390625 2.394125 1.525148 -0.868977
1090.72265625 2.4723100000000002 1.587371 -0.884939
1091.75 2.368755 1.525 -0.843755
1092.66796875 2.360416 1.485571 -0.874845
1093.63671875 2.424438 1.504587 -0.919851
1094.640625 2.405953 1.539078 -0.866875
1095.58984375 2.316028 1.486693 -0.829335
1096.58203125 2.322992 1.439959 -0.883033
1097.63671875 2.279376 1.439376 -0.84
1098.57421875 2.37867 1.482636 -0.896034
1099.53125 2.47265 1.518254 -0.954396
1100.47265625 2.416093 1.511107 -0.904986
1101.34765625 2.395249 1.507967 -0.887282
1102.27734375 2.399124 1.449563 -0.949561
1103.234375 2.368179 1.484585 -0.883594
1104.09375 2.303959 1.428902 -0.875057
1105.05859375 2.3388619999999998 1.403875 -0.934987
1106.06640625 2.368751 1.491993 -0.876758
1106.9765625 2.2839229999999997 1.43 -0.853923
1107.94921875 2.353463 1.40297 -0.950493
1109.01171875 2.454292 1.510723 -0.943569
1109.9765625 2.364509 1.444509 -0.92
1110.91015625 2.340154 1.393289 -0.946865
1111.88671875 2.322232 1.359759 -0.962473
1112.83984375 2.261871 1.378493 -0.883378
1113.77734375 2.201311 1.282639 -0.918672
1114.75 2.301071 1.345 -0.956071
1115.74609375 2.3464549999999997 1.405501 -0.940954
1116.6796875 2.409529 1.375101 -1.034428
1117.7109375 2.42 1.425 -0.995
1118.703125 2.263897 1.373897 -0.89
1119.65625 2.24409 1.279533 -0.964557
1120.59375 2.248951 1.258951 -0.99
1121.5078125 2.348232 1.384007 -0.964225
1122.41015625 2.354339 1.3321 -1.022239
1123.3515625 2.388198 1.343247 -1.044951
1124.29296875 2.272902 1.302902 -0.97
1125.17578125 2.260224 1.322051 -0.938173
1126.078125 2.3640470000000002 1.325969 -1.038078
1127.01171875 2.4007829999999997 1.335783 -1.065
1127.91796875 2.353536 1.325943 -1.027593
1128.84765625 2.39384 1.328723 -1.065117
1129.875 2.364678 1.34 -1.024678
1130.84765625 2.291592 1.281598 -1.009994
1131.75 2.2922849999999997 1.265 -1.027285
1132.7109375 2.304807 1.241191 -1.063616
1133.6796875 2.2972479999999997 1.260993 -1.036255
1134.54296875 2.261664 1.211686 -1.049978
1135.51171875 2.372561 1.262694 -1.109867
1136.46484375 2.3102989999999997 1.243199 -1.0671
1137.3359375 2.28254 1.28967 -0.99287
1138.19921875 2.2723820000000003 1.242382 -1.03
1139.11328125 2.344622 1.274622 -1.07
1140.0 2.3473360000000003 1.32 -1.027336
1140.91015625 2.2774069999999997 1.296161 -0.981246
1141.87109375 2.350317 1.315317 -1.035
1142.86328125 2.344919 1.294919 -1.05
1143.79296875 2.335965 1.30259 -1.033375
1144.83984375 2.3207839999999997 1.285982 -1.034802
1145.81640625 2.2902500000000003 1.288469 -1.001781
1146.7890625 2.27305 1.26369 -1.00936
1147.76171875 2.3085560000000003 1.268775 -1.039781
1148.734375 2.331968 1.306968 -1.025
1149.6484375 2.355642 1.316214 -1.039428
1150.62109375 2.364235 1.293486 -1.070749
1151.59375 2.320565 1.278807 -1.041758
1152.5390625 2.352181 1.26969 -1.082491
1153.515625 2.3844969999999996 1.285926 -1.098571
1154.48046875 2.338924 1.279989 -1.058935
1155.3984375 2.360407 1.262992 -1.097415
1156.36328125 2.4165200000000002 1.297188 -1.119332
1157.31640625 2.3445489999999998 1.25413 -1.090419
1158.2421875 2.25793 1.184333 -1.073597
1159.18359375 2.359738 1.214744 -1.144994
1160.16015625 2.4549279999999998 1.29255 -1.162378
1161.12890625 2.370502 1.231546 -1.138956
1162.03515625 2.371543 1.212012 -1.159531
1162.9765625 2.343398 1.293398 -1.05
1163.97265625 2.412172 1.362203 -1.049969
1164.8515625 2.313283 1.266923 -1.04636
1165.83984375 2.40267 1.38087 -1.0218
1166.91015625 2.34878 1.35878 -0.99
1167.84765625 2.432049 1.391785 -1.040264
1168.9375 2.452661 1.417549 -1.035112
1169.96875 2.390168 1.430324 -0.959844
1170.91796875 2.2837810000000003 1.323922 -0.959859
1171.859375 2.402871 1.364336 -1.038535
1172.80078125 2.325488 1.300629 -1.024859
1173.68359375 2.3105130000000003 1.287372 -1.023141
1174.6953125 2.392501 1.393499 -0.999002
1175.70703125 2.407393 1.487393 -0.92
1176.65234375 2.292266 1.412838 -0.879428
1177.69140625 2.379102 1.509954 -0.869148
1178.703125 2.3487210000000003 1.54577 -0.802951
1179.65234375 2.306248 1.451779 -0.854469
1180.6796875 2.413064 1.503391 -0.909673
1181.640625 2.2981949999999998 1.512387 -0.785808
1182.5546875 2.2341670000000002 1.485278 -0.748889
1183.5 2.416204 1.53 -0.886204
1184.4140625 2.3386430000000002 1.498221 -0.840422
1185.35546875 2.339302 1.494933 -0.844369
1186.296875 2.401325 1.478634 -0.922691
1187.2265625 2.347861 1.421424 -0.926437
1188.2265625 2.347829 1.469857 -0.877972
1189.2109375 2.3688130000000003 1.483813 -0.885
1190.16015625 2.370927 1.391025 -0.979902
1191.1875 2.385265 1.365322 -1.019943
1192.16015625 2.2855790000000002 1.300376 -0.985203
1193.0703125 2.314968 1.297607 -1.017361
1194.08203125 2.347798 1.263557 -1.084241
1195.09375 2.3080439999999998 1.294633 -1.013411
1196.05859375 2.3341200000000004 1.293886 -1.040234
1197.14453125 2.408168 1.329543 -1.078625
1198.18359375 2.3230180000000002 1.268037 -1.054981
1199.1796875 2.368281 1.301623 -1.066658
1200.1875 2.385816 1.300852 -1.084964
1201.140625 2.3059770000000004 1.235977 -1.07
1202.08203125 2.197675 1.179717 -1.017958
1202.95703125 2.194645 1.440139 -0.754506
1203.84765625 2.082388 1.552418 -0.52997
1204.69921875 1.9693990000000001 1.359399 -0.61
1206.3515625 2.276433 1.203396 -1.073037
1208.03515625 2.2902009999999997 1.151152 -1.139049
1209.65234375 2.3116 1.029127 -1.282473
1211.30078125 2.320195 1.111947 -1.208248
1212.9609375 2.339607 1.189607 -1.15
1214.61328125 2.47017 1.327654 -1.142516
1216.32421875 2.399419 1.274885 -1.124534
1218.01171875 2.348597 1.293746 -1.054851
1219.671875 2.396629 1.281629 -1.115
1221.35546875 2.4787879999999998 1.374742 -1.104046
1222.984375 2.361719 1.24 -1.121719
1224.72265625 2.549869 1.355635 -1.194234
1226.3359375 2.4948249999999996 1.334825 -1.16
1228.04296875 2.4029220000000002 1.287408 -1.115514
1229.69140625 2.484733 1.319348 -1.165385
1231.33203125 2.414276 1.229547 -1.184729
1232.97265625 2.432241 1.195382 -1.236859
1234.55078125 2.387562 1.152562 -1.235
1236.1640625 2.4944 1.409531 -1.084869
1237.78515625 2.485097 1.508581 -0.976516
1239.41015625 2.412893 1.448479 -0.964414
1241.02734375 2.4683129999999998 1.484125 -0.984188
1242.63671875 2.459514 1.471008 -0.988506
1244.328125 2.5042340000000003 1.389234 -1.115
1246.0625 2.533782 1.358671 -1.175111
1246.91796875 2.462524 1.284878 -1.177646
1247.77734375 2.4376949999999997 1.273204 -1.164491
1248.796875 2.509586 1.330332 -1.179254
1249.83984375 2.500736 1.366401 -1.134335
1250.83203125 2.475048 1.349655 -1.125393
1252.0234375 2.489616 1.360216 -1.1294
1253.11328125 2.468989 1.369644 -1.099345
1254.140625 2.483853 1.343853 -1.14
1255.1640625 2.476137 1.321137 -1.155
1256.10546875 2.459758 1.389909 -1.069849
1257.08984375 2.468983 1.37138 -1.097603
1258.06640625 2.5160549999999997 1.389746 -1.126309
1259.02734375 2.516013 1.379125 -1.136888
1259.94140625 2.457847 1.414905 -1.042942
1260.84375 2.4404250000000003 1.325425 -1.115
1261.73046875 2.51373 1.384662 -1.129068
1262.70703125 2.452666 1.369822 -1.082844
1263.65234375 2.434559 1.409916 -1.024643
1264.5859375 2.365226 1.369833 -0.995393
1265.59765625 2.531895 1.426947 -1.104948
1266.59375 2.481255 1.402844 -1.078411
1267.53515625 2.412705 1.364281 -1.048424
1268.53125 2.444471 1.329677 -1.114794
1269.46484375 2.457661 1.295133 -1.162528
1270.359375 2.439244 1.307184 -1.13206
1271.3359375 2.512851 1.373576 -1.139275
1272.22265625 2.471632 1.281663 -1.189969
1273.12109375 2.365222 1.110222 -1.255
1274.015625 2.275014 1.175014 -1.1
1275.65234375 2.489824 1.615276 -0.874548
1277.3046875 2.512091 1.487091 -1.025
1278.93359375 2.579736 1.319784 -1.259952
1280.5625 2.529042 1.329399 -1.199643
1282.20703125 2.598274 1.348565 -1.249709
1283.8203125 2.5242899999999997 1.384498 -1.139792
1285.44921875 2.569512 1.457968 -1.111544
1287.09375 2.5624219999999998 1.478274 -1.084148
1288.765625 2.549683 1.532739 -1.016944
1290.453125 2.570523 1.520523 -1.05
1292.12109375 2.484924 1.45 -1.034924
1293.81640625 2.598411 1.52 -1.078411
1295.4765625 2.5491539999999997 1.50416 -1.044994
1297.0546875 2.53921 1.472773 -1.066437
1298.66796875 2.516852 1.427598 -1.089254
1300.29296875 2.596267 1.466267 -1.13
1301.96875 2.524349 1.449349 -1.075
1303.671875 2.208462 1.650327 -0.558135
1305.3984375 2.058975 1.538975 -0.52
1307.19921875 2.238718 1.791751 -0.446967
1308.90625 2.092212 1.75322 -0.338992
1310.66015625 2.097201 1.750577 -0.346624
1312.34765625 2.120248 1.662872 -0.457376
1314.0078125 2.189711 1.680473 -0.509238
1315.65234375 2.181049 1.637886 -0.543163
1317.28515625 2.032744 1.533608 -0.499136
1318.91015625 2.158194 1.613208 -0.544986
1320.59375 2.0386629999999997 1.564199 -0.474464
1322.23828125 2.179535 1.690844 -0.488691
1323.91796875 2.103543 1.56856 -0.534983
1325.578125 2.201759 1.674341 -0.527418
1327.2265625 2.11684 1.607225 -0.509615
1328.921875 2.077234 1.632924 -0.44431
1330.58984375 2.21664 1.707047 -0.509593
1332.3046875 2.107108 1.635038 -0.47207
1333.98828125 2.2265420000000002 1.671542 -0.555
1335.69140625 2.098043 1.548043 -0.55
1337.4609375 2.291361 1.734173 -0.557188
1339.125 2.142727 1.66 -0.482727
1340.86328125 2.131101 1.685421 -0.44568
1342.5234375 2.17 1.695 -0.475
1344.2421875 2.111145 1.691401 -0.419744
1345.92578125 2.275494 1.752507 -0.522987
1347.609375 2.072906 1.637906 -0.435
1349.2734375 2.212476 1.712476 -0.5
1350.94921875 2.046021 1.610732 -0.435289
1352.5546875 2.2203999999999997 1.689541 -0.530859
1354.1875 2.077106 1.660233 -0.416873
1355.80078125 2.21164 1.746775 -0.464865
1357.42578125 2.145514 1.72312 -0.422394
1359.12890625 2.304677 1.793774 -0.510903
1360.84765625 2.169085 1.679085 -0.49
1362.5625 2.265247 1.755941 -0.509306
1364.27734375 2.195 1.71 -0.485
1365.99609375 2.127119 1.717547 -0.409572
1367.7109375 2.1964829999999997 1.763334 -0.433149
1369.41015625 2.109916 1.642816 -0.4671
1371.09375 2.306467 1.790456 -0.516011
1372.81640625 2.021757 1.594921 -0.426836
1374.5 2.284348 1.8 -0.484348
1376.15234375 2.0907459999999998 1.646677 -0.444069
1377.80859375 2.187592 1.659801 -0.527791
1379.421875 2.127405 1.623301 -0.504104
1381.12109375 1.9731329999999998 1.522398 -0.450735
1382.7890625 2.13075 1.624935 -0.505815
1384.546875 2.01984 1.602101 -0.417739
1386.2890625 2.260799 1.769103 -0.491696
1388.015625 2.064042 1.576696 -0.487346
1389.75 2.209212 1.72 -0.489212
1391.37109375 2.113071 1.646536 -0.466535
1393.0703125 2.144615 1.684704 -0.459911
1394.71875 2.135771 1.619895 -0.515876
1396.359375 2.1233020000000002 1.614567 -0.508735
1398.0 2.204062 1.69 -0.514062
1399.64453125 2.131077 1.7103 -0.420777
1401.3046875 2.188045 1.727212 -0.460833
1403.01953125 2.070094 1.648498 -0.421596
1404.73046875 2.271643 1.756929 -0.514714
1406.44921875 2.148889 1.699304 -0.449585
1408.203125 2.141323 1.763219 -0.378104
1409.93359375 2.161441 1.732547 -0.428894
1410.8359375 2.593299 1.574854 -1.018445
1411.6953125 2.508312 1.479984 -1.028328
1412.5859375 2.575963 1.524651 -1.051312
1413.55078125 2.519178 1.505218 -1.01396
1414.46484375 2.477985 1.418769 -1.059216
1415.37890625 2.5419270000000003 1.397114 -1.144813
1416.3515625 2.456664 1.407756 -1.048908
1417.26171875 2.401596 1.382061 -1.019535
1418.2265625 2.446784 1.381513 -1.065271
1419.26171875 2.473477 1.438951 -1.034526
1420.2109375 2.569743 1.454743 -1.115
1421.203125 2.5311570000000003 1.479263 -1.051894
1422.2265625 2.518623 1.518629 -0.999994
1423.17578125 2.476819 1.456967 -1.019852
1424.1796875 2.502027 1.437027 -1.065
1425.19921875 2.44676 1.499914 -0.946846
1426.13671875 2.375227 1.508787 -0.86644
1427.10546875 2.484628 1.654941 -0.829687
1428.08203125 2.451922 1.539225 -0.912697
1428.98046875 2.366559 1.402651 -0.963908
1429.95703125 2.483029 1.402536 -1.080493
1430.953125 2.5111850000000002 1.443066 -1.068119
1431.8828125 2.4360049999999998 1.424424 -1.011581
1432.87890625 2.506559 1.446559 -1.06
1433.8828125 2.531186 1.506186 -1.025
1434.84765625 2.448959 1.538999 -0.90996
1435.84375 2.508205 1.563362 -0.944843
1436.87109375 2.5167859999999997 1.584711 -0.932075
1437.8359375 2.482036 1.598776 -0.88326
1438.8671875 2.477858 1.528247 -0.949611
1439.859375 2.5229 1.524426 -0.998474
1440.8671875 2.430652 1.485728 -0.944924
1441.8359375 2.432868 1.393889 -1.038979
1442.80078125 2.443798 1.368129 -1.075669
1443.828125 2.446429 1.404456 -1.041973
1444.76953125 2.4512270000000003 1.414727 -1.0365
1445.76953125 2.474718 1.37 -1.104718
1446.7578125 2.5826659999999997 1.485514 -1.097152
1447.75390625 2.5611420000000003 1.377518 -1.183624
1448.76171875 2.508736 1.393788 -1.114948
1449.74609375 2.3990419999999997 1.390374 -1.008668
1450.75 2.5499159999999996 1.45 -1.099916
1451.76171875 2.5392840000000003 1.499495 -1.039789
1452.76171875 2.537391 1.464976 -1.072415
1453.765625 2.575533 1.47607 -1.099463
1454.80078125 2.5088049999999997 1.444593 -1.064212
1455.7734375 2.429468 1.354468 -1.075
1456.75390625 2.5596259999999997 1.41737 -1.142256
1457.75390625 2.473614 1.371405 -1.102209
1458.7109375 2.477827 1.369679 -1.108148
1459.74609375 2.5140960000000003 1.380341 -1.133755
1460.8046875 2.5072710000000002 1.422271 -1.085
1461.7578125 2.555967 1.485967 -1.07
1462.76953125 2.584915 1.504915 -1.08
1463.81640625 2.499841 1.498083 -1.001758
1464.79296875 2.5436170000000002 1.45388 -1.089737
1465.8046875 2.567035 1.42182 -1.145215
1466.78515625 2.466351 1.394747 -1.071604
1467.7109375 2.38887 1.326235 -1.062635
1468.71875 2.519088 1.424199 -1.094889
1469.73046875 2.507623 1.438819 -1.068804
1470.65234375 2.519364 1.404873 -1.114491
1471.66796875 2.584573 1.439804 -1.144769
1472.63671875 2.48734 1.449354 -1.037986
1473.55078125 2.463442 1.399237 -1.064205
1474.515625 2.526784 1.430117 -1.096667
1475.46875 2.5887529999999996 1.52331 -1.065443
1476.34375 2.531489 1.454207 -1.077282
1477.31640625 2.468603 1.358603 -1.11
1478.26171875 2.45798 1.42798 -1.03
1479.140625 2.454253 1.384605 -1.069648
1480.1328125 2.567219 1.477745 -1.089474
1481.09765625 2.583315 1.561058 -1.022257
1481.9921875 2.5193849999999998 1.484612 -1.034773
1482.96875 2.564199 1.509199 -1.055
1483.921875 2.4858089999999997 1.495809 -0.99
1484.828125 2.490823 1.445823 -1.045
1485.8203125 2.503371 1.45159 -1.051781
1486.765625 2.530192 1.549395 -0.980797
1487.6796875 2.5326440000000003 1.512644 -1.02
1488.70703125 2.5180800000000003 1.46808 -1.05
1489.6796875 2.394384 1.459118 -0.935266
1490.58984375 2.436033 1.458785 -0.977248
1491.59765625 2.471737 1.441759 -1.029978
1492.54296875 2.47075 1.49394 -0.97681
1493.484375 2.430053 1.446689 -0.983364
1494.44140625 2.550445 1.524677 -1.025768
1495.484375 2.3840909999999997 1.425023 -0.959068
1496.4609375 2.4397 1.4797 -0.96
1497.44140625 2.455807 1.452396 -1.003411
1498.453125 2.389544 1.434544 -0.955
1499.44921875 2.435509 1.455732 -0.979777
1500.40234375 2.4428150000000004 1.408635 -1.03418
1501.44921875 2.3956910000000002 1.422633 -0.973058
1502.43359375 2.390884 1.468472 -0.922412
1503.48046875 2.421793 1.417896 -1.003897
1504.57421875 2.375203 1.386159 -0.989044
1505.5625 2.3958399999999997 1.375897 -1.019943
1506.5703125 2.458828 1.406419 -1.052409
1507.61328125 2.369728 1.37922 -0.990508
1508.578125 2.429232 1.375166 -1.054066
1509.59375 2.458599 1.415918 -1.042681
1510.57421875 2.426431 1.437461 -0.98897
1511.48828125 2.354023 1.421963 -0.93206
1512.484375 2.379421 1.395265 -0.984156
1513.5 2.359469 1.435 -0.924469
1514.453125 2.437157 1.477157 -0.96
1515.5234375 2.456157 1.426721 -1.029436
1516.55078125 2.414668 1.451789 -0.962879
1517.5 2.341012 1.395 -0.946012
1518.54296875 2.4236619999999998 1.449323 -0.974339
1519.484375 2.3693940000000002 1.465656 -0.903738
1520.42578125 2.3158019999999997 1.386164 -0.929638
1521.4296875 2.328387 1.360142 -0.968245
1522.37109375 2.34223 1.413806 -0.928424
1523.30078125 2.388096 1.379951 -1.008145
1524.28125 2.338988 1.32931 -1.009678
1525.23046875 2.23 1.345 -0.885
1526.2109375 2.344687 1.419934 -0.924753
1527.24609375 2.355442 1.369693 -0.985749
1528.2890625 2.2557679999999998 1.336719 -0.919049
1529.26171875 2.323988 1.339209 -0.984779
1530.31640625 2.334171 1.365809 -0.968362
1531.390625 2.249621 1.408712 -0.840909
1532.3671875 2.283454 1.352793 -0.930661
1533.40234375 2.321164 1.374231 -0.946933
1534.4296875 2.2628209999999997 1.336504 -0.926317
1535.37890625 2.240426 1.263372 -0.977054
1536.37109375 2.264098 1.309247 -0.954851
1537.36328125 2.220697 1.282103 -0.938594
1538.26953125 2.233229 1.304791 -0.928438
1539.23046875 2.306162 1.319823 -0.986339
1540.20703125 2.2048110000000003 1.289811 -0.915
1541.16015625 2.193287 1.243697 -0.94959
1542.11328125 2.22692 1.25192 -0.975
1543.14453125 2.209539 1.304821 -0.904718
1544.06640625 2.1821960000000002 1.238893 -0.943303
1544.9765625 2.245494 1.280494 -0.965
1545.9140625 2.249628 1.324833 -0.924795
1546.7890625 2.2443039999999996 1.284331 -0.959973
1547.734375 2.269107 1.29 -0.979107
1548.765625 2.245227 1.325 -0.920227
1549.65625 2.235157 1.331175 -0.903982
1550.6796875 2.272376 1.361862 -0.910514
1551.734375 2.210138 1.370465 -0.839673
1552.6640625 2.286676 1.376699 -0.909977
1553.703125 2.2566610000000003 1.342076 -0.914585
1554.63671875 2.188361 1.299582 -0.888779
1555.54296875 2.108984 1.223984 -0.885
1556.4375 2.221962 1.282 -0.939962
1557.41796875 2.2241340000000003 1.379428 -0.844706
1558.296875 2.252264 1.332264 -0.92
1559.29296875 2.253893 1.308977 -0.944916
1560.26171875 2.224878 1.314878 -0.91
1561.16015625 2.189647 1.236223 -0.953424
1562.19140625 2.263627 1.257673 -1.005954
1563.24609375 2.170893 1.26821 -0.902683
1564.1640625 2.178738 1.253183 -0.925555
1565.25390625 2.230856 1.347408 -0.883448
1566.2421875 2.149834 1.329929 -0.819905
1567.18359375 2.21327 1.311688 -0.901582
1568.23046875 2.253724 1.342403 -0.911321
1569.1875 2.153358 1.338364 -0.814994
1570.13671875 2.211649 1.38573 -0.825919
1571.078125 2.273094 1.394456 -0.878638
1571.97265625 2.224859 1.389873 -0.834986
1572.8671875 2.24405 1.338991 -0.905059
1573.8359375 2.374095 1.414299 -0.959796
1574.76953125 2.369324 1.414848 -0.954476
1575.71875 2.2597519999999998 1.291523 -0.968229
1576.72265625 2.290139 1.354873 -0.935266
1577.703125 2.2775 1.380711 -0.896789
1578.625 2.339542 1.375 -0.964542
1579.68359375 2.339675 1.37643 -0.963245
1580.66015625 2.2741379999999998 1.369016 -0.905122
1581.62890625 2.3319419999999997 1.347419 -0.984523
1582.625 2.385 1.41 -0.975
1583.5859375 2.339678 1.439678 -0.9
1584.53125 2.313743 1.379783 -0.93396
1585.5 2.395999 1.445 -0.950999
1586.48828125 2.346657 1.452063 -0.894594
1587.40625 2.34893 1.421755 -0.927175
1588.34375 2.36876 1.378317 -0.990443
1589.2890625 2.333553 1.424384 -0.909169
1590.18359375 2.34109 1.418291 -0.922799
1591.14453125 2.350542 1.378459 -0.972083
1592.1328125 2.368163 1.478748 -0.889415
1593.0234375 2.364849 1.405505 -0.959344
1594.0078125 2.428825 1.410976 -1.017849
1594.9765625 2.3609 1.409618 -0.951282
1595.9140625 2.375387 1.414433 -0.960954
1596.8828125 2.358866 1.396393 -0.962473
1597.8828125 2.415299 1.488401 -0.926898
1598.8125 2.388271 1.433037 -0.955234
1599.8046875 2.462633 1.487633 -0.975
1600.85546875 2.323858 1.435594 -0.888264
1601.8046875 2.320427 1.370936 -0.949491
1602.80078125 2.456705 1.456705 -1.0
1603.80078125 2.368859 1.458859 -0.91
1604.69921875 2.287534 1.390972 -0.896562
1605.6328125 2.389382 1.495742 -0.89364
1606.53515625 2.330154 1.490154 -0.84
1608.296875 1.9889020000000002 1.638219 -0.350683
1609.19921875 2.29819 1.47319 -0.825
1610.03125 2.32089 1.456871 -0.864019
1610.97265625 2.468701 1.528965 -0.939736
1611.94140625 2.412032 1.524168 -0.887864
1612.82421875 2.3176930000000002 1.451149 -0.866544
1613.828125 2.329919 1.419919 -0.91
1614.87109375 2.28962 1.434677 -0.854943
1615.81640625 2.304601 1.379903 -0.924698
1616.80859375 2.4090160000000003 1.359029 -1.049987
1617.82421875 2.291436 1.296436 -0.995
1618.74609375 2.328353 1.292746 -1.035607
1619.7578125 2.3377920000000003 1.275511 -1.062281
1620.71484375 2.296617 1.306903 -0.989714
1621.640625 2.366189 1.336757 -1.029432
1622.6640625 2.385389 1.354834 -1.030555
1623.65234375 2.3573139999999997 1.397886 -0.959428
1624.546875 2.399776 1.375118 -1.024658
1625.51171875 2.449877 1.405 -1.044877
1626.42578125 2.346542 1.397548 -0.948994
1627.3046875 2.3116510000000003 1.35261 -0.959041
1628.25 2.380593 1.34 -1.040593
1629.19921875 2.383171 1.376609 -1.006562
1630.09375 2.3231330000000003 1.28993 -1.033203
1631.09375 2.352309 1.261 -1.091309
1632.05859375 2.304332 1.274117 -1.030215
1632.984375 2.34846 1.280647 -1.067813
1634.02734375 2.368519 1.290449 -1.07807
1634.9921875 2.3476359999999996 1.264819 -1.082817
1635.95703125 2.3477180000000004 1.247718 -1.1
1636.94140625 2.375448 1.254432 -1.121016
1637.9140625 2.413037 1.348905 -1.064132
1638.83203125 2.337726 1.244668 -1.093058
1639.84375 2.358999 1.243671 -1.115328
1640.8046875 2.2304 1.23375 -0.99665
1641.74609375 2.267865 1.247865 -1.02
1642.69921875 2.3458959999999998 1.28003 -1.065866
1643.63671875 2.306911 1.309496 -0.997415
1644.5546875 2.332502 1.371342 -0.96116
1645.48046875 2.427165 1.464779 -0.962386
1646.42578125 2.386622 1.49877 -0.887852
1647.34375 2.3195449999999997 1.475358 -0.844187
1648.30859375 2.382516 1.482539 -0.899977
1649.30078125 2.314476 1.479476 -0.835
1650.2265625 2.269491 1.439707 -0.829784
1651.18359375 2.364941 1.484954 -0.879987
1652.19140625 2.370279 1.55104 -0.819239
1653.13671875 2.292055 1.552329 -0.739726
1654.046875 2.347633 1.550445 -0.797188
1655.07421875 2.3322589999999996 1.5715 -0.760759
1656.1015625 2.315278 1.56291 -0.752368
1657.0390625 2.302938 1.509166 -0.793772
1658.08984375 2.413899 1.594587 -0.819312
1659.08984375 2.382817 1.644784 -0.738033
1660.01953125 2.34191 1.614743 -0.727167
1661.08203125 2.360302 1.62366 -0.736642
1662.0546875 2.381885 1.64956 -0.732325
1662.98046875 2.3429580000000003 1.629739 -0.713219
1663.94921875 2.383529 1.586593 -0.796936
1664.85546875 2.349631 1.599769 -0.749862
1665.7578125 2.31358 1.589855 -0.723725
1666.72265625 2.444891 1.610438 -0.834453
1667.67578125 2.377472 1.564593 -0.812879
1668.6484375 2.375918 1.596518 -0.7794
1669.609375 2.3520469999999998 1.53653 -0.815517
1670.59375 2.389073 1.630831 -0.758242
1671.53515625 2.361083 1.592571 -0.768512
1672.50390625 2.437513 1.608659 -0.828854
1673.4921875 2.39985 1.61985 -0.78
1674.4609375 2.310756 1.604854 -0.705902
1675.43359375 2.344906 1.584954 -0.759952
1676.39453125 2.3499659999999998 1.597921 -0.752045
1677.35546875 2.409287 1.586918 -0.822369
1678.3203125 2.459585 1.601693 -0.857892
1679.25390625 2.411414 1.622027 -0.789387
1680.20703125 2.349616 1.573561 -0.776055
1681.1328125 2.442934 1.588978 -0.853956
1682.0625 2.416088 1.572045 -0.844043
1682.98046875 2.363575 1.519758 -0.843817
1683.91015625 2.4524369999999998 1.5307 -0.921737
1684.89453125 2.439388 1.569951 -0.869437
1685.83984375 2.342865 1.488593 -0.854272
1686.80078125 2.4972980000000002 1.582645 -0.914653
1687.796875 2.524743 1.630962 -0.893781
1688.73828125 2.459158 1.570849 -0.888309
1689.72265625 2.507507 1.587567 -0.91994
1690.7421875 2.522548 1.587865 -0.934683
1691.6796875 2.43087 1.601015 -0.829855
1692.62109375 2.461866 1.599488 -0.862378
1693.57421875 2.464728 1.614728 -0.85
1694.53515625 2.50446 1.63446 -0.87
1695.4609375 2.4945779999999997 1.609578 -0.885
1696.45703125 2.534586 1.573867 -0.960719
1697.421875 2.504037 1.600256 -0.903781
1698.34375 2.470414 1.620716 -0.849698
1699.3359375 2.539619 1.64483 -0.894789
1700.33203125 2.500408 1.628562 -0.871846
1701.2578125 2.474706 1.613273 -0.861433
1702.26171875 2.507777 1.563729 -0.944048
1703.203125 2.479547 1.569547 -0.91
1704.1328125 2.43593 1.562205 -0.873725
1705.13671875 2.541316 1.563184 -0.978132
1706.12109375 2.535988 1.560581 -0.975407
1707.1171875 2.473034 1.55844 -0.914594
1708.12109375 2.541216 1.581302 -0.959914
1709.171875 2.5433719999999997 1.585821 -0.957551
1710.171875 2.451597 1.488941 -0.962656
1711.19140625 2.550382 1.562526 -0.987856
1712.19921875 2.538138 1.606097 -0.932041
1713.171875 2.467243 1.57029 -0.896953
1714.1328125 2.585119 1.626721 -0.958398
1715.1015625 2.452914 1.555443 -0.897471
1716.05859375 2.5018190000000002 1.583399 -0.91842
1717.0078125 2.587142 1.569424 -1.017718
1718.0 2.554505 1.58 -0.974505
1718.93359375 2.509795 1.584803 -0.924992
1719.859375 2.471261 1.517046 -0.954215
1720.83203125 2.482355 1.578507 -0.903848
1721.7734375 2.451797 1.492204 -0.959593
1722.72265625 2.498282 1.448296 -1.049986
1723.76171875 2.439829 1.451725 -0.988104
1724.68359375 2.381863 1.411928 -0.969935
1725.6640625 2.5345079999999998 1.528926 -1.005582
1726.67578125 2.564505 1.560912 -1.003593
1727.62890625 2.458847 1.472585 -0.986262
1728.61328125 2.541679 1.469202 -1.072477
1729.6328125 2.56156 1.522109 -1.039451
1730.57421875 2.4794680000000002 1.542893 -0.936575
1731.51953125 2.504588 1.504903 -0.999685
1732.5078125 2.4774149999999997 1.477415 -1.0
1733.46875 2.4437290000000003 1.496447 -0.947282
1734.41796875 2.4357059999999997 1.445952 -0.989754
1735.40625 2.443115 1.478167 -0.964948
1736.37890625 2.361084 1.456593 -0.904491
1737.30859375 2.381406 1.506708 -0.874698
1738.296875 2.530902 1.573855 -0.957047
1739.24609375 2.5250179999999998 1.579481 -0.945537
1740.18359375 2.513026 1.584035 -0.928991
1741.11328125 2.498255 1.508255 -0.99
1742.04296875 2.464905 1.529905 -0.935
1742.95703125 2.427883 1.498872 -0.929011
1743.90234375 2.5482620000000002 1.484291 -1.063971
1744.875 2.5770540000000004 1.495 -1.082054
1745.8046875 2.493009 1.44785 -1.045159
1746.7265625 2.484655 1.354677 -1.129978
1747.70703125 2.486307 1.403527 -1.08278
1748.74609375 2.5019169999999997 1.443659 -1.058258
1749.68359375 2.536607 1.436607 -1.1
1750.6953125 2.2299629999999997 1.22021 -1.009753
1751.6796875 2.5389980000000003 1.499816 -1.039182
1752.578125 2.532287 1.532287 -1.0
1753.55859375 2.5753690000000002 1.5515 -1.023869
1754.53125 2.410788 1.509238 -0.90155
1755.4140625 2.509789 1.529912 -0.979877
1756.3828125 2.568555 1.548774 -1.019781
1757.28125 2.478459 1.511909 -0.96655
1759.03125 2.0668729999999997 1.737159 -0.329714
1759.9453125 2.494128 1.59487 -0.899258
1760.8046875 2.491706 1.553565 -0.938141
1761.78125 2.592664 1.495703 -1.096961
1762.73828125 2.460975 1.462381 -0.998594
1763.62890625 2.3989219999999998 1.400574 -0.998348
1764.61328125 2.547232 1.481363 -1.065869
1765.6171875 2.528987 1.494818 -1.034169
1766.5625 2.518859 1.418878 -1.099981
1767.625 2.486066 1.395 -1.091066
1768.6328125 2.443348 1.458731 -0.984617
1769.60546875 2.3952780000000002 1.371414 -1.023864
1770.64453125 2.529798 1.484798 -1.045
1771.6328125 2.4247170000000002 1.404033 -1.020684
1772.59375 2.493468 1.390975 -1.102493
1773.58984375 2.5192249999999996 1.410556 -1.108669
1774.515625 2.389404 1.374279 -1.015125
1775.4453125 2.392894 1.353409 -1.039485
1776.42578125 2.448969 1.390688 -1.058281
1777.37109375 2.381036 1.326156 -1.05488
1778.34375 2.409835 1.359327 -1.050508
1779.33203125 2.477709 1.397709 -1.08
1780.3359375 2.40093 1.386138 -1.014792
1781.2890625 2.4714359999999997 1.381704 -1.089732
1782.30078125 2.545008 1.435732 -1.109276
1783.3046875 2.3991179999999996 1.405698 -0.99342
1784.2890625 2.44447 1.43466 -1.00981
1785.296875 2.5191369999999997 1.433629 -1.085508
1786.31640625 2.453097 1.443365 -1.009732
1787.2890625 2.463579 1.454447 -1.009132
1788.26171875 2.4387429999999997 1.409087 -1.029656
1789.28125 2.375349 1.436302 -0.939047
1790.22265625 2.42144 1.452241 -0.969199
1791.203125 2.482538 1.467538 -1.015
1792.1484375 2.404519 1.472621 -0.931898
1793.09375 2.462237 1.478398 -0.983839
1793.9921875 2.522442 1.542565 -0.979877
1794.91015625 2.425471 1.510566 -0.914905
1796.66796875 2.130697 1.785746 -0.344951
1797.578125 2.474215 1.634215 -0.84
1798.44140625 2.4572000000000003 1.594001 -0.863199
1799.37890625 2.5028379999999997 1.569451 -0.933387
1800.34375 2.42368 1.549337 -0.874343
1801.265625 2.4803 1.523633 -0.956667
1802.25390625 2.417566 1.493024 -0.924542
1803.171875 2.4189290000000003 1.461942 -0.956987
1804.16796875 2.493345 1.478995 -1.01435
