210 
505 
801 
1093 
1386 
1666 
1937 
2239 
2526 
2805 
3082 
3350 
3643 
3932 
4210 
4488 
4760 
5030 
5326 
5609 
5887 
6158 
6431 
6725 
7025 
7309 
7595 
7888 
8177 
8482 
8779 
9058 
9344 
9623 
9912 
10213 
10490 
10766 
11038 
11336 
11622 
11911 
12184 
12455 
12738 
13019 
13302 
13581 
13839 
14098 
14384 
14659 
14938 
15206 
15469 
15732 
16020 
16298 
16579 
16845 
17110 
17389 
17674 
17950 
18227 
18491 
18746 
19032 
19308 
19578 
19851 
20110 
20372 
20656 
20934 
21203 
21472 
21728 
21861 
22282 
22553 
22831 
23095 
23351 
23630 
23916 
24181 
24453 
24722 
24982 
25268 
25553 
25826 
26100 
26364 
26647 
26934 
27214 
27491 
27768 
28036 
28326 
28613 
28894 
29163 
29438 
29729 
30017 
30302 
30579 
30859 
31143 
31433 
31724 
32009 
32280 
32414 
32842 
33136 
33417 
33698 
33969 
34254 
34540 
34822 
35102 
35374 
35638 
35930 
36211 
36487 
36769 
37035 
37319 
37606 
37894 
38173 
38451 
38714 
39008 
39296 
39569 
39849 
40118 
40386 
40680 
40956 
41225 
41501 
41756 
42045 
42331 
42603 
42877 
43149 
43420 
43713 
43999 
44275 
44551 
44821 
45108 
45403 
45682 
45956 
46241 
46515 
46809 
47101 
47371 
47652 
47919 
48207 
48502 
48776 
49051 
49324 
49474 
49877 
50161 
50431 
50698 
50951 
51239 
51513 
51794 
52063 
52332 
52600 
52891 
53176 
53463 
53741 
54006 
54309 
54598 
54883 
55169 
55438 
55715 
56009 
56291 
56575 
56842 
57106 
57235 
57668 
57940 
58212 
58473 
58733 
59011 
59288 
59548 
59815 
60072 
60337 
60622 
60898 
61166 
61440 
61700 
61942 
62280 
62559 
62842 
63112 
63238 
63523 
63924 
64201 
64485 
64638 
65029 
65321 
65603 
65880 
66087 
66428 
66720 
67017 
67294 
67445 
67841 
68130 
68421 
68702 
68975 
69255 
69521 
69811 
70097 
70375 
70646 
70913 
71201 
71467 
71772 
72049 
72323 
72600 
72892 
73180 
73466 
73702 
73986 
74315 
74602 
74883 
75016 
75420 
75710 
76002 
76279 
76429 
76822 
77084 
77379 
77656 
77784 
78181 
78448 
78702 
78985 
79256 
79518 
79778 
80032 
80285 
80565 
80830 
81096 
81363 
81624 
81893 
82181 
82446 
82715 
82977 
83235 
83512 
83794 
84066 
84335 
84611 
84876 
85168 
85457 
85726 
85996 
86260 
86535 
86803 
86914 
87002 
87325 
87590 
87839 
88108 
88386 
88641 
88902 
89158 
89415 
89687 
89963 
90231 
90492 
90754 
91022 
91297 
91576 
91845 
92099 
92365 
92638 
92918 
93146 
93467 
93732 
93987 
94271 
94531 
94818 
95086 
95244 
95615 
95903 
96177 
96449 
96718 
96971 
97249 
97535 
97803 
98087 
98354 
98620 
98907 
99194 
99467 
99745 
99968 
100288 
100578 
100858 
101128 
101401 
101659 
101944 
102233 
102508 
102783 
103060 
103329 
103489 
103907 
104186 
104468 
104729 
104885 
105305 
105585 
105857 
106128 
106316 
106684 
106978 
107245 
107516 
107781 
108050 
108337 
108606 
108869 
109141 
109405 
109682 
109969 
110202 
110503 
110771 
111035 
111319 
111594 
111865 
112131 
112400 
112683 
112974 
113246 
113528 
113799 
113941 
114368 
114662 
114953 
115230 
115511 
115812 
116111 
116401 
116686 
116850 
117266 
117568 
117854 
118140 
118419 
118696 
119002 
119286 
119565 
119853 
120099 
120421 
120713 
120991 
121268 
121538 
121736 
122111 
122387 
122666 
122934 
123202 
123486 
123780 
124052 
124323 
124604 
124883 
125177 
125466 
125748 
125901 
126304 
126608 
126909 
127184 
127336 
127729 
128026 
128315 
128581 
128862 
129128 
129404 
129685 
129973 
130243 
130444 
130765 
131048 
131331 
131607 
131768 
132141 
132269 
132678 
132957 
133226 
133488 
133747 
134005 
134288 
134566 
134841 
135110 
135369 
135657 
135945 
136221 
136502 
136771 
137031 
137327 
137489 
137883 
138159 
138419 
138694 
138984 
139242 
139537 
139813 
140075 
140372 
140664 
140940 
141224 
141496 
141775 
142069 
142333 
142623 
142903 
143164 
143456 
143739 
144014 
144282 
144425 
144821 
145114 
145398 
145672 
145787 
146194 
146476 
146753 
147019 
147274 
147531 
147786 
148047 
148314 
148572 
148827 
149078 
149323 
149586 
149836 
150100 
150348 
150588 
150834 
151096 
151361 
151611 
151861 
152099 
152348 
152604 
152860 
153115 
153366 
153607 
153839 
154082 
154341 
154587 
154821 
155061 
155290 
155533 
155781 
156021 
156257 
156497 
156729 
156952 
157206 
157453 
157691 
157933 
158167 
158395 
158640 
158895 
159139 
159371 
159606 
159843 
160069 
160321 
160562 
160793 
161028 
161237 
161479 
161706 
161961 
162202 
162427 
162657 
162886 
163113 
163346 
163598 
163831 
164064 
164296 
164530 
164774 
165016 
165267 
165508 
165737 
165974 
166218 
166464 
166719 
166957 
167205 
167438 
167677 
167937 
168201 
168463 
168709 
168961 
169197 
169479 
169736 
169993 
170253 
170497 
170596 
170694 
170997 
171255 
171503 
171755 
171999 
172232 
172495 
172752 
173007 
173259 
173509 
173754 
174017 
174288 
174551 
174817 
175066 
175314 
175593 
175866 
176120 
176393 
176648 
176896 
177167 
177441 
177694 
177958 
178208 
178453 
178719 
178987 
179172 
179297 
179426 
179549 
179752 
179856 
180103 
180430 
180700 
180956 
181214 
181456 
181718 
181988 
182252 
182510 
182769 
183014 
183291 
183562 
183823 
184079 
184338 
184586 
184854 
185127 
185391 
185647 
185909 
186167 
186445 
186723 
186988 
187248 
187434 
187788 
188065 
188340 
188607 
188848 
189120 
189396 
189668 
189931 
190200 
190457 
190722 
190932 
191282 
191555 
191827 
192089 
192362 
192646 
192798 
193186 
193448 
193703 
193986 
194261 
194522 
194790 
195047 
195279 
195552 
195807 
196063 
196320 
196559 
196785 
197042 
197304 
197551 
197790 
198034 
198259 
198505 
198760 
199015 
199261 
199497 
199740 
199962 
200226 
200482 
200721 
200978 
201225 
201462 
201724 
201984 
202245 
202491 
202752 
202992 
203250 
203520 
203768 
204022 
204268 
204508 
204767 
205034 
205277 
205528 
205770 
206009 
206259 
206520 
206771 
207020 
207262 
207507 
207761 
208016 
208285 
208534 
208777 
209028 
209281 
209542 
209794 
210059 
210304 
210550 
210737 
211074 
211345 
211607 
211859 
212114 
212367 
212638 
212900 
213161 
213411 
213663 
213927 
214211 
214409 
214736 
214996 
215238 
215507 
215784 
216040 
216310 
216562 
216817 
216975 
217351 
217607 
217870 
218120 
218370 
218631 
218901 
219161 
219418 
219665 
219904 
220161 
220425 
220672 
220928 
221176 
221411 
221675 
221945 
222192 
222447 
222695 
222936 
223187 
223458 
223719 
223984 
224231 
224472 
224741 
225004 
225263 
225516 
225763 
226010 
226265 
226527 
226780 
227023 
227268 
227505 
227755 
228018 
228273 
228515 
228757 
228999 
229239 
229496 
229751 
229998 
230239 
230473 
230721 
230974 
231230 
231470 
231705 
231946 
232190 
232444 
232704 
232945 
233197 
233425 
233658 
233936 
234198 
234449 
234691 
234939 
235179 
235457 
235723 
235974 
236219 
236460 
236689 
236942 
237207 
237458 
237701 
237945 
238192 
238430 
238698 
238950 
239194 
239439 
239677 
239916 
240187 
240442 
240686 
240933 
241181 
241415 
241678 
241941 
242174 
242410 
242647 
242882 
243130 
243386 
243632 
243868 
244105 
244341 
244590 
244856 
245113 
245353 
245597 
245840 
246083 
246337 
246599 
246841 
247086 
247330 
247560 
247809 
248084 
248333 
248571 
248822 
249065 
249329 
249581 
249837 
250080 
250321 
250551 
250802 
251061 
251312 
251557 
251789 
251903 
252266 
252471 
252753 
252987 
253119 
253455 
253673 
253928 
254170 
254402 
254642 
254867 
255093 
255330 
255584 
255829 
256060 
256299 
256530 
256757 
257007 
257256 
257494 
257738 
257976 
258205 
258452 
258717 
258970 
259210 
259459 
259697 
259938 
260193 
260446 
260685 
260928 
261169 
261398 
261655 
261918 
262157 
262403 
262649 
262877 
263135 
263387 
263632 
263868 
264108 
264337 
264568 
264815 
265063 
265293 
265526 
265760 
265980 
266227 
266467 
266705 
266937 
267170 
267404 
267642 
267892 
268145 
268387 
268630 
268866 
269098 
269347 
269592 
269844 
270080 
270309 
270543 
270789 
271037 
271286 
271524 
271758 
271995 
272246 
272494 
272741 
272984 
273213 
273449 
273688 
273937 
274191 
274418 
274672 
274907 
275130 
275393 
275639 
275887 
276128 
276370 
276601 
276849 
277109 
277356 
277599 
277837 
278073 
278302 
278567 
278812 
279045 
279279 
279521 
279745 
279997 
280257 
280496 
280738 
280979 
281218 
281465 
281733 
281985 
282221 
282461 
282701 
282931 
283179 
283432 
283664 
283900 
284131 
284356 
284602 
284854 
285098 
285327 
285557 
285792 
286021 
286260 
286509 
286741 
286974 
287206 
287443 
287685 
287937 
288188 
288423 
288660 
288895 
289129 
289375 
289623 
289860 
290090 
290316 
290546 
290798 
291036 
291279 
291519 
291746 
291975 
292218 
292461 
292702 
292936 
293162 
293391 
293615 
293867 
294114 
294356 
294604 
294834 
295061 
295321 
295575 
295814 
296066 
296294 
296528 
296759 
297014 
297256 
297493 
297730 
297966 
298189 
298435 
298693 
298929 
299166 
299402 
299628 
299866 
300112 
300360 
300588 
300830 
301059 
301279 
301526 
301775 
302014 
302249 
302489 
302721 
302959 
303215 
303471 
303709 
303951 
304190 
304422 
304672 
304920 
305159 
305394 
305634 
305859 
306102 
306354 
306599 
306833 
307066 
307299 
307533 
307783 
308022 
308267 
308498 
308736 
308967 
309207 
309453 
309548 
309693 
309925 
310155 
310383 
310614 
310854 
311097 
311329 
311556 
311773 
312006 
312249 
312492 
312733 
312971 
313204 
313437 
313678 
313927 
314178 
314418 
314661 
314900 
315145 
315403 
315655 
315896 
316141 
316376 
316598 
316847 
317089 
317332 
317562 
317792 
318017 
318244 
318493 
318730 
318957 
319181 
319403 
319618 
319839 
320082 
320303 
320518 
320733 
320949 
321154 
321366 
321606 
321833 
322047 
322261 
322480 
322695 
322912 
323159 
323392 
323613 
323831 
324056 
324266 
324500 
324741 
324975 
325196 
325415 
325639 
325859 
326091 
326334 
326569 
326787 
327006 
327229 
327447 
327685 
327926 
328152 
328377 
328595 
328814 
329047 
329277 
329523 
329742 
329966 
330189 
330407 
330641 
330872 
331107 
331328 
331541 
331752 
331966 
332198 
332422 
332662 
332878 
333082 
333300 
333505 
333752 
333966 
334210 
334430 
334639 
334858 
335067 
335300 
335537 
335766 
335988 
336207 
336428 
336649 
336891 
337125 
337361 
337598 
337815 
338033 
338277 
338519 
338761 
338995 
339221 
339444 
339661 
339891 
340144 
340375 
340603 
340830 
341048 
341265 
341508 
341745 
341968 
342196 
342424 
342627 
342856 
343089 
343325 
343550 
343773 
343997 
344209 
344437 
344675 
344906 
345124 
345344 
345566 
345764 
346003 
346238 
346471 
346686 
346901 
347127 
347338 
347573 
347807 
348042 
348260 
348478 
348702 
348915 
349149 
349373 
349606 
349827 
350039 
350261 
350475 
350709 
350943 
351166 
351392 
351603 
351824 
352039 
352270 
352501 
352726 
352946 
353156 
353379 
353604 
353839 
354073 
354301 
354522 
354735 
354951 
355179 
355404 
355630 
355852 
356068 
356279 
356490 
356717 
356942 
357164 
357381 
357602 
357818 
358028 
358263 
358486 
358715 
358932 
359156 
359369 
359582 
359820 
360051 
360287 
360505 
360731 
360934 
361153 
361392 
361620 
361846 
362065 
362290 
362505 
362714 
362966 
363205 
363436 
363668 
363896 
364120 
364331 
364587 
364826 
365054 
365289 
365532 
365748 
365983 
366235 
366459 
366681 
366899 
367121 
367332 
367558 
367794 
368015 
368227 
368440 
368654 
368864 
369090 
369327 
369554 
369768 
369981 
370204 
370419 
370649 
370888 
371116 
371333 
371549 
371772 
371986 
372217 
372453 
372673 
372895 
373113 
373331 
373552 
373783 
374018 
374240 
374461 
374681 
374898 
375133 
375371 
375613 
375840 
376060 
376281 
376493 
376727 
376949 
377184 
377404 
377616 
377833 
378042 
378274 
378506 
378736 
378960 
379171 
379391 
379599 
379834 
380073 
380302 
380530 
380751 
380968 
381185 
381429 
381660 
381890 
382127 
382342 
382565 
382793 
383035 
383270 
383500 
383737 
383958 
384174 
384417 
384662 
384898 
385132 
385359 
385583 
385805 
386047 
386286 
386509 
386745 
386968 
387185 
387415 
387658 
387897 
388115 
388345 
388566 
388770 
389005 
389242 
389468 
389675 
389890 
390104 
390305 
390534 
390761 
390990 
391202 
391418 
391638 
391848 
392072 
392306 
392543 
392768 
392983 
393215 
393429 
393665 
393900 
394135 
394353 
394568 
394793 
395003 
395229 
395461 
395677 
395892 
396117 
396326 
396537 
396775 
396989 
397213 
397441 
397637 
397867 
398067 
398286 
398520 
398725 
398954 
399149 
399360 
399578 
399783 
400016 
400221 
400429 
400645 
400839 
401051 
401267 
401478 
401694 
401905 
402112 
402320 
402525 
402739 
402963 
403185 
403397 
403610 
403820 
404025 
404239 
404458 
404690 
404910 
405139 
405353 
405568 
405786 
406024 
406244 
406457 
406671 
406885 
407088 
407295 
407534 
407757 
407962 
408192 
408408 
408610 
408832 
409072 
409247 
409513 
409749 
409968 
410183 
410390 
410627 
410822 
411062 
411278 
411486 
411694 
411895 
412113 
412341 
412551 
412699 
412938 
413148 
413338 
413546 
413769 
413977 
414180 
414378 
414579 
414784 
414989 
415202 
415427 
415637 
415843 
416051 
416256 
416461 
416686 
416907 
417131 
417336 
417544 
417753 
417957 
418172 
418396 
418621 
418836 
419051 
419268 
419483 
419718 
419952 
420191 
420418 
420640 
420866 
421090 
421325 
421558 
421785 
422007 
422224 
422441 
422659 
422887 
423109 
423334 
423553 
423770 
423990 
424207 
424443 
424676 
424904 
425124 
425336 
425549 
425764 
425992 
426213 
426429 
426638 
426839 
427048 
427247 
427476 
427693 
427911 
428122 
428336 
428547 
428749 
428988 
429224 
429445 
429667 
429899 
430105 
430330 
430579 
430812 
431033 
431262 
431482 
431688 
431907 
432154 
432393 
432604 
432836 
433066 
433273 
433505 
433738 
433964 
434180 
434403 
434616 
434826 
435055 
435281 
435514 
435727 
435943 
436161 
436367 
436596 
436826 
437055 
437265 
437484 
437700 
437904 
438131 
438359 
438593 
438808 
439020 
439242 
439443 
439665 
439895 
440122 
440331 
440537 
440751 
440951 
441161 
441379 
441604 
441811 
442017 
442225 
442440 
442648 
442877 
443088 
443308 
443521 
443737 
443951 
444156 
444374 
444593 
444801 
445022 
445231 
445441 
445647 
445858 
446074 
446305 
446507 
446712 
446922 
447123 
447337 
447571 
447774 
447985 
448191 
448393 
448593 
448802 
449019 
449235 
449434 
449659 
449853 
450050 
450275 
450483 
450710 
450929 
451137 
451350 
451547 
451744 
451979 
452191 
452407 
452617 
452833 
453044 
453244 
453422 
453706 
453942 
454161 
454389 
454608 
454826 
455065 
455288 
455504 
455709 
455919 
456128 
456313 
456523 
456748 
456959 
457152 
457352 
457550 
457745 
457920 
458144 
458353 
458556 
458750 
458938 
459137 
459329 
459520 
459727 
459942 
460136 
460334 
460522 
460713 
460899 
461089 
461295 
461501 
461688 
461873 
462059 
