4.1015625 1.864211 1.41252 -0.451691
4.85546875 1.567435 0.909372 -0.658063
5.2109375 0.69748 -0.050176 -0.747656
5.7421875 1.0625380000000002 -0.00439 -1.066928
6.5703125 1.019854 -0.022646 -1.0425
7.39453125 0.855081 -0.115016 -0.970097
8.1875 0.9315229999999999 -0.115909 -1.047432
8.99609375 0.9412410000000001 -0.097819 -1.03906
9.7890625 1.96122 1.493689 -0.467531
10.54296875 1.322224 0.951748 -0.370476
11.4296875 0.767973 0.067267 -0.700706
12.2578125 0.919594 0.047265 -0.872329
13.078125 0.9717 0.062744 -0.908956
13.88671875 1.002372 0.12 -0.882372
14.68359375 0.956323 0.071442 -0.884881
15.47265625 2.025147 1.670408 -0.354739
16.31640625 1.5591720000000002 1.004172 -0.555
17.09375 0.707031 0.075 -0.632031
17.94140625 0.868054 -0.0050 -0.873054
18.76171875 0.9178040000000001 -0.050314 -0.968118
19.59375 0.892344 -0.133281 -1.025625
20.39453125 0.889831 -0.085016 -0.974847
21.1640625 2.318984 1.718984 -0.6
22.00390625 1.5893570000000001 0.93 -0.659357
22.77734375 0.838977 -0.096655 -0.935632
23.60546875 0.77042 -0.029469 -0.799889
24.44140625 0.8779429999999999 0.524828 -0.353115
25.2734375 0.885181 0.350191 -0.53499
26.078125 0.970951 0.134323 -0.836628
26.88671875 1.663262 1.308862 -0.3544
27.640625 1.303378 0.690673 -0.612705
28.43359375 0.929655 -0.061673 -0.991328
29.30859375 0.774146 -0.005064 -0.77921
30.13671875 0.767912 -0.123319 -0.891231
30.9453125 0.86066 -0.15458 -1.01524
31.7578125 1.976195 1.471393 -0.504802
32.57421875 1.7109779999999999 1.251271 -0.459707
33.3515625 1.059246 0.145517 -0.913729
34.140625 0.8862909999999999 -0.077207 -0.963498
34.953125 0.942545 -0.040339 -0.982884
35.80859375 0.8799330000000001 -0.00218 -0.882113
36.6328125 0.9519880000000001 0.015386 -0.936602
37.46875 0.809814 -0.056094 -0.865908
38.28515625 1.5689229999999998 1.274403 -0.29452
39.05078125 1.113892 0.903915 -0.209977
39.84375 0.9598260000000001 0.04625 -0.913576
40.6171875 0.8634390000000001 0.032093 -0.831346
41.48828125 0.947628 -0.003865 -0.951493
42.3359375 0.921802 -6.3E-5 -0.921865
43.1328125 0.9600310000000001 -0.064614 -1.024645
43.93359375 2.066559 1.524504 -0.542055
44.76953125 1.591294 1.190294 -0.401
45.5703125 0.891422 0.12 -0.771422
46.31640625 0.9114049999999999 0.069614 -0.841791
47.15625 0.80699 -0.0775 -0.88449
48.0078125 0.820235 -0.023801 -0.844036
48.8359375 0.934594 -0.02 -0.954594
49.6484375 1.036972 0.07665 -0.960322
50.47265625 1.626449 1.277647 -0.348802
51.234375 1.310202 0.857542 -0.45266
52.01953125 0.979986 0.129986 -0.85
52.81640625 0.866591 -0.009327 -0.875918
53.671875 1.0044110000000002 -0.055095 -1.059506
54.5 0.974706 -0.14 -1.114706
55.33203125 0.8115690000000001 -0.245 -1.056569
56.08203125 1.571221 0.941221 -0.63
56.92578125 1.666582 1.313421 -0.353161
57.71484375 0.901975 0.520163 -0.381812
58.50390625 0.869917 -0.134517 -1.004434
59.36328125 0.680897 -0.196559 -0.877456
60.203125 0.780711 -0.175651 -0.956362
61.0078125 0.9107349999999999 -0.12616 -1.036895
61.828125 1.041045 -0.003422 -1.044467
62.06640625 1.366062 0.321595 -1.044467
62.58984375 2.0255419999999997 1.080542 -0.945
62.890625 1.081041 0.186373 -0.894668
63.1796875 0.486825 -0.023955 -0.51078
63.41796875 2.080537 1.401292 -0.679245
63.75 0.873565 0.25 -0.623565
65.02734375 1.124184 -0.050435 -1.174619
65.86328125 0.6678379999999999 -0.377172 -1.04501
66.68359375 0.795301 -0.029876 -0.825177
67.515625 0.9024810000000001 -0.053622 -0.956103
68.3125 0.918273 0.026 -0.892273
69.10546875 1.834857 1.474857 -0.36
69.94140625 1.344525 0.799417 -0.545108
70.6796875 0.906096 -0.062292 -0.968388
71.53515625 0.865744 -0.217548 -1.083292
72.36328125 0.9760659999999999 -0.178679 -1.154745
73.1875 0.838147 -0.059038 -0.897185
74.0078125 0.8490040000000001 -0.011384 -0.860388
74.80859375 0.871993 -0.05765 -0.929643
75.51171875 1.70566 0.996316 -0.709344
76.359375 1.578916 1.158003 -0.420913
77.16015625 1.415058 0.798793 -0.616265
78.0390625 0.868918 0.065468 -0.80345
78.84375 0.9220119999999999 -0.022988 -0.945
79.65625 0.9922030000000002 -0.127797 -1.12
80.46484375 0.894838 -0.172666 -1.067504
81.25390625 0.9553419999999999 -0.084813 -1.040155
81.99609375 1.515579 1.101029 -0.41455
82.82421875 1.548006 1.153354 -0.394652
83.73046875 1.534872 1.124913 -0.409959
84.5 1.708245 0.96 -0.748245
85.34375 0.890042 0.103523 -0.786519
86.15625 0.840367 -0.070859 -0.911226
86.953125 0.8883960000000001 -0.083286 -0.971682
87.72265625 1.176507 0.286782 -0.889725
88.515625 0.904554 0.030442 -0.874112
89.36328125 0.9108569999999999 0.092548 -0.818309
90.12890625 1.671996 1.183326 -0.48867
90.9296875 1.685521 1.220521 -0.465
91.83203125 1.5290910000000002 1.229904 -0.299187
92.5859375 1.509047 0.961944 -0.547103
93.39453125 0.911492 0.034319 -0.877173
94.1640625 0.835422 0.035422 -0.8
95.01171875 0.741875 0.090132 -0.651743
95.84765625 0.856762 0.086183 -0.770579
96.6640625 0.869529 0.092283 -0.777246
97.48828125 0.926525 0.031883 -0.894642
98.21875 1.627663 1.038737 -0.588926
99.05078125 1.7958539999999998 1.468845 -0.327009
99.82421875 1.208113 0.924822 -0.283291
100.63671875 1.0199 0.136139 -0.883761
101.484375 0.8275049999999999 0.083838 -0.743667
102.3125 0.905707 0.105319 -0.800388
103.140625 0.8110999999999999 -0.025 -0.8361
103.94921875 0.882026 -0.038815 -0.920841
104.7578125 0.920203 0.049302 -0.870901
105.4921875 1.758979 1.210854 -0.548125
106.328125 1.636959 1.364916 -0.272043
107.15625 0.892139 0.134645 -0.757494
107.98828125 0.93492 0.14992 -0.785
108.80078125 0.947407 0.097407 -0.85
109.62890625 0.9671770000000001 0.062231 -0.904946
110.44140625 0.9759709999999999 0.10976 -0.866211
111.2265625 0.955295 0.06842 -0.886875
111.94921875 1.690787 1.125787 -0.565
112.796875 2.038641 1.788666 -0.249975
113.63671875 1.160598 0.875612 -0.284986
114.48046875 0.852341 0.020367 -0.831974
115.3203125 0.86176 -0.00824 -0.87
116.1328125 0.8361430000000001 0.055 -0.781143
116.92578125 1.550811 0.746335 -0.804476
117.29296875 0.45599 0.273189 -0.182801
117.70703125 0.856159 0.032734 -0.823425
118.48046875 0.9999279999999999 0.049928 -0.95
119.30859375 1.5109780000000002 1.124489 -0.386489
120.12109375 1.6278479999999997 1.050987 -0.576861
120.9921875 1.5982100000000001 1.25821 -0.34
121.78515625 1.232861 0.733674 -0.499187
122.6328125 1.17929 0.034355 -1.144935
123.39453125 1.3502969999999999 0.180745 -1.169552
123.7109375 0.48975900000000006 0.275 -0.214759
124.16796875 0.859986 -0.021404 -0.88139
125.02734375 1.024951 -0.120049 -1.145
125.86328125 1.108957 0.034387 -1.07457
126.67578125 0.8836489999999999 -0.339626 -1.223275
127.5 0.9867980000000001 -0.285 -1.271798
128.2890625 1.4565130000000002 0.878627 -0.577886
129.046875 1.703915 0.928915 -0.775
129.84375 2.0253240000000003 1.630324 -0.395
130.6484375 1.071691 0.932922 -0.138769
131.53125 0.678382 -0.06 -0.738382
132.37109375 1.078832 0.163946 -0.914886
133.19140625 0.964696 0.157753 -0.806943
133.9765625 1.2444950000000001 0.592862 -0.651633
134.8125 1.109256 0.774348 -0.334908
135.58984375 0.9365709999999999 0.327711 -0.60886
136.359375 0.889281 -0.158609 -1.04789
137.203125 1.04157 -0.424275 -1.465845
138.01171875 1.656322 0.665818 -0.990504
138.70703125 1.7519879999999999 0.538479 -1.213509
139.58203125 1.8598970000000001 0.94502 -0.914877
140.37109375 1.541853 0.751971 -0.789882
141.93359375 1.6746949999999998 0.767219 -0.907476
142.76953125 0.901655 0.103905 -0.79775
143.61328125 0.818127 0.086781 -0.731346
144.43359375 0.77111 0.014219 -0.756891
145.26171875 1.515388 0.590113 -0.925275
146.0859375 0.972944 -0.060057 -1.033001
146.87109375 1.997504 0.732747 -1.264757
147.6484375 1.371076 0.168533 -1.202543
148.453125 1.103993 0.084005 -1.019988
149.2890625 1.28727 0.214845 -1.072425
149.50390625 0.37942200000000004 0.15286 -0.226562
150.1015625 0.9503799999999999 -0.064563 -1.014943
150.81640625 1.6065260000000001 0.959466 -0.64706
151.359375 0.09149399999999999 -0.176801 -0.268295
151.62109375 1.7615979999999998 1.136823 -0.624775
152.4375 1.690105 1.020893 -0.669212
153.25390625 2.29246 1.456069 -0.836391
154.06640625 1.67721 1.129626 -0.547584
156.51953125 1.948239 0.904689 -1.04355
157.33984375 1.957154 1.048821 -0.908333
158.203125 0.694928 0.044408 -0.65052
158.4765625 1.2090619999999999 0.446333 -0.762729
158.97265625 1.296659 0.357293 -0.939366
159.26171875 1.319366 0.38 -0.939366
159.73046875 1.6785839999999999 0.809043 -0.869541
160.5546875 0.96167 -0.025656 -0.987326
161.39453125 0.91918 -0.235429 -1.154609
161.63671875 1.117478 -0.037131 -1.154609
162.2109375 0.9573929999999999 -0.157332 -1.114725
162.96875 1.768254 1.053796 -0.714458
163.75390625 1.796533 1.061065 -0.735468
164.6328125 1.6839270000000002 1.169121 -0.514806
165.37890625 1.193 0.813535 -0.379465
166.16796875 1.018081 0.035385 -0.982696
167.00390625 1.371806 0.497462 -0.874344
167.828125 1.684765 0.874228 -0.810537
168.66015625 0.8812059999999999 0.047056 -0.83415
169.48046875 1.252969 0.171301 -1.081668
169.7109375 0.389874 0.234874 -0.155
170.3125 1.122737 0.210239 -0.912498
171.0859375 0.9729869999999999 0.215703 -0.757284
171.81640625 1.186985 0.832954 -0.354031
172.57421875 1.320123 0.580788 -0.739335
173.4921875 1.226419 0.606587 -0.619832
174.26953125 1.474437 0.649467 -0.82497
175.10546875 1.814609 0.709801 -1.104808
175.93359375 0.9049490000000001 -0.195051 -1.1
176.7265625 1.702115 0.660115 -1.042
177.5078125 1.665357 0.69692 -0.968437
178.30859375 0.9715689999999999 -0.175267 -1.146836
179.1328125 1.000678 -0.173186 -1.173864
179.953125 1.7787920000000002 0.672546 -1.106246
180.71484375 1.378646 0.768646 -0.61
181.48828125 1.550641 0.970344 -0.580297
182.35546875 1.706524 1.374712 -0.331812
183.140625 1.353484 0.942163 -0.411321
183.90625 1.627794 0.887801 -0.739993
184.75390625 0.814028 -0.01588 -0.829908
185.5859375 0.875046 0.414495 -0.460551
186.39453125 0.999358 -0.095038 -1.094396
187.21484375 1.178435 0.035645 -1.14279
188.046875 0.778173 -0.299826 -1.077999
188.8359375 0.850243 -0.222201 -1.072444
189.60546875 1.881138 0.76924 -1.111898
190.4296875 0.7828800000000001 -0.232733 -1.015613
191.25390625 0.9018720000000001 -0.142891 -1.044763
192.078125 0.840153 -0.187221 -1.027374
192.91796875 0.827528 -0.105624 -0.933152
193.62109375 1.3993449999999998 0.927136 -0.472209
194.4296875 1.384105 0.799105 -0.585
195.21484375 1.1600000000000001 0.8 -0.36
196.00390625 2.022916 1.618355 -0.404561
196.84375 1.6752259999999999 1.275248 -0.399978
197.67578125 1.4816019999999999 1.075948 -0.405654
198.53125 1.406818 0.960297 -0.446521
199.359375 1.327204 0.898387 -0.428817
200.1484375 1.132346 0.704313 -0.428033
200.9375 1.085592 0.642334 -0.443258
201.70703125 1.101935 0.767663 -0.334272
202.5234375 1.2489569999999999 0.939905 -0.309052
203.35546875 1.199413 1.024518 -0.174895
204.1796875 1.267922 0.951876 -0.316046
205.01953125 1.198236 0.82926 -0.368976
205.8359375 1.2463039999999999 0.966784 -0.27952
206.64453125 1.202933 0.909967 -0.292966
207.41015625 1.364786 1.031114 -0.333672
208.234375 1.977516 1.467546 -0.50997
208.578125 1.1993770000000001 0.276548 -0.922829
209.05859375 2.458027 1.882478 -0.575549
209.86328125 2.246288 1.95349 -0.292798
210.69140625 1.989136 1.810894 -0.178242
211.5234375 1.614388 1.457253 -0.157135
212.30078125 1.655485 1.176303 -0.479182
213.0546875 1.781244 1.294708 -0.486536
213.80078125 1.7955510000000001 1.30684 -0.488711
214.6015625 1.653521 1.220047 -0.433474
215.4140625 1.6361299999999999 1.154872 -0.481258
216.21875 1.6027719999999999 1.153409 -0.449363
217.03515625 1.550913 1.121422 -0.429491
217.84765625 1.540638 1.088857 -0.451781
218.6328125 1.623231 1.158231 -0.465
219.3984375 1.656528 1.216528 -0.44
220.16796875 1.582557 1.092557 -0.49
220.984375 1.661543 1.127855 -0.533688
221.79296875 1.6743430000000001 1.219343 -0.455
222.6015625 1.696856 1.244756 -0.4521
223.41796875 1.662852 1.226369 -0.436483
224.2265625 1.6239569999999999 1.158971 -0.464986
225.0 1.745 1.175 -0.57
225.7421875 1.725026 1.16437 -0.560656
226.5390625 1.71702 1.149665 -0.567355
227.34765625 1.7822239999999998 1.269402 -0.512822
228.15234375 1.777465 1.227465 -0.55
228.6796875 1.084753 -0.00616 -1.090913
229.5546875 1.001593 0.016609 -0.984984
230.36328125 1.824017 0.674767 -1.14925
231.1328125 1.8331 0.701767 -1.131333
231.91796875 1.005042 -0.095 -1.100042
232.75 1.069561 -0.17 -1.239561
233.55859375 1.177963 0.027999 -1.149964
234.390625 1.0029940000000002 -0.145417 -1.148411
235.22265625 1.0714160000000001 -0.169144 -1.24056
236.0546875 1.0249350000000002 -0.164014 -1.188949
236.84375 1.040707 -0.107083 -1.14779
237.60546875 1.130192 -0.109808 -1.24
238.4296875 1.075549 -0.154783 -1.230332
239.25390625 0.955571 -0.210432 -1.166003
240.0703125 1.035154 -0.23384 -1.268994
240.890625 1.671961 0.397028 -1.274933
241.71875 1.824462 0.721684 -1.102778
242.52734375 1.769854 0.774876 -0.994978
243.296875 1.524519 0.754838 -0.769681
244.09375 1.0898379999999999 0.731317 -0.358521
244.91796875 1.075392 0.850868 -0.224524
245.734375 1.3296000000000001 0.864971 -0.464629
246.57421875 1.322119 0.87226 -0.449859
247.4609375 1.42 0.96 -0.46
248.27734375 1.487699 1.097472 -0.390227
249.04296875 1.770374 1.41824 -0.352134
249.80078125 1.792355 1.40732 -0.385035
250.625 1.839643 1.44 -0.399643
251.4375 1.993296 1.519211 -0.474085
252.23828125 2.396318 1.876749 -0.519569
253.0703125 2.3152939999999997 1.860294 -0.455
253.91015625 2.361977 1.893693 -0.468284
254.69921875 2.320696 1.834914 -0.485782
255.46875 2.3367430000000002 1.849012 -0.487731
256.2890625 2.0956770000000002 1.581755 -0.513922
256.96484375 1.9900699999999998 1.277502 -0.712568
259.48828125 1.118904 0.063904 -1.055
260.3046875 1.7422620000000002 0.648162 -1.0941
261.08203125 2.043211 0.678211 -1.365
261.859375 1.96934 0.462714 -1.506626
262.6796875 2.257681 0.732723 -1.524958
263.51171875 0.9983120000000001 -0.321688 -1.32
263.87890625 1.378162 0.058162 -1.32
264.3359375 1.188123 -0.00426 -1.192383
265.18359375 0.893145 -0.222778 -1.115923
266.02734375 1.048478 0.196339 -0.852139
266.796875 1.728076 0.853076 -0.875
267.578125 1.12782 0.171359 -0.956461
268.3984375 1.1644999999999999 0.064606 -1.099894
269.2109375 1.224239 0.079382 -1.144857
270.0234375 1.17318 0.153187 -1.019993
270.85546875 1.111624 0.184957 -0.926667
271.69140625 1.196438 -0.018555 -1.214993
272.4921875 1.2135639999999999 -0.076084 -1.289648
273.25 1.310829 0.135 -1.175829
274.078125 1.159156 -0.265701 -1.424857
274.91015625 1.273087 -0.381254 -1.654341
275.43359375 1.30564 0.250721 -1.054919
275.68359375 2.2856009999999998 0.901283 -1.384318
276.53515625 1.38761 0.27261 -1.115
277.37890625 1.016611 0.088949 -0.927662
278.1015625 1.608162 1.163303 -0.444859
278.75 1.466396 1.11 -0.356396
279.51171875 1.572155 1.217382 -0.354773
280.28515625 1.5734949999999999 1.145292 -0.428203
281.07421875 1.65733 1.14233 -0.515
281.8828125 1.599936 1.161808 -0.438128
282.68359375 1.599668 1.134371 -0.465297
283.5078125 1.699001 1.248208 -0.450793
284.30078125 1.566716 1.229577 -0.337139
285.046875 1.555966 1.229914 -0.326052
285.81640625 1.712356 1.257379 -0.454977
286.6015625 1.66679 1.202767 -0.464023
287.3984375 1.5439729999999998 1.248989 -0.294984
288.19921875 1.5092370000000002 1.11 -0.399237
289.0078125 1.6227900000000002 1.16229 -0.4605
289.83203125 1.664444 1.206498 -0.457946
290.58984375 1.81582 1.22082 -0.595
291.33984375 1.757848 1.17231 -0.585538
292.14453125 1.684816 1.244953 -0.439863
292.91796875 1.644779 1.325771 -0.319008
293.72265625 1.6196300000000001 1.314988 -0.304642
294.5546875 1.575121 1.223134 -0.351987
295.359375 1.75942 1.237768 -0.521652
296.1796875 1.416585 0.99757 -0.419015
296.94140625 1.574932 0.805 -0.769932
297.70703125 1.4863439999999999 0.726213 -0.760131
298.53515625 1.4488159999999999 0.948663 -0.500153
299.34375 1.311306 0.76413 -0.547176
300.15625 1.593073 0.818438 -0.774635
301.00390625 1.43004 1.101156 -0.328884
301.84765625 1.6683180000000002 0.991685 -0.676633
302.625 1.445 0.995 -0.45
303.39453125 1.658148 1.084941 -0.573207
304.2109375 1.686834 1.129803 -0.557031
305.01953125 1.7818110000000003 1.271084 -0.510727
305.84765625 1.5673210000000002 1.028375 -0.538946
306.66015625 1.591701 1.177622 -0.414079
307.5 1.49353 1.24 -0.25353
308.32421875 2.02808 1.322673 -0.705407
309.078125 1.872873 1.281984 -0.590889
309.90234375 1.995474 1.365696 -0.629778
310.7109375 2.322852 1.729713 -0.593139
311.52734375 2.387139 1.652808 -0.734331
312.37890625 1.935043 1.611836 -0.323207
313.2109375 2.351385 1.719039 -0.632346
314.015625 2.339127 0.999734 -1.339393
314.80859375 1.714329 1.093709 -0.62062
315.58984375 1.770774 1.423461 -0.347313
316.41796875 1.771957 1.491957 -0.28
317.19921875 1.714832 1.446574 -0.268258
318.0703125 1.591286 1.106913 -0.484373
318.93359375 1.3502 0.894898 -0.455302
319.33984375 1.6490840000000002 0.590914 -1.05817
319.71875 1.9675909999999999 0.889662 -1.077929
320.12890625 0.7381660000000001 0.053166 -0.685
320.56640625 1.834581 1.050602 -0.783979
320.8515625 1.029138 0.114786 -0.914352
321.26953125 1.458615 0.8597 -0.598915
321.66015625 0.564268 0.03281 -0.531458
322.09375 1.864745 0.993015 -0.87173
322.65625 0.5268889999999999 0.071894 -0.454995
322.90234375 1.930946 0.925946 -1.005
323.71875 0.9723660000000001 -0.160558 -1.132924
324.5546875 0.9541329999999999 -0.257319 -1.211452
325.40234375 0.817879 -0.16618 -0.984059
326.21875 0.856294 -0.180781 -1.037075
326.5234375 0.613073 0.138073 -0.475
326.9765625 1.7650739999999998 0.603352 -1.161722
327.27734375 0.762507 0.153034 -0.609473
327.79296875 1.5427970000000002 0.607902 -0.934895
328.40234375 0.620989 0.218203 -0.402786
328.93359375 0.304923 0.42 0.115077
329.14453125 0.753806 0.442869 -0.310937
329.42578125 0.926822 0.263548 -0.663274
329.84765625 0.229877 0.3 0.070123
330.24609375 1.055182 0.18413 -0.871052
331.078125 0.98262 0.064836 -0.917784
331.9140625 0.96712 0.069943 -0.897177
332.671875 1.6369340000000001 0.657009 -0.979925
333.4765625 1.0054880000000002 0.058774 -0.946714
334.328125 1.023248 0.043248 -0.98
335.0859375 0.887332 0.00488 -0.882452
335.93359375 0.788692 0.039697 -0.748995
336.78125 0.860208 0.071906 -0.788302
337.6171875 0.7605609999999999 -4.61E-4 -0.761022
338.390625 0.806805 -0.029766 -0.836571
339.15234375 0.838197 -0.057625 -0.895822
339.97265625 0.865408 -0.050763 -0.916171
340.7734375 0.945449 -0.036865 -0.982314
341.5859375 0.900886 -0.064076 -0.964962
342.4140625 0.808712 -0.016154 -0.824866
343.265625 0.8862749999999999 0.004338 -0.881937
344.08203125 0.922104 0.133729 -0.788375
344.85546875 0.893311 0.144942 -0.748369
345.66796875 0.84893 0.01393 -0.835
346.4609375 1.019838 0.024838 -0.995
347.26953125 0.8881600000000001 -0.035952 -0.924112
348.10546875 0.873533 -0.120078 -0.993611
348.94140625 0.982543 -0.182457 -1.165
349.78125 0.940501 -0.100365 -1.040866
350.5625 0.901657 -0.123333 -1.02499
351.34375 0.890942 -0.128094 -1.019036
352.15625 0.921755 -0.070406 -0.992161
352.9453125 0.902159 0.027668 -0.874491
353.78125 0.664245 -0.084219 -0.748464
354.63671875 0.785706 -0.001198 -0.786904
355.46875 0.9442029999999999 0.084258 -0.859945
356.2578125 0.940889 0.114976 -0.825913
357.0234375 1.117301 0.752326 -0.364975
357.8828125 1.511113 0.99641 -0.514703
358.62890625 1.879794 1.419794 -0.46
359.38671875 1.65566 0.956776 -0.698884
360.18359375 1.584514 1.024514 -0.56
360.97265625 1.6074169999999999 1.093742 -0.513675
361.765625 1.5775 1.1075 -0.47
362.50390625 1.5512890000000001 1.110821 -0.440468
363.25 1.57853 1.21 -0.36853
364.046875 1.553171 1.253171 -0.3
364.8046875 1.5862180000000001 1.261063 -0.325155
365.5859375 1.576118 1.174615 -0.401503
366.39453125 1.594823 1.139823 -0.455
367.2265625 1.54618 1.052496 -0.493684
368.01953125 1.625469 1.115553 -0.509916
368.78125 1.556298 1.148912 -0.407386
369.578125 1.617401 1.263716 -0.353685
370.37109375 1.627748 1.235688 -0.39206
371.171875 1.3189499999999998 1.148915 -0.170035
371.9921875 1.811461 1.217207 -0.594254
372.828125 1.709487 1.114487 -0.595
373.68359375 1.5377939999999999 1.202794 -0.335
374.46875 1.9059570000000001 1.488455 -0.417502
375.25 1.778755 1.33 -0.448755
376.0703125 2.196711 1.918577 -0.278134
376.8828125 2.141701 1.566643 -0.575058
377.7109375 2.029917 1.559348 -0.470569
378.56640625 2.04823 1.759484 -0.288746
379.40625 1.923334 1.660658 -0.262676
380.21875 2.060727 1.608462 -0.452265
381.0 1.897424 1.33 -0.567424
381.7578125 2.3539250000000003 1.259335 -1.09459
382.55078125 1.03031 0.647153 -0.383157
383.3515625 1.052277 0.786171 -0.266106
384.1875 0.6942200000000001 0.295532 -0.398688
385.02734375 1.356995 0.976995 -0.38
385.85546875 1.285695 1.001865 -0.28383
386.6328125 1.3785850000000002 0.973585 -0.405
387.43359375 1.214792 0.836749 -0.378043
388.23828125 1.248538 0.759909 -0.488629
389.03515625 1.398657 0.769509 -0.629148
389.87109375 1.216005 0.702364 -0.513641
390.7109375 1.179576 0.688411 -0.491165
391.5546875 1.206122 0.806163 -0.399959
392.34375 1.295042 0.772833 -0.522209
393.18359375 1.3419439999999998 0.839888 -0.502056
393.98046875 1.599971 1.094988 -0.504983
394.7578125 1.6107269999999998 1.221477 -0.38925
395.55078125 1.764128 1.389492 -0.374636
396.37109375 2.152181 1.796763 -0.355418
397.2265625 2.17202 1.79202 -0.38
398.03515625 1.746284 1.470823 -0.275461
398.78125 1.496992 1.236992 -0.26
399.6015625 1.578971 1.098847 -0.480124
400.39453125 1.618914 1.17491 -0.444004
401.20703125 1.681476 1.396476 -0.285
402.04296875 1.670332 1.451374 -0.218958
402.90234375 1.965616 1.740616 -0.225
403.74609375 1.574937 1.234175 -0.340762
404.54296875 1.559604 1.0726 -0.487004
405.3046875 1.02233 0.660483 -0.361847
407.73046875 1.566972 0.799459 -0.767513
408.5859375 0.761665 -0.194302 -0.955967
409.43359375 0.8735740000000001 -0.070503 -0.944077
410.2109375 1.469802 0.559802 -0.91
411.0078125 0.740659 -0.06116 -0.801819
411.80859375 0.8045289999999999 -0.020471 -0.825
412.6015625 0.814962 -0.048678 -0.86364
413.4375 0.628835 -0.031563 -0.660398
414.26171875 0.684141 -0.066947 -0.751088
415.11328125 0.779139 -0.128293 -0.907432
415.90625 1.017646 -0.023619 -1.041265
416.6875 0.874286 -0.105714 -0.98
417.50390625 0.903253 -0.136723 -1.039976
418.2890625 1.5916139999999999 0.548615 -1.042999
419.08984375 0.83849 -0.184804 -1.023294
419.91796875 0.798626 -0.224463 -1.023089
420.78125 0.7648769999999999 -0.253594 -1.018471
421.49609375 1.637202 0.957303 -0.679899
422.20703125 1.5683449999999999 0.936852 -0.631493
423.015625 1.3774220000000001 1.058936 -0.318486
423.8203125 1.446927 1.126959 -0.319968
424.6171875 2.039447 1.661292 -0.378155
425.44140625 1.7249560000000002 1.255227 -0.469729
426.28125 1.577947 1.183356 -0.394591
427.1328125 1.7237710000000002 1.321665 -0.402106
427.9453125 1.934374 1.560937 -0.373437
428.75 1.78098 1.385 -0.39598
429.56640625 1.738321 1.3346 -0.403721
430.3203125 1.313183 0.933183 -0.38
432.8515625 0.555752 -0.011226 -0.566978
433.65625 0.783435 0.216461 -0.566974
434.43359375 0.763887 0.134766 -0.629121
435.2421875 0.8921410000000001 0.038359 -0.853782
436.0390625 0.962219 0.01981 -0.942409
436.8046875 0.99834 0.21792 -0.78042
437.640625 0.7944479999999999 0.013516 -0.780932
438.48828125 0.765876 0.065876 -0.7
439.32421875 0.923172 0.153172 -0.77
440.12109375 0.935469 0.213203 -0.722266
440.8359375 1.669084 1.169954 -0.49913
441.62890625 1.608252 1.113281 -0.494971
442.4375 2.101512 1.816512 -0.285
443.296875 1.645707 1.333871 -0.311836
444.1015625 1.344843 1.064925 -0.279918
444.96484375 1.064097 0.974184 -0.089913
445.76953125 1.343277 0.748277 -0.595
446.5625 0.860603 -0.076406 -0.937009
447.3671875 1.1637119999999999 0.278826 -0.884886
448.1484375 1.544142 0.779142 -0.765
448.94921875 0.678103 0.028884 -0.649219
449.77734375 0.851821 0.143688 -0.708133
450.6484375 0.80426 0.07001 -0.73425
451.47265625 0.8075220000000001 0.094276 -0.713246
452.2578125 0.8489239999999999 -0.001465 -0.850389
453.06640625 0.93789 -0.090251 -1.028141
453.87109375 0.919125 -0.136568 -1.055693
454.65234375 0.8148519999999999 -0.150148 -0.965
455.36328125 1.71376 1.00992 -0.70384
456.17578125 1.592448 1.022939 -0.569509
457.0625 1.472403 1.289132 -0.183271
457.85546875 1.877854 1.689782 -0.188072
458.64453125 1.886896 1.639762 -0.247134
459.484375 1.65154 1.358468 -0.293072
460.28515625 1.439538 1.040397 -0.399141
461.03515625 1.087286 0.778625 -0.308661
461.86328125 0.974747 0.866704 -0.108043
462.72265625 1.464365 0.819365 -0.645
463.55859375 0.953237 0.060439 -0.892798
464.34765625 0.762373 -0.001631 -0.764004
465.1640625 0.8427560000000001 0.019781 -0.822975
465.94140625 1.546864 0.547645 -0.999219
466.73046875 0.7773680000000001 -0.18541 -0.962778
467.55078125 0.759333 -0.096613 -0.855946
468.4140625 0.628211 -0.200032 -0.828243
469.23828125 0.8687739999999999 -0.146226 -1.015
470.0390625 0.859811 -0.110189 -0.97
470.83984375 0.7667139999999999 -0.06 -0.826714
471.63671875 0.8208610000000001 -0.023836 -0.844697
472.41796875 0.8942060000000001 0.099206 -0.795
473.234375 0.844295 0.115807 -0.728488
473.96875 1.6651500000000001 1.099656 -0.565494
474.75390625 1.616328 0.977718 -0.63861
475.60546875 1.6911479999999999 1.339481 -0.351667
476.38671875 2.094004 1.728843 -0.365161
477.203125 1.6868750000000001 1.280107 -0.406768
477.984375 1.509554 1.102054 -0.4075
478.7578125 1.904618 1.464821 -0.439797
479.58203125 1.979363 1.530043 -0.44932
480.44140625 1.8844349999999999 1.379832 -0.504603
481.29296875 1.742727 1.217727 -0.525
482.11328125 1.442638 0.951725 -0.490913
482.9296875 1.535781 1.090972 -0.444809
483.66015625 1.131164 0.899048 -0.232116
484.43359375 1.3430549999999999 1.02981 -0.313245
485.265625 0.817582 0.245 -0.572582
486.125 0.6414930000000001 0.055 -0.586493
486.9609375 0.8149080000000001 0.004908 -0.81
487.7578125 0.949157 -0.110843 -1.06
488.56640625 0.859167 -0.204183 -1.06335
489.3671875 0.76217 -0.177758 -0.939928
490.140625 0.771216 -0.125923 -0.897139
490.94921875 0.904453 -0.0050 -0.909453
491.78515625 0.905725 0.106357 -0.799368
492.640625 0.8823249999999999 0.085 -0.797325
493.44921875 0.983466 0.028493 -0.954973
494.24609375 0.899785 -0.17 -1.069785
494.95703125 1.75496 1.091961 -0.662999
495.73046875 1.625009 1.049995 -0.575014
496.5 1.4237499999999998 1.18 -0.24375
497.33984375 1.849687 1.610891 -0.238796
498.19921875 1.773177 1.489388 -0.283789
499.078125 1.60269 1.32769 -0.275
499.875 1.5699999999999998 1.305 -0.265
500.71875 1.254636 0.96207 -0.292566
501.44921875 1.284885 0.998376 -0.286509
502.21875 1.620442 0.930693 -0.689749
503.0390625 0.768679 0.015527 -0.753152
503.875 0.755933 0.095 -0.660933
504.71875 0.8270219999999999 0.001987 -0.825035
505.5234375 0.79163 0.218212 -0.573418
506.34375 0.74916 0.215265 -0.533895
507.12890625 0.827715 0.252387 -0.575328
507.91015625 0.9321440000000001 0.074509 -0.857635
508.71875 0.758386 -0.084141 -0.842527
509.54296875 0.857223 -0.15827 -1.015493
510.4140625 0.8525809999999999 -0.060026 -0.912607
511.12890625 1.800867 1.246224 -0.554643
511.890625 1.684217 1.169588 -0.514629
512.7421875 1.976172 1.664239 -0.311933
513.52734375 1.957353 1.738081 -0.219272
514.328125 1.548085 0.998085 -0.55
515.14453125 1.496227 1.064897 -0.43133
515.94921875 1.189443 0.891869 -0.297574
516.796875 1.197044 0.918316 -0.278728
517.61328125 1.140336 0.418332 -0.722004
518.4453125 0.640398 -0.027822 -0.66822
519.23046875 0.829943 0.064943 -0.765
520.0078125 0.684408 -0.067839 -0.752247
520.8125 0.620298 -0.074688 -0.694986
521.640625 0.705 -0.05 -0.755
522.4921875 0.831778 -0.040247 -0.872025
523.3046875 0.891657 0.105812 -0.785845
524.11328125 0.744428 0.059002 -0.685426
524.9140625 0.8512379999999999 0.088367 -0.762871
525.6796875 1.611563 0.741569 -0.869994
526.484375 0.8241390000000001 0.076535 -0.747604
527.28515625 1.4961630000000001 1.364964 -0.131199
527.9921875 1.572481 1.186617 -0.385864
528.86328125 1.422327 1.222411 -0.199916
529.703125 1.6088019999999998 1.214073 -0.394729
530.5390625 1.568156 1.154794 -0.413362
531.34375 1.426035 0.951035 -0.475
532.0625 1.042748 0.547748 -0.495
532.86328125 1.164904 0.591264 -0.57364
533.71875 0.649659 -0.171181 -0.82084
534.56640625 0.733159 -0.085197 -0.818356
535.37109375 0.968152 0.120675 -0.847477
536.19140625 0.656846 -0.184203 -0.841049
536.984375 1.684741 0.72136 -0.963381
537.765625 0.826992 -0.114492 -0.941484
538.5625 0.744038 -0.031375 -0.775413
539.390625 0.753466 0.030257 -0.723209
540.25390625 0.872915 0.073152 -0.799763
541.078125 0.912922 0.15886 -0.754062
541.80078125 1.601303 1.131303 -0.47
542.625 1.5250000000000001 1.06 -0.465
543.44140625 1.953649 1.633725 -0.319924
544.25 1.474772 1.21 -0.264772
545.00390625 1.076703 0.882242 -0.194461
545.85546875 1.5490240000000002 0.894148 -0.654876
546.72265625 0.6931900000000001 -0.09 -0.78319
547.5078125 0.982283 0.077283 -0.905
548.34375 0.73206 -0.03794 -0.77
549.13671875 0.792025 0.023025 -0.769
549.90625 0.7896139999999999 -0.022 -0.811614
550.6953125 1.637378 0.723098 -0.91428
551.53515625 0.875168 -0.087523 -0.962691
552.38671875 0.8227519999999999 -0.130248 -0.953
553.20703125 0.981298 0.068544 -0.912754
553.9296875 1.6734769999999999 1.055586 -0.617891
554.74609375 1.429546 1.125 -0.304546
555.546875 1.840605 1.495605 -0.345
556.37109375 1.5216669999999999 1.18 -0.341667
557.13671875 1.162 0.958777 -0.203223
558.00390625 1.4989 0.952702 -0.546198
558.84765625 0.771126 0.094258 -0.676868
559.65234375 0.79603 0.078208 -0.717822
560.484375 0.859558 0.055 -0.804558
561.25 1.610675 0.95 -0.660675
562.01171875 1.5990950000000002 0.959095 -0.64
562.82421875 0.861658 0.124002 -0.737656
563.68359375 0.69338 0.033829 -0.659551
564.51953125 0.610256 0.029273 -0.580983
565.328125 0.79425 0.114671 -0.679579
566.1640625 0.85187 0.103283 -0.748587
566.88671875 1.6789269999999998 1.259583 -0.419344
567.609375 1.611849 1.243708 -0.368141
568.43359375 1.889476 1.779297 -0.110179
569.30078125 1.518253 1.208444 -0.309809
570.16796875 1.23264 0.88666 -0.34598
570.921875 1.037868 0.839587 -0.198281
571.7421875 1.491778 0.911892 -0.579886
572.57421875 0.757533 0.11788 -0.639653
573.33203125 1.3508550000000001 0.716873 -0.633982
574.1328125 0.8200299999999999 -0.009317 -0.829347
574.94140625 0.756372 -0.009176 -0.765548
575.80078125 0.681287 -0.083118 -0.764405
576.63671875 0.699497 -0.11232 -0.811817
577.44140625 0.856538 -0.043882 -0.90042
578.2734375 0.836836 -0.02 -0.856836
579.0546875 1.365784 0.495975 -0.869809
579.8046875 1.54518 0.53518 -1.01
580.546875 1.740773 0.982989 -0.757784
581.33984375 1.5926170000000002 0.902888 -0.689729
582.21875 1.699214 1.292281 -0.406933
583.05859375 1.6733379999999998 1.218951 -0.454387
583.9375 1.332499 0.873646 -0.458853
585.44140625 1.4141110000000001 0.704658 -0.709453
586.25390625 0.74286 -0.07714 -0.82
587.05859375 0.879745 0.019745 -0.86
587.91015625 0.732988 -0.069716 -0.802704
588.72265625 1.244593 0.465096 -0.779497
589.5546875 0.741012 -0.076816 -0.817828
590.36328125 1.506986 0.622396 -0.88459
591.13671875 1.424426 0.563918 -0.860508
591.921875 0.8229839999999999 0.019789 -0.803195
592.72265625 0.726035 -0.082971 -0.809006
593.51171875 1.6239210000000002 1.004415 -0.619506
594.30859375 1.602569 1.093872 -0.508697
595.1875 1.5259580000000001 1.266034 -0.259924
596.00390625 1.111875 0.773045 -0.33883
597.5625 1.5962079999999998 0.716364 -0.879844
598.359375 0.869107 -0.026726 -0.895833
599.18359375 0.6884469999999999 -0.10111 -0.789557
600.03515625 0.729703 -0.059893 -0.789596
600.859375 0.791929 -0.051196 -0.843125
601.6953125 0.837116 -0.122884 -0.96
602.5 0.788616 -0.115 -0.903616
603.25390625 0.833527 -0.044067 -0.877594
604.0078125 1.597996 1.013534 -0.584462
604.7578125 1.5902180000000001 1.092257 -0.497961
605.68359375 1.578152 1.274136 -0.304016
606.47265625 1.07632 0.904464 -0.171856
607.3046875 0.744293 0.043779 -0.700514
608.1328125 1.060897 0.292218 -0.768679
608.90625 1.619541 0.869541 -0.75
609.69140625 0.799981 0.0050 -0.794981
610.484375 0.825246 -0.017254 -0.8425
611.328125 0.729268 -0.027713 -0.756981
612.16796875 0.720512 0.015131 -0.705381
612.98046875 0.732771 0.045271 -0.6875
613.828125 0.801635 -0.044927 -0.846562
614.609375 1.587267 1.252267 -0.335
615.37890625 1.666378 1.355292 -0.311086
616.22265625 1.222619 0.902619 -0.32
616.98046875 1.390117 0.86829 -0.521827
617.84375 0.826713 0.022012 -0.804701
618.671875 0.751462 -0.010758 -0.76222
619.5078125 0.647903 -0.062097 -0.71
620.328125 0.8688279999999999 -0.071172 -0.94
621.08984375 0.903583 -0.054246 -0.957829
621.8828125 0.743634 -0.09 -0.833634
622.6796875 0.7379129999999999 -0.045 -0.782913
623.53515625 0.866093 0.013426 -0.852667
624.2890625 1.661101 1.121101 -0.54
625.109375 1.3986420000000002 1.124227 -0.274415
626.00390625 1.681752 1.35679 -0.324962
626.7734375 1.217678 0.824685 -0.392993
627.52734375 1.411604 0.851837 -0.559767
628.3359375 0.776646 0.045527 -0.731119
629.171875 0.813006 0.058006 -0.755
630.0078125 0.634619 -0.019898 -0.654517
630.82421875 0.695426 0.101324 -0.594102
631.68359375 0.6931719999999999 0.017658 -0.675514
632.47265625 0.918143 0.074643 -0.8435
633.2421875 0.889607 0.047972 -0.841635
634.01953125 1.5809609999999998 0.824735 -0.756226
634.8359375 0.864857 -0.020055 -0.884912
635.62890625 1.7226219999999999 1.094136 -0.628486
636.4375 1.587755 1.022241 -0.565514
637.29296875 2.0140350000000002 1.784035 -0.23
638.171875 1.578678 1.303039 -0.275639
639.67578125 1.280791 0.755791 -0.525
640.50390625 0.6764789999999999 0.085 -0.591479
641.33984375 0.822195 0.063912 -0.758283
642.16796875 0.703457 -0.031543 -0.735
642.9921875 0.651735 -0.027105 -0.67884
643.83984375 0.79505 -0.048318 -0.843368
644.61328125 1.652928 0.768926 -0.884002
645.3828125 0.780407 -0.035494 -0.815901
646.1640625 0.748405 -0.005189 -0.753594
646.99609375 0.668069 -0.060303 -0.728372
647.76953125 1.762041 1.209898 -0.552143
648.56640625 1.593694 1.089675 -0.504019
649.453125 2.081695 1.853324 -0.228371
650.31640625 1.492108 1.189883 -0.302225
651.8203125 1.1677339999999998 0.413164 -0.75457
652.62890625 0.728241 0.05 -0.678241
653.46484375 0.718361 0.01543 -0.702931
654.28515625 0.906028 0.086028 -0.82
655.13671875 0.7458089999999999 -0.006322 -0.752131
655.95703125 0.749226 0.038442 -0.710784
656.734375 0.78555 0.040605 -0.744945
657.51953125 0.855 0.0050 -0.85
658.3046875 0.901026 0.005167 -0.895859
659.109375 1.4857529999999999 1.112274 -0.373479
659.9609375 1.873372 1.608802 -0.26457
660.82421875 1.537698 1.247698 -0.29
661.64453125 1.019296 0.849296 -0.17
662.44140625 1.6783489999999999 0.844599 -0.83375
663.20703125 0.818434 0.029607 -0.788827
663.9921875 0.705012 -0.062427 -0.767439
664.82421875 0.7727310000000001 -0.007269 -0.78
665.65234375 0.862074 0.022386 -0.839688
666.47265625 0.805473 0.005473 -0.8
667.3359375 0.762703 -0.02322 -0.785923
668.140625 0.810277 -0.054478 -0.864755
668.8828125 1.44933 0.95433 -0.495
669.67578125 1.701469 1.261469 -0.44
670.53125 1.2685440000000001 0.818594 -0.44995
671.30078125 1.4082659999999998 0.882635 -0.525631
672.13671875 0.8171889999999999 -0.02049 -0.837679
673.00390625 0.744778 -0.095 -0.839778
673.8203125 0.73236 0.003398 -0.728962
674.59765625 0.777786 -0.035145 -0.812931
675.37890625 0.822383 0.00793 -0.814453
676.17578125 0.905459 -0.017492 -0.922951
677.00390625 0.79786 -0.04214 -0.84
677.8359375 0.760544 -0.014456 -0.775
678.59765625 1.5607160000000002 1.025878 -0.534838
679.484375 1.600693 1.33236 -0.268333
680.28125 1.3110789999999999 0.921079 -0.39
681.04296875 1.397612 0.818682 -0.57893
681.83984375 0.7897759999999999 0.065661 -0.724115
682.66796875 0.7968900000000001 0.050537 -0.746353
683.50390625 0.807992 -0.060156 -0.868148
684.32421875 0.687105 -0.065242 -0.752347
685.1875 0.727537 -0.038 -0.765537
686.00390625 0.857448 -0.049421 -0.906869
686.7578125 0.8939320000000001 -0.169722 -1.063654
687.53515625 1.390797 0.680797 -0.71
688.26953125 1.634936 1.134936 -0.5
689.1171875 2.059072 1.761292 -0.29778
689.9453125 1.012975 0.797975 -0.215
690.78515625 1.239067 0.844067 -0.395
691.63671875 0.685859 0.003499 -0.68236
692.421875 0.8535560000000001 0.036035 -0.817521
693.20703125 0.6282629999999999 -0.02341 -0.651673
693.99609375 0.661894 -0.002891 -0.664785
694.828125 0.7141879999999999 0.014766 -0.699422
695.640625 0.863933 0.010967 -0.852966
696.4765625 0.658425 -0.038986 -0.697411
697.3359375 0.711747 0.019949 -0.691798
698.125 1.7850000000000001 1.445 -0.34
698.80859375 1.6367610000000001 1.173693 -0.463068
699.65234375 1.648673 1.38182 -0.266853
700.42578125 1.122216 1.005579 -0.116637
701.25 1.3409010000000001 0.855 -0.485901
702.08984375 0.661486 -0.045866 -0.707352
702.94140625 0.778265 -0.007136 -0.785401
703.77734375 0.8015720000000001 -0.016312 -0.817884
704.5546875 0.767742 0.031433 -0.736309
705.32421875 1.476532 0.746938 -0.729594
706.1328125 0.759708 -0.020208 -0.779916
706.94921875 0.861124 -0.059298 -0.920422
707.76953125 0.800109 -0.02458 -0.824689
708.58203125 1.445257 1.127214 -0.318043
709.45703125 1.981465 1.706465 -0.275
710.30078125 1.232097 0.926887 -0.30521
711.0234375 1.5905070000000001 0.909427 -0.68108
711.8203125 0.779025 0.115695 -0.66333
712.63671875 0.677959 0.010911 -0.667048
713.453125 0.755384 0.019907 -0.735477
714.27734375 0.75506 -0.030174 -0.785234
715.1484375 0.7625780000000001 -0.052028 -0.814606
715.94921875 1.46881 0.53381 -0.935
716.71875 1.1625429999999999 0.167543 -0.995
717.4921875 1.8211689999999998 1.401711 -0.419458
718.3046875 1.794504 1.409504 -0.385
719.12109375 1.078468 0.815874 -0.262594
719.95703125 0.795105 -0.045363 -0.840468
720.8203125 0.827108 -0.02293 -0.850038
721.640625 0.848477 0.038494 -0.809983
722.42578125 0.843693 -8.81E-4 -0.844574
723.19921875 1.634703 0.783932 -0.850771
723.9921875 0.786871 -0.095247 -0.882118
724.80859375 0.974596 -0.012054 -0.98665
725.625 2.025338 1.645 -0.380338
726.34765625 1.4956230000000001 0.948064 -0.547559
727.25390625 0.7949919999999999 0.088023 -0.706969
728.0390625 1.5957210000000002 0.815401 -0.78032
728.828125 0.7994889999999999 -0.035217 -0.834706
729.62109375 0.857582 -0.038664 -0.896246
730.43359375 0.784201 -0.005799 -0.79
731.23828125 0.781787 -0.062659 -0.844446
732.0625 0.878988 -0.060962 -0.93995
732.91796875 1.784964 1.4637 -0.321264
733.7265625 1.419915 1.125837 -0.294078
734.5390625 1.504428 1.134694 -0.369734
735.27734375 1.238423 0.871697 -0.366726
736.10546875 0.7715150000000001 -0.023941 -0.795456
736.9140625 0.719857 -1.43E-4 -0.72
737.7265625 0.679692 -0.036092 -0.715784
738.60546875 0.766133 -0.134425 -0.900558
739.4375 0.7686139999999999 -0.082837 -0.851451
740.21484375 1.047151 0.192824 -0.854327
740.9921875 1.6664720000000002 0.681687 -0.984785
741.79296875 0.9125639999999999 -0.067436 -0.98
742.5703125 1.445255 1.018889 -0.426366
743.3828125 1.419624 0.996862 -0.422762
744.28515625 1.6302109999999999 1.230357 -0.399854
745.09375 1.070594 0.724073 -0.346521
745.89453125 1.1284640000000001 0.343734 -0.78473
746.6953125 0.857243 -0.040413 -0.897656
747.48046875 0.7449870000000001 -0.130013 -0.875
748.28125 1.590009 0.835009 -0.755
749.09765625 0.8283189999999999 -0.065509 -0.893828
749.9296875 0.697526 -0.077856 -0.775382
750.796875 0.769559 -0.010441 -0.78
751.60546875 1.139143 0.397983 -0.74116
752.38671875 0.874531 -0.025 -0.899531
753.078125 1.775265 1.193781 -0.581484
753.90625 1.8789559999999998 1.524684 -0.354272
754.73046875 1.6599 1.3049 -0.355
755.578125 1.470774 1.088059 -0.382715
756.3828125 1.320742 0.864641 -0.456101
757.234375 0.685909 -0.069091 -0.755
758.01953125 0.900868 0.031239 -0.869629
758.80078125 1.603945 0.649795 -0.95415
759.5859375 0.832318 0.058832 -0.773486
760.40625 0.693449 -0.135859 -0.829308
761.20703125 1.2064979999999998 0.312642 -0.893856
762.078125 0.6956690000000001 -0.140225 -0.835894
762.91796875 0.682422 -0.067578 -0.75
763.72265625 0.7048760000000001 -0.075 -0.779876
764.4453125 1.693641 1.095642 -0.597999
765.2578125 1.759944 1.385106 -0.374838
766.125 1.523324 1.075 -0.448324
766.8671875 1.037669 0.64781 -0.389859
767.71484375 0.5958140000000001 -0.142936 -0.73875
768.5703125 0.842352 -0.050347 -0.892699
769.375 1.4396529999999998 0.705 -0.734653
770.171875 0.699338 -0.053422 -0.75276
770.95703125 0.736678 -0.08329 -0.819968
771.75390625 0.8448800000000001 -0.1 -0.94488
772.5546875 0.766401 -0.053488 -0.819889
773.34765625 1.833785 1.440243 -0.393542
774.21875 1.677222 1.314325 -0.362897
775.125 1.273125 0.895 -0.378125
775.859375 1.072049 0.277049 -0.795
776.6484375 1.5053139999999998 0.750392 -0.754922
777.4375 1.2672539999999999 0.578894 -0.68836
778.24609375 0.8451310000000001 0.060131 -0.785
779.04296875 0.860582 -0.014418 -0.875
779.89453125 0.690003 -0.065512 -0.755515
780.7421875 0.743843 -0.058438 -0.802281
781.546875 1.926435 1.590822 -0.335613
782.34765625 1.754487 1.469487 -0.285
783.1328125 1.089845 0.93694 -0.152905
783.94921875 1.078777 0.361043 -0.717734
784.7421875 1.5501779999999998 0.785292 -0.764886
785.5625 0.737478 -0.052917 -0.790395
786.44140625 0.878394 -0.030303 -0.908697
787.265625 1.1924460000000001 0.357285 -0.835161
788.0546875 0.77082 -0.028567 -0.799387
788.83984375 0.847133 0.01253 -0.834603
789.6328125 2.03781 1.72031 -0.3175
790.421875 1.653644 1.328658 -0.324986
791.22265625 1.114918 0.855797 -0.259121
792.125 0.689528 -0.15 -0.839528
792.95703125 0.848534 -0.033578 -0.882112
793.74609375 1.670332 0.885797 -0.784535
794.5390625 1.610395 0.856562 -0.753833
795.328125 0.897467 0.127935 -0.769532
796.12890625 0.971357 0.059482 -0.911875
796.92578125 0.841174 -0.015942 -0.857116
797.75390625 1.9140799999999998 1.600059 -0.314021
798.64453125 1.528475 1.244933 -0.283542
799.421875 1.390136 0.895205 -0.494931
800.2421875 0.8373900000000001 0.12897 -0.70842
801.01953125 0.74432 0.084341 -0.659979
801.8125 1.5561099999999999 0.843185 -0.712925
802.61328125 0.917403 0.018153 -0.89925
803.4375 0.702723 0.018 -0.684723
804.30859375 0.754686 0.069432 -0.685254
805.125 1.217969 0.5 -0.717969
805.88671875 1.651214 1.11187 -0.539344
806.6953125 1.392338 1.162338 -0.23
807.546875 1.50397 1.218928 -0.285042
808.30078125 1.126084 0.796862 -0.329222
809.11328125 0.7258209999999999 -0.00321 -0.729031
809.98046875 0.6223230000000001 0.020974 -0.601349
810.828125 0.671365 -0.070797 -0.742162
811.609375 1.253584 0.377592 -0.875992
812.3984375 0.9943970000000001 0.144823 -0.849574
813.1953125 0.751987 -0.035 -0.786987
813.98828125 0.6925129999999999 -0.070791 -0.763304
814.69921875 1.635026 1.043039 -0.591987
815.5703125 1.876451 1.463127 -0.413324
816.4921875 1.21361 0.779079 -0.434531
817.23828125 1.2856049999999999 0.535605 -0.75
818.0625 0.864206 0.0 -0.864206
818.84375 0.7535240000000001 -0.022921 -0.776445
819.64453125 1.177899 0.403228 -0.774671
820.421875 1.42597 0.647878 -0.778092
821.24609375 0.791779 -0.06439 -0.856169
822.109375 0.693127 -0.015713 -0.70884
822.921875 1.399691 0.629066 -0.770625
823.671875 1.644566 1.059566 -0.585
824.5078125 1.801093 1.467263 -0.33383
825.296875 1.104644 0.859644 -0.245
826.1015625 0.6894819999999999 -0.045394 -0.734876
826.890625 0.692803 -0.012197 -0.705
827.75390625 0.760042 -0.039241 -0.799283
828.609375 0.7237220000000001 -0.028882 -0.752604
829.41015625 0.691586 -0.009701 -0.701287
830.203125 0.731742 -0.020211 -0.751953
831.0 0.8045319999999999 -0.05 -0.854532
831.7578125 1.625693 1.124809 -0.500884
832.5859375 1.6204180000000001 1.22459 -0.395828
833.3984375 1.111967 0.755008 -0.356959
834.27734375 0.64537 -0.128928 -0.774298
835.08984375 0.7663329999999999 -0.126669 -0.893002
835.90625 0.761281 -0.103719 -0.865
836.68359375 1.362633 0.508363 -0.85427
837.48046875 1.266434 0.381655 -0.884779
838.2578125 1.411441 0.470785 -0.940656
839.06640625 1.8072119999999998 1.383282 -0.42393
839.953125 1.5553830000000002 1.179118 -0.376265
840.75 1.260257 0.755 -0.505257
841.58203125 0.869603 -3.97E-4 -0.87
842.375 0.822219 -0.065 -0.887219
843.18359375 0.7598670000000001 -0.050133 -0.81
843.96875 0.780898 -0.034102 -0.815
844.75390625 0.80533 -0.004726 -0.810056
845.62109375 0.780215 -0.02 -0.800215
846.4453125 1.634851 1.310281 -0.32457
847.25 1.05604 0.785 -0.27104
848.0703125 0.7802180000000001 0.026973 -0.753245
848.875 0.707507 -0.045 -0.752507
849.66796875 0.85 -0.03 -0.88
850.44921875 0.9082979999999999 -0.035452 -0.94375
851.296875 0.7012400000000001 -0.092355 -0.793595
852.14453125 0.733351 -0.051089 -0.78444
852.9453125 1.8289719999999998 1.488036 -0.340936
853.78125 1.57302 1.2835 -0.28952
854.55078125 1.5224829999999998 0.812529 -0.709954
855.3515625 1.476755 0.688627 -0.788128
856.125 1.549684 0.74 -0.809684
856.94921875 0.813624 -0.124928 -0.938552
857.8046875 0.7795449999999999 -0.14 -0.919545
858.62109375 0.742699 -0.172665 -0.915364
859.4609375 0.80768 -0.202791 -1.010471
860.22265625 1.390134 0.922634 -0.4675
861.0546875 1.652242 1.200377 -0.451865
861.8359375 1.173392 0.847142 -0.32625
862.6328125 0.864151 -0.09 -0.954151
863.4921875 0.693413 -0.111272 -0.804685
864.33203125 0.772336 -0.137664 -0.91
865.140625 0.82665 -0.152178 -0.978828
865.9453125 0.882017 -0.086312 -0.968329
866.75390625 0.741666 -0.127068 -0.868734
867.49609375 1.657433 1.020597 -0.636836
868.296875 1.7642449999999998 1.364369 -0.399876
869.13671875 1.118898 0.728591 -0.390307
870.01171875 0.658082 -0.162992 -0.821074
870.82421875 0.853167 -0.090709 -0.943876
871.63671875 1.478411 0.643418 -0.834993
872.4375 1.206893 0.309643 -0.89725
873.234375 1.319651 0.339768 -0.979883
874.01953125 0.794987 -0.065013 -0.86
874.83203125 0.671193 -0.124373 -0.795566
875.6484375 1.4755029999999998 1.030509 -0.444994
876.51953125 1.7580390000000001 1.349914 -0.408125
877.3125 1.239167 0.799167 -0.44
878.13671875 0.705306 0.009714 -0.695592
878.9375 0.844473 7.23E-4 -0.84375
879.70703125 1.3463150000000002 0.529034 -0.817281
880.49609375 0.6771590000000001 0.026422 -0.650737
881.359375 0.757046 0.003274 -0.753772
882.1953125 0.8415429999999999 -0.033027 -0.87457
882.9765625 1.527848 1.149348 -0.3785
883.80859375 1.6576570000000002 1.289778 -0.367879
884.6796875 1.307231 0.9 -0.407231
885.41015625 1.184687 0.324687 -0.86
886.1953125 0.839952 -0.017548 -0.8575
887.02734375 0.6241019999999999 -0.052675 -0.676777
887.875 0.623647 -0.04 -0.663647
888.6953125 0.733453 -0.002574 -0.736027
889.5 1.474213 0.675 -0.799213
890.31640625 0.889848 0.074877 -0.814971
891.12890625 1.6566759999999998 1.371676 -0.285
891.875 1.296301 1.005 -0.291301
892.71875 0.653301 -0.0050 -0.658301
893.55078125 0.8182849999999999 0.035353 -0.782932
894.3828125 0.69114 -0.065461 -0.756601
895.203125 0.735785 0.053938 -0.681847
896.015625 0.777822 0.022822 -0.755
896.8046875 1.568662 0.778662 -0.79
897.59375 1.695396 1.347268 -0.348128
898.40625 1.45099 1.126814 -0.324176
899.20703125 0.807324 0.117661 -0.689663
900.03125 1.429719 0.714719 -0.715
900.86328125 0.893229 0.013229 -0.88
901.69140625 0.768282 -0.072489 -0.840771
902.50390625 0.78094 -0.04396 -0.8249
903.27734375 0.83006 -0.046221 -0.876281
904.078125 1.4429 1.0379 -0.405
904.91796875 1.47902 1.112272 -0.366748
905.71875 1.6203 0.8353 -0.785
906.55078125 0.793898 0.027508 -0.76639
907.37109375 0.805693 -0.045 -0.850693
908.19140625 0.7973779999999999 -0.078555 -0.875933
908.9765625 1.150347 0.21868 -0.931667
909.7421875 1.333224 0.403336 -0.929888
910.58203125 1.538812 1.148812 -0.39
911.4296875 1.483485 1.130344 -0.353141
912.2109375 1.567908 0.847143 -0.720765
913.05859375 0.9046649999999999 0.059665 -0.845
913.875 0.862728 0.055 -0.807728
914.671875 1.454535 0.650926 -0.803609
915.4375 1.641197 0.811197 -0.83
916.2421875 0.8093549999999999 -0.02 -0.829355
917.0703125 1.6689 1.337356 -0.331544
917.94140625 1.333362 1.009417 -0.323945
918.734375 0.780679 0.105 -0.675679
919.5625 0.802143 0.057143 -0.745
920.3671875 0.9481930000000001 0.053193 -0.895
921.140625 1.5515430000000001 0.650159 -0.901384
921.91796875 0.803096 -0.052568 -0.855664
922.75390625 0.844213 -0.075 -0.919213
923.5703125 1.8730069999999999 1.528986 -0.344021
924.3828125 1.784389 1.459399 -0.32499
925.20703125 0.919411 0.829159 -0.090252
925.99609375 2.164854 1.475 -0.689854
926.8203125 0.818259 0.043979 -0.77428
927.58984375 1.296362 0.48301 -0.813352
928.42578125 0.788996 -0.141004 -0.93
929.25 0.823295 -0.075 -0.898295
930.03125 1.4655550000000002 1.08929 -0.376265
930.87109375 1.41706 1.06206 -0.355
931.703125 1.157087 0.772709 -0.384378
932.53125 0.8079099999999999 -0.003013 -0.810923
933.2890625 1.586949 0.793754 -0.793195
934.09375 0.84392 -0.102679 -0.946599
934.921875 0.767555 -0.142202 -0.909757
935.73828125 0.69864 -0.131771 -0.830411
936.57421875 0.7408819999999999 -0.145993 -0.886875
937.36328125 1.5412759999999999 1.21936 -0.321916
938.21484375 1.837933 1.472465 -0.365468
939.05078125 1.398672 1.034043 -0.364629
939.77734375 0.818006 0.009852 -0.808154
940.59765625 0.8475600000000001 0.067895 -0.779665
941.41015625 1.174507 0.464507 -0.71
942.24609375 0.647361 -0.099873 -0.747234
943.078125 0.7846960000000001 -0.077804 -0.8625
943.91015625 0.805532 -0.004468 -0.81
944.69921875 0.697832 0.008956 -0.688876
945.45703125 1.93473 1.516412 -0.418318
946.3203125 1.550059 1.142866 -0.407193
947.1171875 0.729769 -0.035038 -0.764807
947.92578125 0.9741519999999999 0.258732 -0.71542
948.7578125 1.575556 0.820556 -0.755
949.59765625 0.939724 0.034724 -0.905
950.40234375 1.3713440000000001 0.511344 -0.86
951.171875 1.309996 0.516387 -0.793609
951.98046875 0.677895 -0.054605 -0.7325
952.78515625 1.794536 1.430679 -0.363857
953.6484375 1.502423 1.097564 -0.404859
954.44921875 1.020983 0.293844 -0.727139
955.2890625 0.836646 -0.060316 -0.896962
956.109375 1.414836 0.538474 -0.876362
956.8828125 1.4464329999999999 0.620271 -0.826162
957.6640625 0.73661 -0.050195 -0.786805
958.48828125 1.174763 0.320102 -0.854661
959.3046875 2.004324 1.658015 -0.346309
960.1171875 1.740723 1.434942 -0.305781
960.953125 0.977545 0.792756 -0.184789
961.8046875 0.768333 -0.032673 -0.801006
962.59375 0.803493 -0.081406 -0.884899
963.359375 0.79759 -0.067136 -0.864726
964.18359375 0.757609 -5.86E-4 -0.758195
964.99609375 0.776508 -0.008277 -0.784785
965.8125 0.775224 0.005385 -0.769839
966.65625 1.546953 1.248203 -0.29875
967.4609375 1.071993 0.929959 -0.142034
968.28125 1.212119 0.517119 -0.695
969.05078125 1.477392 0.779711 -0.697681
969.859375 0.78628 -0.003428 -0.789708
970.6796875 0.8532670000000001 0.005106 -0.848161
971.5 0.809696 -0.01 -0.819696
972.31640625 1.9881060000000002 1.668106 -0.32
973.15625 1.9962940000000002 1.691596 -0.304698
973.98828125 0.951995 0.734434 -0.217561
974.765625 1.086146 0.276189 -0.809957
975.546875 0.7090230000000001 0.006001 -0.703022
976.36328125 0.77991 -0.041477 -0.821387
977.1640625 1.1484240000000001 0.203104 -0.94532
978.00390625 0.735954 -0.097247 -0.833201
978.81640625 2.040238 1.666801 -0.373437
979.66015625 1.668248 1.303885 -0.364363
980.453125 1.171229 0.875 -0.296229
981.23046875 0.8299460000000001 0.054946 -0.775
982.0546875 0.660418 -0.100711 -0.761129
982.8515625 1.164341 0.289699 -0.874642
983.66796875 0.8620559999999999 -0.101045 -0.963101
984.5 0.754355 -0.04 -0.794355
985.3515625 0.738759 -0.048032 -0.786791
986.09375 1.564067 0.994258 -0.569809
986.89453125 1.916593 1.589593 -0.327
987.6953125 1.3418160000000001 0.95045 -0.391366
988.51171875 0.769533 0.024723 -0.74481
989.32421875 0.651741 -0.050509 -0.70225
990.1640625 0.898083 -0.008596 -0.906679
991.0 0.726683 0.025 -0.701683
991.8359375 0.764977 0.039977 -0.725
992.6015625 1.496175 0.676175 -0.82
993.3828125 2.046561 1.711233 -0.335328
994.16796875 1.633924 1.046899 -0.587025
994.99609375 1.8946930000000002 1.532426 -0.362267
995.82421875 1.044822 0.84073 -0.204092
996.69921875 0.6562779999999999 -0.045 -0.701278
997.51953125 0.82712 0.092862 -0.734258
998.296875 1.5022989999999998 0.762299 -0.74
999.08203125 0.7571289999999999 -0.070226 -0.827355
999.90234375 0.8671800000000001 -0.006968 -0.874148
1000.6875 0.977005 0.247005 -0.73
1001.5078125 0.6040800000000001 -0.068518 -0.672598
1002.25 1.659725 1.085 -0.574725
1003.1484375 1.7725559999999998 1.452767 -0.319789
1003.9453125 1.23329 0.83989 -0.3934
1004.73046875 0.716075 0.005278 -0.710797
1005.54296875 0.693735 -0.041265 -0.735
1006.34765625 0.8741690000000001 0.008009 -0.86616
1007.13671875 0.765 0.02 -0.745
1007.96484375 0.7590979999999999 0.006443 -0.752655
1008.81640625 0.678293 -0.066935 -0.745228
1009.61328125 1.499253 1.173276 -0.325977
1010.421875 2.0540599999999998 1.74023 -0.31383
1011.20703125 1.13548 0.77048 -0.365
1012.03125 0.682887 -0.020859 -0.703746
1012.8203125 0.7820130000000001 0.013576 -0.768437
1013.66015625 0.8067529999999999 -0.031865 -0.838618
1014.49609375 0.701771 8.38E-4 -0.700933
1015.35546875 0.719155 0.009968 -0.709187
1016.140625 1.500575 0.795575 -0.705
1016.91015625 1.884488 1.6049 -0.279588
1017.7265625 1.73944 1.489811 -0.249629
1018.515625 0.945384 0.795384 -0.15
1019.328125 0.706577 0.053193 -0.653384
1020.171875 0.5794900000000001 -0.06551 -0.645
1021.0234375 0.7659870000000001 -0.047499 -0.813486
1021.8359375 0.8232900000000001 -0.020068 -0.843358
1022.61328125 0.797925 -0.031864 -0.829789
1023.421875 0.89698 0.083539 -0.813441
1024.2265625 1.502075 1.172314 -0.329761
1024.99609375 1.049866 0.869516 -0.18035
1025.84375 0.905271 0.023672 -0.881599
1026.69921875 0.62506 -0.097639 -0.722699
1027.53125 0.763574 -0.059102 -0.822676
1028.30859375 0.944483 0.033574 -0.910909
1029.1171875 0.7875 -0.0425 -0.83
1029.9140625 0.769883 -0.015117 -0.785
1030.70703125 1.522427 1.181847 -0.34058
1031.51953125 1.097673 0.904551 -0.193122
1032.375 0.8501759999999999 0.11 -0.740176
1033.21484375 0.881866 0.169857 -0.712009
1034.0234375 0.782659 -0.017028 -0.799687
1034.8046875 0.846433 -0.063567 -0.91
1035.609375 0.9250929999999999 0.046607 -0.878486
1036.39453125 1.589171 0.814784 -0.774387
1037.1953125 1.675576 1.317318 -0.358258
1038.03125 1.16826 0.821383 -0.346877
1038.921875 0.642253 0.007551 -0.634702
1039.73046875 0.666814 0.02 -0.646814
1040.5 0.76 -0.0050 -0.765
1041.32421875 0.885 0.015 -0.87
1042.11328125 0.888973 -6.3E-5 -0.889036
1042.89453125 0.764986 0.004986 -0.76
1043.6796875 1.526576 1.006576 -0.52
1044.55859375 1.881238 1.636688 -0.24455
1045.38671875 1.271343 0.958777 -0.312566
1046.1953125 0.7629239999999999 0.079445 -0.683479
1047.00390625 0.7126530000000001 -0.021021 -0.733674
1047.8046875 0.782581 -0.052091 -0.834672
1048.5859375 0.686338 0.009607 -0.676731
1049.4140625 0.73665 0.019845 -0.716805
1050.25 0.862937 -0.04 -0.902937
1051.05078125 1.651165 1.079528 -0.571637
1051.87890625 1.529713 1.245358 -0.284355
1052.7265625 1.3637800000000002 1.026609 -0.337171
1053.4765625 1.702737 0.911675 -0.791062
1054.25390625 0.993919 0.294325 -0.699594
1055.0703125 0.558675 -0.045949 -0.604624
1055.9296875 0.587189 -0.136648 -0.723837
1056.77734375 0.728929 -0.063368 -0.792297
1057.59375 0.719754 0.014754 -0.705
1058.37109375 0.697364 -0.032636 -0.73
1059.12890625 1.7287279999999998 1.209067 -0.519661
1059.98046875 1.750067 1.469906 -0.280161
1060.71875 1.44559 0.86559 -0.58
1061.5546875 0.6354960000000001 0.108577 -0.526919
1062.41796875 0.611921 -0.076985 -0.688906
1063.26171875 0.6629050000000001 -0.065364 -0.728269
1064.03515625 0.685686 0.037208 -0.648478
1064.8515625 0.725209 0.028326 -0.696883
1065.63671875 0.842867 -0.011477 -0.854344
1066.36328125 1.6741460000000001 1.179615 -0.494531
1067.2109375 1.750854 1.546284 -0.20457
1068.05078125 1.2318820000000001 0.961882 -0.27
1068.9140625 0.801291 0.0245 -0.776791
1069.7265625 0.7712209999999999 0.046221 -0.725
1070.52734375 0.66263 0.019212 -0.643418
1071.32421875 0.716484 -0.0050 -0.721484
1072.10546875 0.759867 -0.015063 -0.77493
1072.91796875 0.8341689999999999 -0.010831 -0.845
1073.734375 2.051074 1.727693 -0.323381
1074.62109375 1.571822 1.280322 -0.2915
1075.40625 1.161422 0.731422 -0.43
1076.2109375 0.8549749999999999 0.024975 -0.83
1077.015625 1.374144 0.469886 -0.904258
1077.79296875 1.552444 0.702905 -0.849539
1078.58203125 0.770201 -0.031215 -0.801416
1079.4140625 0.73261 -0.07704 -0.80965
1080.28125 0.730981 -0.093203 -0.824184
1081.11328125 1.6293090000000001 1.284739 -0.34457
1081.88671875 1.276233 0.866855 -0.409378
1082.73046875 0.817152 0.070485 -0.746667
1083.50390625 1.587768 0.815133 -0.772635
1084.26953125 1.604868 0.794941 -0.809927
1085.08203125 0.872422 -0.042975 -0.915397
1085.94140625 0.76802 -0.092472 -0.860492
1086.76171875 1.7480149999999999 1.433015 -0.315
1087.59375 1.534993 1.190259 -0.344734
1088.38671875 1.501476 0.769503 -0.731973
1089.1953125 0.85963 -0.005219 -0.864849
1089.96875 0.865362 -0.028906 -0.894268
1090.765625 1.191724 0.426743 -0.764981
1091.60546875 0.78843 -0.065007 -0.853437
1092.4609375 0.854567 -0.030265 -0.884832
1093.2734375 1.756774 1.381774 -0.375
1094.13671875 1.323202 0.953297 -0.369905
1094.88671875 1.2897660000000002 0.504766 -0.785
1095.67578125 0.878348 -0.046652 -0.925
1096.46484375 0.818196 0.043489 -0.774707
1097.28515625 0.677805 -0.030222 -0.708027
1098.15625 0.741342 -0.07608 -0.817422
1098.98046875 0.88983 -0.095086 -0.984916
1099.75 1.475 1.12 -0.355
1100.62109375 1.5424060000000002 1.155828 -0.386578
1101.37109375 1.1454469999999999 0.715784 -0.429663
1102.14453125 0.872851 -0.019517 -0.892368
1102.96484375 0.801761 -0.077771 -0.879532
1103.81640625 0.649029 -0.067121 -0.71615
1104.65625 0.634258 -0.07 -0.704258
1105.46484375 0.88817 -0.02642 -0.91459
1106.29296875 0.958424 0.058424 -0.9
1107.0859375 1.6403630000000002 1.285578 -0.354785
1107.890625 1.326253 0.936253 -0.39
1108.62890625 1.6502910000000002 0.748464 -0.901827
1109.48046875 0.7928999999999999 -0.064458 -0.857358
1110.3203125 0.730535 -0.032902 -0.763437
1111.14453125 0.716073 -0.075013 -0.791086
1111.97265625 0.848066 -0.104004 -0.95207
1112.77734375 0.804692 -0.030308 -0.835
1113.546875 0.6964060000000001 -0.036719 -0.733125
1114.3046875 1.548826 0.969978 -0.578848
1115.15234375 1.69529 1.38029 -0.315
1116.0078125 1.378053 0.918111 -0.459942
1116.85546875 0.713971 0.029971 -0.684
1117.66015625 0.686599 0.03206 -0.654539
1118.47265625 1.653025 0.857564 -0.795461
1119.2578125 1.306761 0.60701 -0.699751
1120.03125 0.692249 0.093679 -0.59857
1120.83203125 0.814846 -0.092056 -0.906902
1121.70703125 0.661098 0.035468 -0.62563
1122.4765625 1.6365230000000002 1.181523 -0.455
1123.31640625 1.9128980000000002 1.637898 -0.275
1124.1640625 1.017067 0.887067 -0.13
1124.9609375 0.83772 0.345576 -0.492144
1125.71875 1.346325 0.716493 -0.629832
1126.51171875 1.3378670000000001 0.633418 -0.704449
1127.3515625 0.84888 -0.035996 -0.884876
1128.19921875 0.775356 -0.082306 -0.857662
1129.015625 0.708453 -0.109492 -0.817945
1129.84765625 0.703725 -0.098444 -0.802169
1130.63671875 1.9852720000000001 1.563509 -0.421763
1131.46484375 1.372565 0.9613 -0.411265
1132.2109375 0.758136 -0.015174 -0.77331
1133.0234375 0.757449 -0.012529 -0.769978
1133.87109375 0.996663 0.221831 -0.774832
1134.70703125 0.833453 -0.111245 -0.944698
1135.53515625 0.757672 -0.108334 -0.866006
1136.34765625 0.942367 0.127367 -0.815
1137.11328125 1.872447 1.486594 -0.385853
1137.890625 1.522931 1.214923 -0.308008
1138.6875 0.885273 0.750273 -0.135
1139.5625 0.70674 0.008175 -0.698565
1140.39453125 0.6702159999999999 -0.035 -0.705216
1141.2109375 0.861459 -0.059009 -0.920468
1142.046875 0.8402700000000001 -0.061344 -0.901614
1142.828125 1.648252 0.753974 -0.894278
1143.58203125 1.617582 0.712152 -0.90543
1144.40234375 1.4957749999999999 1.089681 -0.406094
1145.20703125 0.983384 0.719321 -0.264063
1146.0703125 0.79865 -0.100168 -0.898818
1146.87890625 0.67468 -0.099597 -0.774277
1147.73828125 0.712809 -0.07044 -0.783249
1148.53515625 0.789369 -0.092792 -0.882161
1149.28125 1.527022 0.599802 -0.92722
1150.0703125 1.664032 0.680461 -0.983571
1150.9140625 1.4998399999999998 1.05984 -0.44
1151.72265625 1.222798 0.732798 -0.49
1152.5546875 1.072389 0.227389 -0.845
1153.3984375 0.863508 -0.071484 -0.934992
1154.21484375 0.8449530000000001 -0.075047 -0.92
1154.984375 0.851952 -0.144569 -0.996521
1155.76953125 1.133792 0.178815 -0.954977
1156.58203125 1.627217 1.177095 -0.450122
1157.4140625 2.035787 1.674397 -0.36139
1158.2421875 1.145842 0.836917 -0.308925
1159.078125 0.8256359999999999 0.014519 -0.811117
1159.9140625 1.238256 0.370886 -0.86737
1160.6953125 1.6654550000000001 0.693188 -0.972267
1161.4765625 0.7387809999999999 -0.126303 -0.865084
1162.26171875 0.795921 -0.081994 -0.877915
1163.08203125 1.696558 1.316929 -0.379629
1163.9140625 1.526167 1.216167 -0.31
1164.734375 0.900194 0.787961 -0.112233
1165.61328125 0.6995039999999999 0.036781 -0.662723
1166.40234375 1.540365 0.735651 -0.804714
1167.1640625 0.992069 0.144373 -0.847696
1167.94921875 0.7234309999999999 -0.005784 -0.729215
1168.7734375 0.740697 0.020745 -0.719952
1169.60546875 0.858971 -2.9E-5 -0.859
1170.37109375 1.77143 1.223112 -0.548318
1171.26171875 1.914155 1.614488 -0.299667
1172.140625 1.363977 1.029224 -0.334753
1172.84765625 1.566669 0.902173 -0.664496
1173.63671875 1.674488 0.876807 -0.797681
1174.4296875 0.628541 0.048484 -0.580057
1175.2734375 0.72327 0.033303 -0.689967
1176.109375 0.74 -0.01 -0.75
1176.9453125 0.813658 -0.061935 -0.875593
1177.77734375 0.76926 -0.018609 -0.787869
1178.50390625 1.659738 1.08485 -0.574888
1179.33203125 1.666861 1.308501 -0.35836
1180.09765625 1.446971 0.911971 -0.535
1180.94921875 0.718389 0.05018 -0.668209
1181.77734375 0.595592 -0.045143 -0.640735
1182.609375 0.580062 -0.123418 -0.70348
1183.4609375 0.829117 -0.06498 -0.894097
1184.2421875 1.7774320000000001 0.905213 -0.872219
1185.00390625 1.172718 0.432718 -0.74
1185.7578125 1.660677 1.120255 -0.540422
1186.609375 1.750879 1.58125 -0.169629
1187.421875 1.3473030000000001 0.964211 -0.383092
1188.26171875 0.644942 0.095 -0.549942
1189.12890625 0.517966 -0.011604 -0.52957
1189.9453125 0.827256 -0.032014 -0.85927
1190.71875 0.788459 -0.025371 -0.81383
1191.48828125 1.555015 0.817088 -0.737927
1192.30078125 0.722275 -0.022492 -0.744767
1193.11328125 2.027234 1.657234 -0.37
1193.953125 1.653187 1.323187 -0.33
1194.78125 1.327631 0.808242 -0.519389
1195.63671875 0.74004 0.083134 -0.656906
1196.41796875 0.675829 -0.009171 -0.685
1197.20703125 0.8333590000000001 -1.49E-4 -0.833508
1197.9921875 0.833174 0.0 -0.833174
1198.81640625 0.754626 -9.89E-4 -0.755615
1199.64453125 0.75611 -0.030108 -0.786218
1200.5 1.405859 1.025 -0.380859
1201.31640625 1.371874 0.82981 -0.542064
1202.125 1.7400000000000002 0.935 -0.805
1202.890625 1.217214 0.412247 -0.804967
1203.68359375 0.771709 -0.050303 -0.822012
1204.5078125 0.736614 -0.082014 -0.818628
1205.3203125 0.752529 -0.075908 -0.828437
1206.12890625 1.540434 1.155475 -0.384959
1207.046875 1.453507 1.089285 -0.364222
1207.83984375 0.7785259999999999 0.017941 -0.760585
1208.59375 1.539062 0.78423 -0.754832
1209.38671875 0.7923 -0.017557 -0.809857
1210.1796875 0.8177880000000001 -0.035623 -0.853411
1211.0 0.848368 -0.01 -0.858368
1211.8203125 0.78891 0.034429 -0.754481
1212.6953125 1.479776 1.200554 -0.279222
1213.50390625 1.073245 0.944758 -0.128487
1214.30078125 1.254229 0.501338 -0.752891
1215.078125 1.578406 0.743453 -0.834953
1215.87109375 1.073532 0.252446 -0.821086
1216.6875 1.267546 0.438505 -0.829041
1217.51171875 0.7863169999999999 -0.053274 -0.839591
1218.3515625 0.787629 -0.003718 -0.791347
1219.2265625 1.46 1.095 -0.365
1219.98828125 1.259208 0.662103 -0.597105
1220.78515625 0.793508 0.008508 -0.785
1221.55859375 0.879273 0.060562 -0.818711
1222.38671875 0.8284039999999999 -0.042471 -0.870875
1223.19921875 0.874923 -0.019647 -0.89457
1224.0234375 0.770768 -0.005216 -0.775984
1224.8828125 1.8774829999999998 1.622483 -0.255
1225.703125 1.960445 1.707226 -0.253219
1226.46484375 0.9595210000000001 0.761121 -0.1984
1227.2578125 0.821373 0.129506 -0.691867
1228.0703125 0.67956 0.014232 -0.665328
1228.875 0.847786 -0.085 -0.932786
1229.69140625 0.712237 -0.123183 -0.83542
1230.5625 0.664756 -0.087737 -0.752493
1231.390625 0.739405 -0.068095 -0.8075
1232.1171875 1.6836 1.119381 -0.564219
1232.9765625 1.471706 1.112558 -0.359148
1233.71484375 1.080045 0.753045 -0.327
1234.5390625 0.8348629999999999 0.019863 -0.815
1235.359375 0.6920569999999999 -0.092891 -0.784948
1236.21484375 0.544125 -0.100875 -0.645
1237.0546875 0.655605 -0.025264 -0.680869
1237.859375 0.8049970000000001 -0.063174 -0.868171
1238.64453125 0.933073 0.123073 -0.81
1239.38671875 1.6569220000000002 1.128794 -0.528128
1240.23828125 1.712116 1.408116 -0.304
1241.015625 1.033584 0.841748 -0.191836
1241.86328125 0.573388 0.047315 -0.526073
1242.73046875 0.6486109999999999 -0.05 -0.698611
1243.53125 1.633262 0.797942 -0.83532
1244.33203125 0.678192 -0.02 -0.698192
1245.11328125 0.6491800000000001 0.009492 -0.639688
1245.921875 0.669566 0.029084 -0.640482
1246.72265625 0.866325 -0.016855 -0.88318
1247.515625 1.826356 1.471356 -0.355
1248.44921875 1.548197 1.204447 -0.34375
1249.23046875 1.3392439999999999 0.894725 -0.444519
1250.015625 1.085608 0.262893 -0.822715
1250.8046875 0.626973 0.001973 -0.625
1251.609375 0.708866 -1.19E-4 -0.708985
1252.39453125 0.7000000000000001 0.04 -0.66
1253.1953125 0.838228 0.01 -0.828228
1254.08203125 0.661168 -0.071798 -0.732966
1254.8671875 1.6797680000000001 1.125807 -0.553961
1255.72265625 1.7472189999999999 1.39671 -0.350509
1256.49609375 1.026874 0.793025 -0.233849
1257.2890625 0.820331 0.020331 -0.8
1258.0859375 0.860277 0.159117 -0.70116
1258.8984375 0.757261 0.022655 -0.734606
1259.73828125 0.633355 -0.028464 -0.661819
1260.58984375 0.8249920000000001 -0.004153 -0.829145
1261.40625 0.859599 0.004188 -0.855411
1262.1953125 1.7933409999999999 1.490017 -0.303324
1263.03515625 1.390186 1.110186 -0.28
1263.79296875 1.142089 0.458012 -0.684077
1264.578125 1.519126 0.742193 -0.776933
1265.41015625 0.80949 -0.10786 -0.91735
1266.28125 0.7731250000000001 -0.016875 -0.79
1267.08984375 1.570035 0.760035 -0.81
1267.8984375 0.795003 -0.024255 -0.819258
1268.671875 1.809664 1.514664 -0.295
1269.50390625 1.547113 1.242738 -0.304375
1270.26953125 1.349254 0.621385 -0.727869
1271.07421875 0.849669 0.032118 -0.817551
1271.94921875 0.8023089999999999 -0.012445 -0.814754
1272.77734375 0.859321 -0.034827 -0.894148
1273.57421875 1.288226 0.423946 -0.86428
1274.3671875 0.970099 0.081781 -0.888318
1275.17578125 1.5068959999999998 1.142305 -0.364591
1275.99609375 1.3685019999999999 0.998502 -0.37
1276.76171875 0.765657 -0.084343 -0.85
1277.6171875 0.689205 -0.084215 -0.77342
1278.46875 0.7343909999999999 -0.092319 -0.82671
1279.28125 0.8258300000000001 0.003711 -0.822119
1280.08984375 1.314993 0.439339 -0.875654
1280.875 1.139975 0.225 -0.914975
1281.6953125 1.503519 1.120562 -0.382957
1282.453125 0.970922 0.740922 -0.23
1283.2890625 0.6767029999999999 -0.066883 -0.743586
1284.15625 0.7799999999999999 -0.045 -0.825
1284.98046875 0.843642 0.06459 -0.779052
1285.78125 0.805852 0.015 -0.790852
1286.578125 0.814444 -0.020556 -0.835
1287.38671875 0.782013 -0.033244 -0.815257
1288.15625 1.716774 1.332816 -0.383958
1288.9453125 0.884246 0.769246 -0.115
1289.84375 0.780616 -0.02 -0.800616
1290.6796875 0.716743 -0.124839 -0.841582
1291.484375 0.858301 -0.121699 -0.98
1292.28125 0.785627 -0.073396 -0.859023
1293.07421875 0.746031 -0.102719 -0.84875
1293.86328125 0.7921710000000001 -0.082471 -0.874642
1294.5859375 1.6743480000000002 1.129348 -0.545
1295.51171875 1.5623360000000002 1.257694 -0.304642
1296.3203125 1.146184 0.917709 -0.228475
1297.15234375 0.8424109999999999 0.092436 -0.749975
1297.953125 0.864149 0.053681 -0.810468
1298.75 0.725 -0.0050 -0.73
1299.5390625 0.793701 0.042311 -0.75139
1300.32421875 0.884633 -0.020367 -0.905
1301.1640625 0.700799 -0.025723 -0.726522
1301.9375 1.623418 1.143712 -0.479706
1302.7890625 1.731359 1.464045 -0.267314
1303.609375 0.968572 0.884938 -0.083634
1304.41796875 0.7687949999999999 0.078795 -0.69
1305.21875 0.667814 0.017814 -0.65
1305.9921875 1.4835500000000001 0.82865 -0.6549
1306.79296875 0.809938 0.039938 -0.77
1307.6640625 0.643067 0.039877 -0.60319
1308.484375 0.73498 0.081908 -0.653072
1309.29296875 0.834438 0.034438 -0.8
1310.02734375 1.7261069999999998 1.227755 -0.498352
1310.91015625 1.644262 1.394671 -0.249591
1311.6484375 1.262716 0.905157 -0.357559
1312.44140625 0.870135 0.199627 -0.670508
1313.30078125 0.45816 0.009629 -0.448531
1314.13671875 0.7033860000000001 0.033445 -0.669941
1314.94921875 0.832808 -0.010942 -0.84375
1315.76171875 0.724728 0.026916 -0.697812
1316.5625 0.683994 0.043462 -0.640532
1317.3125 1.6459579999999998 1.118949 -0.527009
1318.09375 1.5134509999999999 1.255 -0.258451
1318.93359375 1.003773 0.914823 -0.08895
1319.8125 0.602714 -0.006563 -0.609277
1320.62109375 0.619659 -0.038479 -0.658138
1321.4453125 0.880071 0.070071 -0.81
1322.2578125 0.858746 0.00886 -0.849886
1323.04296875 1.590093 0.880093 -0.71
1323.81640625 1.541697 0.826753 -0.714944
1324.61328125 1.928492 1.679756 -0.248736
1325.49609375 1.618339 1.348445 -0.269894
1326.3046875 0.79278 0.06278 -0.73
1327.1328125 0.7564299999999999 0.07 -0.68643
1327.94140625 0.7227899999999999 -0.035282 -0.758072
1328.74609375 0.8461529999999999 -0.093408 -0.939561
1329.51953125 1.055178 0.140178 -0.915
1330.30078125 0.818724 -0.08327 -0.901994
1331.14453125 1.939812 1.599812 -0.34
1331.98046875 1.764399 1.424893 -0.339506
1332.7890625 0.868256 0.696998 -0.171258
1333.62890625 0.822643 -0.012026 -0.834669
1334.4453125 0.7597719999999999 -0.078733 -0.838505
1335.21484375 0.844072 0.009784 -0.834288
1335.99609375 0.796362 -0.03172 -0.828082
1336.83984375 0.785469 -0.088809 -0.874278
1337.66796875 0.812025 -0.052975 -0.865
1338.5078125 1.4190580000000002 1.064567 -0.354491
1339.29296875 1.151703 0.73913 -0.412573
1340.12109375 0.849888 0.03 -0.819888
1340.90625 1.355344 0.530344 -0.825
1341.68359375 1.235208 0.410208 -0.825
1342.5 0.772986 -0.05 -0.822986
1343.34375 0.7591819999999999 -0.075717 -0.834899
1344.18359375 1.4121990000000002 1.069484 -0.342715
1345.0234375 1.3983100000000002 1.023964 -0.374346
1345.80859375 1.661083 0.766871 -0.894212
1346.62109375 1.666544 0.679067 -0.987477
1347.3984375 0.965974 0.031824 -0.93415
1348.19140625 0.818157 -0.040742 -0.858899
1349.01953125 0.822615 -0.052385 -0.875
1349.83984375 0.886235 -0.033653 -0.919888
1350.66015625 1.57022 1.192505 -0.377715
1351.484375 0.947192 0.712192 -0.235
1352.31640625 0.7866930000000001 -0.095494 -0.882187
1353.09375 0.947867 0.078867 -0.869
1353.8671875 0.8933279999999999 -0.111672 -1.005
1354.70703125 0.855 -0.065 -0.92
1355.53515625 0.784745 -0.103125 -0.88787
1356.34765625 0.788162 -0.113009 -0.901171
1357.14453125 1.426629 1.0349 -0.391729
1358.04296875 1.609564 1.164701 -0.444863
1358.80078125 0.762691 -0.056044 -0.818735
1359.5625 1.141814 0.323221 -0.818593
1360.39453125 0.8858349999999999 -0.035309 -0.921144
1361.2265625 0.800054 -0.05353 -0.853584
1362.04296875 0.733755 -0.006245 -0.74
1362.8671875 1.375952 0.56244 -0.813512
1363.625 1.6449120000000002 1.135 -0.509912
1364.48046875 1.769938 1.449989 -0.319949
1365.234375 1.086376 0.854629 -0.231747
1366.0390625 0.665947 -0.112112 -0.778059
1366.875 0.8150000000000001 -0.08 -0.895
1367.6875 0.683736 -0.06125 -0.744986
1368.5234375 0.63673 -0.05884 -0.69557
1369.359375 0.74281 -0.083047 -0.825857
1370.18359375 0.8652529999999999 0.009872 -0.855381
1370.94140625 1.636215 0.904309 -0.731906
1371.6640625 1.658662 1.089443 -0.569219
1372.52734375 1.929738 1.592933 -0.336805
1373.34375 1.172862 0.859433 -0.313429
1374.18359375 0.5813240000000001 -0.058051 -0.639375
1375.0078125 0.667588 0.018984 -0.648604
1375.83984375 0.774127 -0.043397 -0.817524
1376.6328125 0.6574690000000001 -0.015515 -0.672984
1377.390625 0.6793210000000001 -0.030253 -0.709574
1378.22265625 0.665738 -0.070151 -0.735889
1379.046875 0.826388 -0.08 -0.906388
1379.79296875 1.685 1.09 -0.595
1380.6875 1.692956 1.337978 -0.354978
1381.48828125 1.161317 0.899913 -0.261404
1382.30078125 1.258234 0.419625 -0.838609
1383.078125 1.2540499999999999 0.532628 -0.721422
1383.8828125 0.642465 -0.035184 -0.677649
1384.69140625 0.6870729999999999 -0.020989 -0.708062
1385.51171875 0.6870189999999999 -0.051382 -0.738401
1386.3515625 0.836045 -0.098955 -0.935
1387.1484375 1.463399 1.075977 -0.387422
1388.00390625 1.808138 1.458685 -0.349453
1388.78125 1.20056 0.832527 -0.368033
1389.5703125 0.786705 -0.043147 -0.829852
1390.3828125 0.923281 0.099382 -0.823899
1391.1875 1.283706 0.499136 -0.78457
1392.01953125 0.630627 -0.100038 -0.730665
1392.86328125 0.665035 -0.102243 -0.767278
1393.703125 0.789408 -0.060101 -0.849509
1394.4765625 1.3375460000000001 0.417698 -0.919848
1395.2578125 1.541958 1.118318 -0.42364
1396.05859375 1.152523 0.737555 -0.414968
1396.875 0.7985119999999999 -0.065 -0.863512
1397.68359375 0.740043 -0.105 -0.845043
1398.52734375 0.793695 -0.190228 -0.983923
1399.37890625 0.7184459999999999 -0.083647 -0.802093
1400.18359375 0.8139890000000001 -0.075054 -0.889043
1400.94140625 1.153665 0.331946 -0.821719
1401.765625 1.533481 1.193481 -0.34
1402.60546875 1.322402 0.984676 -0.337726
1403.36328125 1.578604 0.766969 -0.811635
1404.203125 0.909122 0.124234 -0.784888
1405.0546875 0.77594 -0.030563 -0.806503
1405.8671875 1.4169580000000002 0.57516 -0.841798
1406.64453125 1.112715 0.257773 -0.854942
1407.44921875 0.7784369999999999 -0.05 -0.828437
1408.2421875 1.9934319999999999 1.733488 -0.259944
1409.0390625 1.814127 1.559957 -0.25417
1409.8828125 1.236644 0.819635 -0.417009
1410.73046875 0.802478 0.004978 -0.7975
1411.5703125 1.192811 0.345747 -0.847064
1412.3515625 0.980494 0.070494 -0.91
1413.13671875 0.870627 -0.131092 -1.001719
1413.9453125 1.176531 0.24238 -0.934151
1414.734375 1.5040719999999999 0.664287 -0.839785
1415.546875 1.9500199999999999 1.60002 -0.35
1416.44921875 1.272919 0.919438 -0.353481
1417.26171875 0.72529 -0.01951 -0.7448
1418.04296875 1.062532 0.239615 -0.822917
1418.82421875 0.7718849999999999 -0.070459 -0.842344
1419.6328125 1.476132 0.541487 -0.934645
1420.42578125 1.079285 0.132976 -0.946309
1421.23046875 0.739404 -0.055072 -0.794476
1422.05078125 1.746363 1.355283 -0.39108
1422.90625 2.067 1.692 -0.375
1423.734375 1.114872 0.756296 -0.358576
1424.515625 1.332568 0.543427 -0.789141
1425.33203125 0.6356379999999999 -0.126245 -0.761883
1426.13671875 0.875164 -0.116555 -0.991719
1426.92578125 0.8239420000000001 -0.075 -0.898942
1427.74609375 0.764705 -0.01903 -0.783735
1428.59765625 0.701494 -0.065763 -0.767257
1429.37109375 1.722176 1.157233 -0.564943
1430.22265625 1.9170950000000002 1.578866 -0.338229
1431.01171875 0.64924 0.064636 -0.584604
1431.78515625 1.2286030000000001 0.591499 -0.637104
1432.578125 0.580556 0.024654 -0.555902
1433.41015625 0.6088760000000001 0.054745 -0.554131
1434.24609375 0.667909 0.043078 -0.624831
1435.1015625 0.859916 -0.01 -0.869916
1435.890625 1.528175 0.7238 -0.804375
1436.6640625 1.958309 1.488309 -0.47
1437.421875 1.694005 1.089005 -0.605
1438.2734375 1.6087189999999998 1.170578 -0.438141
1439.0234375 1.266867 0.860606 -0.406261
1439.87109375 0.562062 0.068848 -0.493214
1440.73828125 0.643526 -0.057877 -0.701403
1441.5625 0.693632 -0.009405 -0.703037
1442.34375 0.647795 0.049961 -0.597834
1443.15625 0.662601 0.040658 -0.621943
1443.94140625 0.8127489999999999 0.125718 -0.687031
1444.703125 1.494549 1.172443 -0.322106
1445.52734375 1.430654 1.111631 -0.319023
1446.453125 1.494914 1.129914 -0.365
1447.23828125 1.550843 0.9328 -0.618043
1448.03515625 1.519203 0.709745 -0.809458
1448.84765625 0.710477 -0.060148 -0.770625
1449.65234375 0.6555169999999999 -0.076976 -0.732493
1450.4296875 0.7083889999999999 -0.065173 -0.773562
1451.25 0.740749 -0.045 -0.785749
1452.09375 0.7970539999999999 -0.045 -0.842054
1452.9375 1.848605 1.474386 -0.374219
1453.734375 1.123219 0.760449 -0.36277
1454.546875 0.699289 -0.024578 -0.723867
1455.34375 1.2520289999999998 0.489529 -0.7625
1456.125 1.287353 0.435 -0.852353
1456.9375 0.794291 -0.088854 -0.883145
1457.77734375 0.713633 -0.10389 -0.817523
1458.6328125 0.689551 -0.053338 -0.742889
1459.4375 1.7199330000000002 1.439947 -0.279986
1460.25 1.4649299999999998 1.15 -0.31493
1461.0390625 1.51592 0.78816 -0.72776
1461.82421875 1.5006270000000002 0.565627 -0.935
1462.609375 0.754217 -0.105783 -0.86
1463.4296875 0.715811 -0.150584 -0.866395
1464.296875 0.668867 -0.19918 -0.868047
1465.12890625 0.761344 -0.123149 -0.884493
1465.9140625 1.588382 1.258382 -0.33
1466.7265625 1.2876539999999999 1.01792 -0.269734
1467.51953125 1.052308 0.844787 -0.207521
1468.3125 0.8149710000000001 -0.06 -0.874971
1469.11328125 0.836051 -0.04361 -0.879661
1469.96875 0.676152 -0.198229 -0.874381
1470.8203125 0.788523 -0.110347 -0.89887
1471.6171875 1.198538 0.278594 -0.919944
1472.42578125 0.856573 -0.103947 -0.96052
1473.21484375 1.883111 1.503929 -0.379182
1474.0390625 1.294551 0.889551 -0.405
1474.8046875 0.803496 -0.06 -0.863496
1475.640625 0.840933 -0.075 -0.915933
1476.4921875 0.9395199999999999 -0.105 -1.04452
1477.30859375 0.754456 -0.079216 -0.833672
1478.12109375 0.778667 -0.076209 -0.854876
1478.91015625 1.503128 0.648128 -0.855
1479.66796875 1.405775 1.084384 -0.321391
1480.46875 1.881481 1.632094 -0.249387
1481.2890625 0.996356 0.893398 -0.102958
1482.17578125 0.629425 -0.030575 -0.66
1482.99609375 0.733824 -0.065 -0.798824
1483.80859375 0.712087 -0.055128 -0.767215
1484.6171875 0.74279 -0.021672 -0.764462
1485.38671875 1.612128 0.797135 -0.814993
1486.16796875 0.859219 -0.077586 -0.936805
1486.9140625 1.609356 1.094524 -0.514832
1487.84375 1.588994 1.314119 -0.274875
1488.64453125 1.4871599999999998 0.962228 -0.524932
1489.46875 0.720616 0.125 -0.595616
1490.296875 0.6010759999999999 0.026076 -0.575
1491.08984375 0.815 -0.01 -0.825
1491.859375 0.8711909999999999 0.08002 -0.791171
1492.640625 0.9818450000000001 0.272118 -0.709727
1493.484375 0.5975250000000001 -0.058761 -0.656286
1494.2421875 1.7327439999999998 1.206348 -0.526396
1495.11328125 1.636227 1.298699 -0.337528
1495.890625 0.916121 0.873695 -0.042426
1496.72265625 0.6977099999999999 -0.02229 -0.72
1497.4921875 0.8095559999999999 0.006875 -0.802681
1498.28515625 0.632517 0.010035 -0.622482
1499.1015625 0.6374810000000001 0.006248 -0.631233
1499.95703125 0.810391 -0.004609 -0.815
1500.78125 0.797907 0.05 -0.747907
1501.54296875 1.716043 1.264645 -0.451398
1502.3671875 1.656373 1.241441 -0.414932
1503.203125 1.636046 1.38337 -0.252676
1503.9375 1.197192 0.677486 -0.519706
1504.7421875 0.685572 0.19397 -0.491602
1505.6015625 0.468618 0.014298 -0.45432
1506.4453125 0.8093910000000001 0.005333 -0.804058
1507.25390625 0.726718 0.058222 -0.668496
1508.09375 0.711788 0.026094 -0.685694
1508.87109375 1.555598 0.838766 -0.716832
1509.60546875 1.688641 1.174867 -0.513774
1510.453125 1.629369 1.384916 -0.244453
1511.25390625 1.288303 0.878303 -0.41
1512.12109375 0.787808 0.138023 -0.649785
1512.94140625 0.6978190000000001 -3.58E-4 -0.698177
1513.78125 0.8708549999999999 -0.034637 -0.905492
1514.58203125 0.72681 -0.018704 -0.745514
1515.3359375 0.9272900000000001 0.216033 -0.711257
1516.125 1.6418750000000002 0.92 -0.721875
1516.9296875 1.983436 1.663436 -0.32
1517.83984375 1.188228 0.814859 -0.373369
1518.62109375 0.786406 0.032958 -0.753448
1519.44921875 0.726128 -0.055747 -0.781875
1520.26953125 0.8299679999999999 -0.070022 -0.89999
1521.03125 1.021429 0.121429 -0.9
1521.828125 0.815403 -0.060993 -0.876396
1522.63671875 0.76777 -0.086975 -0.854745
1523.5078125 1.538456 1.158456 -0.38
1524.296875 1.255129 0.921855 -0.333274
1525.140625 0.753449 -0.038114 -0.791563
1525.96875 0.839763 -0.024652 -0.864415
1526.75 1.205537 0.43 -0.775537
1527.52734375 0.7832290000000001 -0.055326 -0.838555
1528.30859375 0.845 0.02 -0.825
1529.15625 0.7560199999999999 -0.071656 -0.827676
1530.0234375 1.433684 1.028976 -0.404708
1530.796875 1.411841 0.798067 -0.613774
1531.66796875 0.8250000000000001 -0.08 -0.905
1532.46484375 1.325102 0.357976 -0.967126
1533.21875 1.711872 0.776872 -0.935
1534.0078125 1.067903 0.140224 -0.927679
1534.83984375 0.815533 -0.072345 -0.887878
1535.66015625 1.613511 1.237285 -0.376226
1536.48046875 1.278034 0.844649 -0.433385
1537.359375 0.690507 -0.128555 -0.819062
1538.1640625 0.755556 -0.104444 -0.86
1538.9375 0.8316549999999999 -0.120357 -0.952012
1539.7265625 0.859364 -0.120636 -0.98
1540.51953125 0.88774 -0.065022 -0.952762
1541.36328125 0.785879 -0.083733 -0.869612
1542.171875 2.05357 1.623316 -0.430254
1543.0 1.3189760000000001 0.785 -0.533976
1543.86328125 0.815309 -0.061589 -0.876898
1544.62890625 1.161439 0.33472 -0.826719
1545.4140625 0.79 -0.105 -0.895
1546.2109375 0.823712 -0.087684 -0.911396
1547.046875 0.774734 -0.005266 -0.78
1547.875 0.757969 0.03 -0.727969
1548.6484375 1.584209 1.059209 -0.525
1549.55859375 1.6700240000000002 1.39155 -0.278474
1550.33203125 1.5220669999999998 1.067521 -0.454546
1551.09765625 1.509931 0.924931 -0.585
1551.87890625 0.734483 0.054874 -0.679609
1552.71875 0.715845 -0.125 -0.840845
1553.55859375 0.848774 -0.08 -0.928774
1554.37109375 0.760348 -0.025948 -0.786296
1555.234375 0.6022179999999999 -0.126504 -0.728722
1555.98046875 1.684938 1.069938 -0.615
1556.80859375 1.662557 1.263099 -0.399458
1557.5546875 1.090629 0.750629 -0.34
1558.37109375 0.650559 -0.150222 -0.800781
1559.19140625 0.84653 -0.07847 -0.925
1560.0078125 0.6612720000000001 -0.067745 -0.729017
1560.8671875 0.5751649999999999 -0.094559 -0.669724
1561.703125 0.739826 -0.035 -0.774826
1562.47265625 0.851611 0.029448 -0.822163
1563.25390625 1.043902 0.321763 -0.722139
1563.96875 1.678922 1.093922 -0.585
1564.83984375 1.797118 1.453694 -0.343424
1565.640625 1.1374900000000001 0.795975 -0.341515
1566.49609375 0.518247 -0.092975 -0.611222
1567.3359375 0.7116399999999999 -0.01265 -0.72429
1568.12890625 1.753019 0.844019 -0.909
1568.91796875 0.7515470000000001 0.045537 -0.70601
1569.703125 0.702392 0.053844 -0.648548
1570.5234375 0.6676880000000001 0.016028 -0.65166
1571.3359375 0.8588100000000001 -0.015874 -0.874684
1572.0859375 1.7327080000000001 1.233878 -0.49883
1573.0234375 1.680468 1.5 -0.180468
1573.8125 1.240133 0.855945 -0.384188
1574.578125 1.28605 0.457848 -0.828202
1575.3671875 0.7781889999999999 -0.06793 -0.846119
1576.1796875 0.6591659999999999 -0.121369 -0.780535
1576.9921875 0.759751 -0.05603 -0.815781
1577.8046875 0.8142889999999999 -0.130711 -0.945
1578.68359375 0.705924 -0.291171 -0.997095
1579.5 2.158169 1.725 -0.433169
1580.28125 1.770955 1.356497 -0.414458
1581.05859375 1.10804 0.801204 -0.306836
1581.859375 0.8022239999999999 -0.0029 -0.805124
1582.6640625 0.799894 -0.070106 -0.87
1583.4765625 0.775967 -5.87E-4 -0.776554
1584.3359375 0.611661 -0.079735 -0.691396
1585.17578125 0.7021120000000001 -0.062232 -0.764344
1585.97265625 0.771472 -0.030763 -0.802235
1586.73828125 1.495433 1.152231 -0.343202
1587.53515625 1.656942 1.312189 -0.344753
1588.3515625 1.175642 0.860846 -0.314796
1589.16796875 1.016585 0.236585 -0.78
1590.00390625 0.647392 -0.041014 -0.688406
1590.87109375 0.789837 -0.066893 -0.85673
1591.671875 1.100571 0.195935 -0.904636
1592.4609375 0.831392 -0.029463 -0.860855
1593.2421875 0.876994 0.033472 -0.843522
1594.04296875 1.8028170000000001 1.513136 -0.289681
1594.921875 1.014049 0.674908 -0.339141
1595.6875 0.783662 -0.108438 -0.8921
1596.55859375 0.759096 -0.105455 -0.864551
1597.3828125 0.816649 -0.15 -0.966649
1598.16015625 0.820462 -0.189899 -1.010361
1598.93359375 1.073996 -0.002493 -1.076489
1599.73828125 0.820979 -0.225181 -1.04616
1600.53125 1.989222 1.470606 -0.518616
1601.3828125 1.361976 0.887144 -0.474832
1602.21484375 0.719049 -0.067449 -0.786498
1603.0625 0.830111 -0.014875 -0.844986
1603.84375 1.639431 0.669819 -0.969612
1604.6328125 1.767957 0.748752 -1.019205
1605.4375 0.7869219999999999 -0.118056 -0.904978
1606.2265625 1.40339 0.513637 -0.889753
1607.0 1.375 1.02 -0.355
1607.84765625 1.316446 1.053765 -0.262681
1608.7265625 1.086775 0.930902 -0.155873
1609.5625 0.703828 -0.04 -0.743828
1610.36328125 0.730241 -0.085 -0.815241
1611.14453125 0.8798290000000001 -0.085015 -0.964844
1611.953125 0.788654 -0.004136 -0.79279
1612.7421875 1.1920870000000001 0.413009 -0.779078
1613.56640625 0.713575 -0.047068 -0.760643
1614.39453125 1.7048830000000001 1.159947 -0.544936
1615.25390625 1.814999 1.571681 -0.243318
1616.08984375 1.471435 1.111629 -0.359806
1616.8203125 1.430119 0.886751 -0.543368
1617.6484375 0.9021600000000001 0.022225 -0.879935
1618.4375 0.7297 -0.016406 -0.746106
1619.24609375 0.647355 -0.11066 -0.758015
1620.12890625 0.63738 -0.119618 -0.756998
1620.9609375 0.828688 0.009719 -0.818969
1621.74609375 1.412751 0.707751 -0.705
1622.46875 1.657146 1.053125 -0.604021
1623.27734375 2.186396 1.806976 -0.37942
1624.07421875 0.882521 0.832521 -0.05
1624.87109375 0.699037 0.024037 -0.675
1625.7265625 0.575801 0.018899 -0.556902
1626.58984375 0.6428159999999999 -0.098168 -0.740984
1627.3984375 0.651919 0.048025 -0.603894
1628.19140625 1.055873 0.456364 -0.599509
1628.9765625 1.556584 0.897108 -0.659476
1629.7734375 1.700622 0.984307 -0.716315
1630.51953125 1.72917 1.344294 -0.384876
1631.3515625 1.5257010000000002 1.35 -0.175701
1632.2890625 1.494551 1.21487 -0.279681
1633.05859375 0.840622 0.160622 -0.68
1633.875 0.7065330000000001 0.195 -0.511533
1634.6640625 0.587354 0.104826 -0.482528
1635.4765625 0.742292 0.126355 -0.615937
1636.25390625 1.072012 0.273262 -0.79875
1637.05859375 0.6986739999999999 0.072166 -0.626508
1637.9296875 0.69962 -0.060712 -0.760332
1638.71484375 1.6290879999999999 1.075084 -0.554004
1639.49609375 1.654718 1.131046 -0.523672
1640.38671875 1.28455 0.926038 -0.358512
1641.12890625 0.867712 0.218524 -0.649188
1641.9140625 1.064749 0.367404 -0.697345
1642.70703125 0.731987 -0.063484 -0.795471
1643.578125 0.805605 -0.114395 -0.92
1644.4140625 0.740756 -0.125106 -0.865862
1645.21484375 0.7459340000000001 -0.102138 -0.848072
1646.015625 1.3643 0.430058 -0.934242
1646.80859375 1.7750059999999999 1.424802 -0.350204
1647.6484375 1.529 1.178272 -0.350728
1648.37890625 1.5177 0.883593 -0.634107
1649.2265625 0.764381 0.116826 -0.647555
1650.08203125 0.727971 -0.023351 -0.751322
1650.90625 0.820325 -0.046932 -0.867257
1651.71484375 1.656576 0.790432 -0.866144
1652.51171875 0.837997 0.067997 -0.77
1653.30859375 1.5262630000000001 0.768076 -0.758187
1654.0859375 1.601136 1.311507 -0.289629
1654.890625 1.199659 0.880239 -0.31942
1655.76953125 0.734399 -0.05041 -0.784809
1656.58984375 0.7766029999999999 -0.068397 -0.845
1657.41796875 0.7757759999999999 -0.167247 -0.943023
1658.2109375 0.829504 -0.170281 -0.999785
1659.01171875 0.902438 -0.083724 -0.986162
1659.78125 1.640568 0.5613 -1.079268
1660.55859375 1.8539750000000002 1.384908 -0.469067
1661.453125 1.5093539999999999 1.114145 -0.395209
1662.265625 1.152651 0.627724 -0.524927
1663.0859375 0.8147880000000001 0.039788 -0.775
1663.8984375 0.704985 -0.03 -0.734985
1664.7109375 0.839566 -0.010168 -0.849734
1665.484375 0.803224 0.050543 -0.752681
1666.26171875 0.802764 0.012764 -0.79
1667.12109375 0.756305 0.00552 -0.750785
1667.94140625 1.8962240000000001 1.649118 -0.247106
1668.75390625 1.1165479999999999 0.944634 -0.171914
1669.5859375 0.78693 0.119664 -0.667266
1670.390625 0.75375 0.07875 -0.675
1671.18359375 0.894945 0.049945 -0.845
1671.9609375 0.818851 0.064838 -0.754013
1672.79296875 0.674574 -0.01441 -0.688984
1673.63671875 0.7474419999999999 0.056573 -0.690869
1674.44140625 1.5652780000000002 1.360278 -0.205
1675.2734375 1.5590959999999998 1.32411 -0.234986
1676.140625 1.328363 0.989242 -0.339121
1676.890625 1.4915440000000002 0.79307 -0.698474
1677.66015625 1.703541 0.773541 -0.93
1678.47265625 0.6457400000000001 -0.025932 -0.671672
1679.31640625 0.664044 -0.126816 -0.79086
1680.1328125 0.696504 -0.120247 -0.816751
1680.96875 0.9063169999999999 -0.046563 -0.95288
1681.78125 0.77603 0.01825 -0.75778
1682.54296875 1.6955780000000003 1.165906 -0.529672
1683.3515625 2.028522 1.707502 -0.32102
1684.1171875 1.017079 0.988997 -0.028082
1684.9765625 0.683035 0.104428 -0.578607
1685.79296875 1.303293 0.674618 -0.628675
1686.62890625 0.912584 0.048657 -0.863927
1687.45703125 0.672145 0.089637 -0.582508
1688.28125 0.6430530000000001 0.068 -0.575053
1689.0546875 0.8907799999999999 0.164198 -0.726582
1689.83203125 0.915537 0.197219 -0.718318
1690.65234375 1.653803 1.471967 -0.181836
1691.484375 2.005471 1.792323 -0.213148
1692.375 1.239894 0.955 -0.284894
1693.140625 0.705479 0.104229 -0.60125
1693.9609375 0.6926220000000001 0.100021 -0.592601
1694.75390625 0.9894069999999999 0.319598 -0.669809
1695.52734375 0.816196 0.006196 -0.81
1696.34375 0.541805 0.044961 -0.496844
1697.18359375 0.566904 -0.026479 -0.593383
1698.00390625 0.858935 0.044035 -0.8149
1698.83984375 0.827681 0.06298 -0.764701
1699.6328125 1.564551 1.251951 -0.3126
1700.4609375 1.953449 1.663032 -0.290417
1701.2265625 1.203037 0.884307 -0.31873
1702.04296875 0.6730600000000001 0.014318 -0.658742
1702.85546875 1.024305 0.345783 -0.678522
1703.671875 0.718388 0.002731 -0.715657
1704.5234375 0.7127089999999999 -0.068354 -0.781063
1705.3515625 0.678141 0.022143 -0.655998
1706.171875 0.761595 -0.017363 -0.778958
1706.9375 1.629744 0.865525 -0.764219
1707.6875 1.454408 1.131176 -0.323232
1708.5390625 1.953851 1.674393 -0.279458
1709.359375 0.92965 0.837877 -0.091773
1710.20703125 0.675775 0.023324 -0.652451
1711.0234375 0.693953 0.049736 -0.644217
1711.86328125 0.85057 -0.041771 -0.892341
1712.65234375 0.8579330000000001 -0.051696 -0.909629
1713.421875 0.811599 -0.105206 -0.916805
1714.24609375 0.778562 -0.128928 -0.90749
1715.05859375 0.794428 -0.085386 -0.879814
1715.86328125 1.8658199999999998 1.45125 -0.41457
1716.74609375 1.309962 0.884962 -0.425
1717.546875 0.723094 -0.061906 -0.785
1718.35546875 0.779803 0.029927 -0.749876
1719.11328125 1.369944 0.550421 -0.819523
1719.92578125 0.802028 -0.042825 -0.844853
1720.75 0.7839470000000001 -0.085 -0.868947
1721.55859375 0.830765 -0.009235 -0.84
1722.3828125 1.899906 1.564125 -0.335781
1723.1875 1.337594 1.01 -0.327594
1724.09375 1.135 0.75 -0.385
1724.80859375 1.659889 0.891748 -0.768141
1725.6015625 0.983755 0.180764 -0.802991
1726.40625 1.466202 0.676202 -0.79
1727.21484375 0.806507 0.025 -0.781507
1728.06640625 0.777801 0.007205 -0.770596
1728.90625 0.8159240000000001 0.01192 -0.804004
1729.7265625 1.523795 1.239333 -0.284462
1730.51171875 1.3303989999999999 1.091789 -0.23861
1731.28515625 0.999374 0.795351 -0.204023
1732.1171875 0.790682 -0.020761 -0.811443
1732.90625 1.530195 0.690195 -0.84
1733.73828125 0.8193619999999999 -0.113319 -0.932681
1734.578125 0.806785 -0.124088 -0.930873
1735.4375 0.767485 -0.104722 -0.872207
1736.21875 1.360798 0.465798 -0.895
1736.953125 1.586116 0.951116 -0.635
1737.7734375 1.419257 1.104854 -0.314403
1738.60546875 1.279631 0.849631 -0.43
1739.4140625 0.7949 -0.0851 -0.88
1740.25 0.8359359999999999 -0.055 -0.890936
1741.10546875 0.845211 -0.124729 -0.96994
1741.921875 0.7616390000000001 -0.075495 -0.837134
1742.69140625 0.745817 -0.084183 -0.83
1743.50390625 0.832086 -0.117665 -0.949751
1744.30859375 0.8913599999999999 -0.035267 -0.926627
1745.0703125 1.50505 1.128889 -0.376161
1745.91796875 1.940121 1.567113 -0.373008
1746.7578125 1.103081 0.886198 -0.216883
1747.60546875 0.719919 -8.1E-5 -0.72
1748.3671875 1.453667 0.765664 -0.688003
1749.1796875 0.630672 -0.032609 -0.663281
1749.984375 0.7600610000000001 -0.069062 -0.829123
1750.76953125 0.674623 -0.060467 -0.73509
1751.609375 0.669351 -0.093984 -0.763335
1752.4453125 0.811491 -0.092014 -0.903505
1753.2578125 1.799812 1.269812 -0.53
1754.0546875 1.682779 1.194638 -0.488141
1754.88671875 1.67068 1.391539 -0.279141
1756.453125 1.079465 0.487171 -0.592294
1757.2734375 0.560798 0.066028 -0.49477
1758.109375 0.558878 0.060357 -0.498521
1758.9765625 0.801774 0.057406 -0.744368
1759.7890625 0.7169880000000001 0.084945 -0.632043
1760.5625 0.6705869999999999 0.030125 -0.640462
1761.375 0.7551209999999999 0.095 -0.660121
1762.12890625 1.7297950000000002 1.197926 -0.531869
1762.9140625 1.439279 1.189279 -0.25
1763.8125 1.6315819999999999 1.298889 -0.332693
1764.625 1.2850000000000001 0.935 -0.35
1765.47265625 0.7919269999999999 0.119857 -0.67207
1766.2578125 0.772059 0.046309 -0.72575
1767.0703125 0.7338560000000001 0.100211 -0.633645
1767.859375 0.694323 0.074199 -0.620124
1768.640625 0.708711 0.015 -0.693711
1769.453125 1.111723 0.287153 -0.82457
1770.296875 1.567964 1.291159 -0.276805
1771.140625 2.090059 1.801387 -0.288672
1771.9375 0.986408 0.809124 -0.177284
1772.76171875 0.766562 -0.07521 -0.841772
1773.5546875 0.737567 -0.076275 -0.813842
1774.33203125 0.730797 -0.044141 -0.774938
1775.16015625 0.677207 0.036149 -0.641058
1776.0 0.8099000000000001 0.07 -0.7399
1776.859375 0.833525 0.035192 -0.798333
1777.65625 1.4072550000000001 0.517255 -0.89
1778.45703125 1.56969 1.24469 -0.325
1779.25 1.135524 0.82 -0.315524
1780.03515625 1.406046 0.694471 -0.711575
1780.8359375 0.735794 0.01111 -0.724684
1781.67578125 0.782786 0.177786 -0.605
1782.54296875 0.7086859999999999 0.092096 -0.61659
1783.359375 0.801716 0.033145 -0.768571
1784.140625 0.808956 -0.015656 -0.824612
1784.96484375 1.741192 1.39721 -0.343982
1785.74609375 1.474882 1.149942 -0.32494
1786.515625 0.97829 0.70829 -0.27
1787.3515625 0.784449 -0.064492 -0.848941
1788.2109375 0.652825 -0.163311 -0.816136
1789.046875 0.7887200000000001 -0.164923 -0.953643
1789.84375 0.788473 -0.166429 -0.954902
1790.66015625 0.859823 -0.117338 -0.977161
1791.453125 0.8194889999999999 -0.125511 -0.945
1792.21484375 1.971352 1.560192 -0.41116
1793.04296875 1.4772669999999999 1.11598 -0.361287
1793.85546875 1.438733 0.739318 -0.699415
1794.71484375 0.9973780000000001 0.088802 -0.908576
1795.52734375 1.6620460000000001 0.664047 -0.997999
1796.34765625 0.759841 -0.13668 -0.896521
1797.140625 0.8511449999999999 -0.093855 -0.945
1797.91796875 0.7904140000000001 -0.134586 -0.925
1798.7265625 0.840729 -0.104271 -0.945
1799.54296875 2.111102 1.726102 -0.385
1800.40625 1.1571639999999999 0.762705 -0.394459
1801.23828125 0.76629 -0.03371 -0.8
1802.03125 0.8502730000000001 0.052513 -0.79776
1802.8359375 1.7118120000000001 0.793851 -0.917961
1803.609375 1.5224820000000001 0.608107 -0.914375
1804.3984375 0.723216 -0.066092 -0.789308
