462186 
117 
408 
697 
985 
1287 
1581 
1886 
2190 
2492 
2797 
3098 
3395 
3708 
4012 
4319 
4640 
4948 
5266 
5575 
5899 
6212 
6530 
6844 
7150 
7463 
7754 
8052 
8344 
8643 
8959 
9273 
9584 
9905 
10214 
10536 
10845 
11157 
11468 
11774 
12087 
12392 
12706 
13029 
13333 
13654 
13968 
14281 
14590 
14903 
15214 
15525 
15838 
16150 
16460 
16777 
17083 
17395 
17691 
17998 
18297 
18594 
18906 
19209 
19516 
19819 
20134 
20446 
20749 
21064 
21352 
21662 
21962 
22273 
22585 
22902 
23225 
23533 
23849 
24164 
24480 
24788 
25105 
25411 
25714 
26029 
26342 
26651 
26964 
27271 
27574 
27872 
28185 
28487 
28794 
29107 
29416 
29727 
30029 
30342 
30643 
30946 
31248 
31543 
31848 
32145 
32454 
32759 
33065 
33382 
33686 
33991 
34300 
34605 
34922 
35232 
35543 
35850 
36151 
36463 
36761 
37067 
37370 
37660 
37967 
38267 
38573 
38877 
39182 
39491 
39795 
40091 
40392 
40689 
40985 
41299 
41608 
41938 
42254 
42575 
42890 
43208 
43529 
43843 
44165 
44473 
44791 
45091 
45400 
45706 
46003 
46302 
46606 
46899 
47199 
47498 
47804 
48101 
48404 
48712 
49004 
49308 
49612 
49914 
50227 
50523 
50833 
51129 
51438 
51745 
52046 
52357 
52662 
52971 
53281 
53583 
53885 
54181 
54479 
54785 
55075 
55376 
55675 
55965 
56262 
56553 
56848 
57142 
57436 
57741 
58039 
58344 
58644 
58953 
59253 
59556 
59861 
60160 
60457 
60758 
61052 
61353 
61652 
61959 
62268 
62574 
62891 
63194 
63508 
63815 
64119 
64435 
64739 
65052 
65356 
65674 
65986 
66303 
66611 
66927 
67234 
67538 
67849 
68143 
68449 
68750 
69053 
69356 
69653 
69955 
70252 
70550 
70858 
71165 
71474 
71791 
72099 
72415 
72714 
73017 
73323 
73620 
73926 
74224 
74529 
74840 
75144 
75454 
75754 
76062 
76365 
76667 
76970 
77276 
77577 
77886 
78185 
78490 
78787 
79091 
79393 
79688 
79990 
80288 
80587 
80887 
81189 
81500 
81797 
82099 
82397 
82691 
82988 
83291 
83586 
83888 
84184 
84487 
84787 
85087 
85391 
85686 
85992 
86282 
86577 
86872 
87165 
87468 
87763 
88070 
88370 
88665 
88965 
89264 
89561 
89865 
90166 
90466 
90765 
91058 
91360 
91651 
91948 
92242 
92533 
92834 
93130 
93437 
93743 
94043 
94348 
94639 
94938 
95228 
95525 
95827 
96125 
96435 
96739 
97051 
97362 
97660 
97966 
98280 
98585 
98900 
99202 
99514 
99828 
100129 
100446 
100752 
101058 
101354 
101653 
101955 
102252 
102557 
102860 
103173 
103483 
103801 
104114 
104421 
104731 
105040 
105337 
105640 
105939 
106247 
106559 
106865 
107186 
107489 
107803 
108110 
108417 
108731 
109036 
109343 
109658 
109961 
110266 
110568 
110867 
111174 
111468 
111775 
112072 
112378 
112688 
112984 
113292 
113592 
113900 
114203 
114508 
114811 
115103 
115407 
115704 
116006 
116306 
116606 
116904 
117199 
117491 
117798 
118095 
118400 
118707 
119013 
119317 
119623 
119932 
120223 
120523 
120820 
121112 
121417 
121716 
122023 
122319 
122630 
122929 
123221 
123522 
123821 
124132 
124435 
124748 
125056 
125353 
125651 
125943 
126240 
126532 
126828 
127128 
127429 
127736 
128042 
128346 
128648 
128963 
129269 
129584 
129897 
130215 
130531 
130846 
131160 
131463 
131772 
132078 
132388 
132690 
132998 
133300 
133597 
133897 
134200 
134490 
134788 
135077 
135371 
135664 
135956 
136258 
136549 
136853 
137154 
137448 
137751 
138050 
138356 
138652 
138962 
139263 
139554 
139858 
140158 
140468 
140770 
141081 
141382 
141692 
142000 
142305 
142611 
142918 
143227 
143533 
143835 
144141 
144442 
144744 
145045 
145345 
145638 
145937 
146234 
146526 
146820 
147118 
147414 
147715 
148012 
148323 
148623 
148932 
149245 
149553 
149863 
150163 
150470 
150776 
151086 
151402 
151704 
152017 
152325 
152644 
152952 
153262 
153568 
153866 
154171 
154475 
154775 
155083 
155387 
155693 
155995 
156302 
156610 
156907 
157214 
157512 
157813 
158115 
158418 
158729 
159023 
159335 
159633 
159931 
160238 
160544 
160853 
161153 
161464 
161778 
162075 
162380 
162686 
162985 
163292 
163597 
163905 
164216 
164512 
164811 
165089 
165376 
165654 
165933 
166219 
166503 
166797 
167080 
167383 
167683 
167983 
168288 
168588 
168895 
169192 
169501 
169802 
170105 
170407 
170711 
171012 
171305 
171609 
171900 
172202 
172497 
172811 
173113 
173423 
173735 
174033 
174342 
174649 
174953 
175257 
175560 
175870 
176168 
176475 
176780 
177082 
177386 
177689 
177996 
178296 
178598 
178906 
179207 
179520 
179821 
180133 
180429 
180733 
181030 
181326 
181632 
181924 
182222 
182516 
182802 
183090 
183364 
183633 
183897 
184151 
184403 
184648 
184888 
185127 
185356 
185599 
185816 
185969 
186222 
186465 
186705 
186950 
187196 
187442 
187696 
187953 
188212 
188481 
188758 
189041 
189333 
189628 
189937 
190242 
190553 
190855 
191165 
191460 
191766 
192071 
192367 
192660 
192941 
193228 
193488 
193757 
194026 
194286 
194558 
194826 
195108 
195400 
195694 
196006 
196310 
196624 
196932 
197252 
197556 
197878 
198184 
198504 
198811 
199129 
199438 
199749 
200062 
200374 
200688 
200999 
201316 
201623 
201937 
202246 
202556 
202861 
203165 
203471 
203762 
204062 
204351 
204644 
204934 
205225 
205526 
205816 
206121 
206419 
206728 
207027 
207332 
207633 
207940 
208252 
208556 
208868 
209167 
209481 
209780 
210096 
210402 
210718 
211023 
211325 
211631 
211926 
212229 
212534 
212831 
213135 
213434 
213740 
214041 
214343 
214644 
214939 
215235 
215531 
215827 
216123 
216419 
216716 
217010 
217311 
217609 
217907 
218208 
218504 
218801 
219087 
219384 
219678 
219986 
220290 
220597 
220908 
221207 
221515 
221815 
222123 
222433 
222736 
223047 
223342 
223654 
223955 
224259 
224566 
224860 
225170 
225472 
225783 
226089 
226388 
226692 
226981 
227278 
227566 
227864 
228154 
228458 
228760 
229055 
229359 
229667 
229970 
230277 
230572 
230871 
231170 
231470 
231778 
232072 
232375 
232669 
232972 
233276 
233580 
233879 
234185 
234497 
234791 
235095 
235390 
235692 
235991 
236285 
236589 
236881 
237182 
237476 
237777 
238079 
238374 
238681 
238978 
239276 
239576 
239867 
240168 
240462 
240766 
241066 
241368 
241680 
241985 
242296 
242602 
242909 
243220 
243527 
243842 
244142 
244450 
244752 
245057 
245359 
245654 
245956 
246248 
246548 
246855 
247149 
247459 
247754 
248061 
248359 
248658 
248958 
249250 
249557 
249852 
250158 
250458 
250759 
251064 
251356 
251661 
251956 
252258 
252558 
252861 
253164 
253458 
253763 
254064 
254360 
254665 
254961 
255265 
255570 
255876 
256182 
256480 
256794 
257087 
257387 
257678 
257980 
258283 
258582 
258888 
259164 
259434 
259699 
259962 
260225 
260486 
260750 
261021 
261298 
261587 
261896 
262210 
262531 
262858 
263169 
263480 
263794 
264122 
264433 
264750 
265062 
265378 
265689 
266005 
266322 
266625 
266936 
267232 
267533 
267827 
268121 
268418 
268701 
269011 
269312 
269618 
269934 
270233 
270545 
270850 
271168 
271486 
271792 
272110 
272430 
272743 
273068 
273372 
273682 
273990 
274311 
274623 
274943 
275259 
275573 
275887 
276200 
276507 
276816 
277121 
277431 
277732 
278041 
278343 
278650 
278948 
279249 
279556 
279849 
280147 
280447 
280752 
281052 
281363 
281666 
281965 
282269 
282561 
282857 
283160 
283458 
283756 
284046 
284350 
284657 
284964 
285283 
285586 
285899 
286200 
286516 
286823 
287140 
287458 
287764 
288078 
288380 
288686 
288983 
289292 
289595 
289892 
290192 
290491 
290792 
291090 
291395 
291701 
291998 
292310 
292617 
292924 
293230 
293529 
293834 
294131 
294428 
294728 
295018 
295328 
295625 
295936 
296235 
296549 
296863 
297164 
297478 
297779 
298085 
298388 
298691 
298999 
299292 
299606 
299904 
300217 
300524 
300831 
301135 
301436 
301739 
302032 
302332 
302640 
302938 
303241 
303539 
303843 
304140 
304432 
304734 
305031 
305326 
305633 
305927 
306232 
306522 
306830 
307135 
307435 
307746 
308046 
308357 
308660 
308973 
309282 
309588 
309901 
310196 
310504 
310803 
311112 
311412 
311710 
312011 
312305 
312604 
312908 
313207 
313508 
313801 
314102 
314399 
314694 
315002 
315297 
315604 
315905 
316214 
316511 
316818 
317127 
317434 
317756 
318059 
318372 
318673 
318984 
319292 
319595 
319902 
320199 
320506 
320811 
321120 
321432 
321738 
322049 
322351 
322658 
322971 
323271 
323574 
323885 
324194 
324498 
324809 
325112 
325416 
325725 
326020 
326324 
326621 
326926 
327231 
327527 
327835 
328129 
328425 
328723 
329011 
329315 
329613 
329917 
330229 
330529 
330836 
331135 
331438 
331739 
332044 
332348 
332645 
332949 
333253 
333556 
333861 
334158 
334459 
334750 
335052 
335350 
335647 
335949 
336242 
336536 
336826 
337123 
337426 
337717 
338024 
338316 
338621 
338919 
339232 
339540 
339837 
340138 
340431 
340734 
341034 
341328 
341629 
341926 
342225 
342525 
342820 
343126 
343427 
343732 
344042 
344343 
344647 
344942 
345251 
345550 
345861 
346170 
346475 
346785 
347081 
347391 
347682 
347988 
348287 
348589 
348892 
349190 
349493 
349787 
350092 
350389 
350682 
350982 
351273 
351579 
351875 
352186 
352493 
352792 
353098 
353397 
353699 
354004 
354303 
354608 
354907 
355212 
355517 
355817 
356124 
356419 
356714 
357012 
357308 
357613 
357901 
358211 
358506 
358810 
359114 
359417 
359719 
360013 
360323 
360623 
360924 
361231 
361529 
361835 
362133 
362437 
362739 
363034 
363336 
363636 
363934 
364238 
364533 
364828 
365119 
365413 
365715 
366002 
366307 
366599 
366898 
367194 
367498 
367804 
368101 
368406 
368700 
368996 
369292 
369593 
369892 
370181 
370488 
370780 
371084 
371388 
371690 
371991 
372292 
372593 
372891 
373185 
373489 
373783 
374081 
374383 
374675 
374970 
375257 
375557 
375854 
376153 
376456 
376750 
377047 
377335 
377632 
377929 
378219 
378521 
378812 
379110 
379398 
379704 
380003 
380295 
380601 
380899 
381201 
381506 
381801 
382106 
382402 
382710 
383009 
383307 
383608 
383905 
384202 
384502 
384803 
385101 
385392 
385698 
385995 
386295 
386593 
386892 
387188 
387478 
387785 
388083 
388380 
388681 
388977 
389270 
389574 
389872 
390185 
390478 
390788 
391085 
391392 
391694 
392001 
392307 
392605 
392909 
393200 
393498 
393798 
394093 
394385 
394678 
394978 
395272 
395572 
395874 
396172 
396471 
396767 
397064 
397353 
397649 
397947 
398242 
398541 
398840 
399137 
399434 
399727 
400033 
400324 
400627 
400921 
401222 
401515 
401821 
402124 
402421 
402727 
403024 
403326 
403618 
403918 
404222 
404523 
404835 
405129 
405431 
405721 
406026 
406331 
406627 
406934 
407227 
407530 
407827 
408127 
408426 
408716 
409014 
409298 
409596 
409891 
410198 
410489 
410780 
411066 
411347 
411628 
411909 
412192 
412476 
412767 
413067 
413373 
413676 
413988 
414296 
414604 
414907 
415213 
415515 
415809 
416115 
416414 
416714 
417026 
417326 
417633 
417926 
418231 
418528 
418832 
419140 
419436 
419741 
420036 
420343 
420645 
420943 
421247 
421538 
421841 
422141 
422443 
422742 
423041 
423343 
423634 
423933 
424234 
424532 
424833 
425132 
425433 
425736 
426035 
426343 
426638 
426945 
427240 
427538 
427837 
428133 
428435 
428725 
429031 
429324 
429620 
429918 
430210 
430509 
430795 
431096 
431390 
431680 
431981 
432276 
432577 
432880 
433175 
433478 
433770 
434068 
434377 
434672 
434978 
435275 
435573 
435871 
436165 
436468 
436762 
437062 
437363 
437652 
437955 
438251 
438554 
438858 
439159 
439459 
439751 
440047 
440348 
440647 
440956 
441260 
441570 
441873 
442175 
442482 
442774 
443073 
443378 
443675 
443980 
444272 
444577 
444867 
445167 
445468 
445754 
446054 
446349 
446656 
446958 
447261 
447566 
447859 
448163 
448462 
448769 
449071 
449378 
449686 
449983 
450286 
450588 
450888 
451187 
451485 
451784 
452080 
452381 
452687 
452978 
453286 
453579 
453878 
454172 
454469 
454772 
455064 
455363 
455656 
455945 
456239 
456529 
456829 
457118 
457421 
457719 
458009 
458303 
458597 
458894 
459191 
459482 
459778 
460068 
460361 
460660 
460950 
461250 
461550 
461853 
462159 
