3.984375 1.65744 1.11426 -0.54318
4.4375 2.282617 0.152115 -2.130502
5.23046875 1.4339439999999999 0.944916 -0.489028
5.71875 2.027901 0.116836 -1.911065
6.48046875 1.628079 1.14555 -0.482529
7.04296875 2.2937089999999998 0.118709 -2.175
7.73828125 1.4029310000000002 0.854732 -0.548199
8.2578125 2.12173 0.16 -1.96173
9.171875 1.504473 1.029473 -0.475
9.640625 2.3179489999999996 0.057949 -2.26
10.38671875 1.267544 0.620498 -0.647046
11.04296875 1.364817 0.76488 -0.599937
11.671875 1.276806 0.649075 -0.627731
12.26953125 1.48419 0.869966 -0.614224
12.91015625 1.504383 1.104506 -0.399877
13.55859375 1.356029 0.953478 -0.402551
14.265625 1.421701 0.992946 -0.428755
14.953125 1.625795 1.29857 -0.327225
15.57421875 1.521288 1.262985 -0.258303
16.171875 1.4219 1.073915 -0.347985
16.9140625 1.431483 0.919469 -0.512014
17.421875 2.3068299999999997 0.289408 -2.017422
18.19140625 1.523995 1.084836 -0.439159
18.74609375 2.179186 -0.02042 -2.199606
19.66015625 1.511904 0.856904 -0.655
20.12890625 2.2111870000000002 0.096187 -2.115
20.7109375 2.83691 2.089592 -0.747318
21.9453125 1.532804 1.073143 -0.459661
22.51171875 2.223328 0.123795 -2.099533
23.3203125 1.516009 1.183199 -0.33281
23.78515625 2.129938 0.232046 -1.897892
24.23828125 2.361797 1.678711 -0.683086
25.4765625 1.678341 1.178341 -0.5
26.03125 2.023336 0.131836 -1.8915
26.9765625 1.589712 0.909712 -0.68
27.67578125 1.6019519999999998 1.13241 -0.469542
28.328125 1.523036 1.139083 -0.383953
28.9921875 1.474267 0.88437 -0.589897
29.65234375 1.57179 0.944338 -0.627452
30.28515625 1.555457 1.120411 -0.435046
30.92578125 1.392936 0.934577 -0.458359
31.5625 1.4542030000000001 0.860714 -0.593489
32.2734375 1.58789 1.154588 -0.433302
32.94140625 1.5889540000000002 1.111633 -0.477321
33.77734375 1.459143 0.969715 -0.489428
34.30859375 2.267244 0.274545 -1.992699
35.33984375 1.5297969999999999 1.2104 -0.319397
35.921875 2.1909509999999996 0.044529 -2.146422
36.2578125 2.1422540000000003 1.242366 -0.899888
37.5625 1.51246 1.093889 -0.418571
38.109375 1.979105 0.039121 -1.939984
39.171875 1.5795919999999999 1.099592 -0.48
39.890625 1.555658 1.126217 -0.429441
40.38671875 2.221829 0.301829 -1.92
41.40234375 1.5737619999999999 1.062212 -0.51155
41.86328125 2.305278 0.254023 -2.051255
42.80859375 1.4595289999999999 0.779701 -0.679828
43.2734375 2.089193 -0.081316 -2.170509
44.25 1.5113210000000001 1.0 -0.511321
44.98828125 1.244359 0.71473 -0.529629
45.5078125 2.135296 0.418251 -1.717045
46.375 1.284541 0.83 -0.454541
46.84765625 1.915672 0.011317 -1.904355
47.6796875 1.465921 0.938832 -0.527089
48.12109375 2.486474 0.345393 -2.141081
49.07421875 1.335454 0.799447 -0.536007
49.56640625 2.045013 0.158763 -1.88625
50.55859375 1.6545860000000001 1.219726 -0.43486
51.01171875 2.449538 0.14973 -2.299808
51.9375 1.5370219999999999 0.825484 -0.711538
52.61328125 1.6202809999999999 1.143444 -0.476837
53.13671875 2.4149339999999997 0.421246 -1.993688
53.98046875 1.581172 0.864949 -0.716223
54.4609375 2.437739 1.75493 -0.682809
55.3203125 1.644411 1.269562 -0.374849
55.765625 2.297164 0.224251 -2.072913
56.75390625 1.5220760000000002 0.847041 -0.675035
57.296875 2.1353429999999998 0.129816 -2.005527
58.20703125 1.5744799999999999 1.168297 -0.406183
58.7578125 2.4951019999999997 0.245869 -2.249233
59.41796875 1.471446 0.881911 -0.589535
59.890625 2.2788820000000003 0.265 -2.013882
60.7578125 1.688355 1.156139 -0.532216
61.359375 2.214642 -0.002615 -2.217257
62.19140625 1.593419 0.989154 -0.604265
62.91015625 1.657495 1.307545 -0.34995
63.55859375 1.549714 1.169837 -0.379877
64.23046875 1.509747 0.929951 -0.579796
64.859375 1.6661359999999998 1.092425 -0.573711
65.56640625 1.532232 1.223081 -0.309151
66.2734375 1.434911 0.965311 -0.4696
66.94140625 1.634707 1.164707 -0.47
67.6171875 1.5724779999999998 1.242492 -0.329986
68.3203125 1.3389959999999999 0.975776 -0.36322
68.95703125 1.53768 0.959793 -0.577887
69.734375 1.539826 1.186616 -0.35321
70.27734375 2.339739 0.214809 -2.12493
71.19140625 1.4804110000000001 0.855857 -0.624554
71.734375 2.2932620000000004 0.133262 -2.16
72.20703125 2.419079 1.496763 -0.922316
73.30078125 1.598168 1.079571 -0.518597
73.83203125 2.225 0.325 -1.9
74.7734375 1.3898139999999999 0.865843 -0.523971
75.38671875 2.152505 -0.057404 -2.209909
76.3203125 1.630147 1.095 -0.535147
76.8984375 2.361104 0.076237 -2.284867
77.83203125 1.60942 1.105 -0.50442
78.4296875 2.563424 0.265831 -2.297593
79.33203125 1.409624 0.896307 -0.513317
79.8125 2.009643 0.129643 -1.88
80.859375 1.5800750000000001 1.107282 -0.472793
81.5078125 2.2627439999999996 -0.027188 -2.289932
82.3984375 1.681603 1.073341 -0.608262
83.046875 1.5447760000000001 1.108459 -0.436317
83.6796875 1.450774 0.932332 -0.518442
84.12890625 1.605872 0.846278 -0.759594
84.9921875 1.530278 1.12 -0.410278
85.4765625 2.3375179999999998 0.172726 -2.164792
86.46484375 1.542432 0.994374 -0.548058
86.96484375 2.3141119999999997 0.358654 -1.955458
87.8203125 1.4575399999999998 1.144742 -0.312798
88.265625 2.159945 0.035 -2.124945
89.15625 1.669175 1.019537 -0.649638
89.6484375 2.263355 0.201028 -2.062327
90.5546875 1.436709 0.978865 -0.457844
90.98046875 2.132353 -0.075015 -2.207368
91.9453125 1.619056 1.069375 -0.549681
92.6875 1.437167 1.047167 -0.39
93.4375 1.388083 0.9007 -0.487383
94.19140625 1.517683 0.963827 -0.553856
94.88671875 1.494483 1.139739 -0.354744
95.58203125 1.496266 1.156292 -0.339974
96.28125 1.447339 0.962522 -0.484817
97.0703125 1.553704 1.074781 -0.478923
97.875 1.514428 1.185 -0.329428
98.69921875 1.48896 1.172915 -0.316045
99.6796875 1.573733 1.067617 -0.506116
100.19921875 2.361312 0.30342 -2.057892
101.23828125 1.4826730000000001 1.063444 -0.419229
101.70703125 2.108051 0.16853 -1.939521
102.765625 1.5459619999999998 1.273826 -0.272136
103.23046875 2.307773 0.219856 -2.087917
104.32421875 1.666313 1.188558 -0.477755
104.93359375 2.384203 0.589945 -1.794258
105.91015625 1.478567 0.919281 -0.559286
106.40234375 2.11529 0.154525 -1.960765
107.32421875 1.586045 1.111597 -0.474448
107.89453125 2.479276 0.166148 -2.313128
108.6953125 1.593797 0.922559 -0.671238
109.18359375 2.3023290000000003 0.119286 -2.183043
109.6796875 1.7295219999999998 0.914661 -0.814861
110.546875 2.637564 1.795 -0.842564
111.671875 1.6958579999999999 1.171122 -0.524736
112.12109375 2.270964 0.271723 -1.999241
113.0234375 1.4733640000000001 0.987364 -0.486
113.54296875 2.001158 0.113424 -1.887734
114.34765625 1.614184 1.144184 -0.47
114.8359375 2.23 0.085 -2.145
115.921875 1.533835 1.064818 -0.469017
116.43359375 2.589182 0.19943 -2.389752
117.4375 1.5165890000000002 0.827647 -0.688942
118.17578125 1.660043 1.155254 -0.504789
118.6953125 2.484648 0.414648 -2.07
119.53515625 1.574688 0.854808 -0.71988
120.0 2.203993 0.205 -1.998993
120.87890625 1.7631109999999999 1.251236 -0.511875
121.39453125 1.939165 0.055 -1.884165
122.40234375 1.711207 1.127325 -0.583882
122.9140625 2.238547 0.299979 -1.938568
123.8046875 1.434395 1.152306 -0.282089
124.28125 2.124205 0.329205 -1.795
125.171875 1.794784 1.333922 -0.460862
125.62109375 2.544644 0.347435 -2.197209
126.5859375 1.3732199999999999 0.95 -0.42322
127.06640625 1.9545949999999999 0.194427 -1.760168
128.015625 1.557649 1.053027 -0.504622
128.48828125 2.727206 0.389138 -2.338068
129.46875 1.429654 0.739654 -0.69
130.1015625 1.4897749999999998 0.984775 -0.505
130.6328125 2.347125 0.516245 -1.83088
131.53515625 1.292347 0.808663 -0.483684
132.03125 2.068354 0.123711 -1.944643
132.9375 1.534962 1.045259 -0.489703
133.4140625 2.295831 -0.035046 -2.330877
134.37109375 1.4365960000000002 0.727377 -0.709219
135.3046875 1.3952680000000002 1.025411 -0.369857
136.15625 1.3191519999999999 0.839665 -0.479487
136.875 1.47649 1.02 -0.45649
137.6484375 1.492873 1.174475 -0.318398
138.4296875 1.344136 0.894464 -0.449672
139.203125 1.4449999999999998 0.95 -0.495
139.9609375 1.475924 1.156581 -0.319343
140.72265625 1.3206440000000002 1.019525 -0.301119
141.46484375 1.393363 0.965345 -0.428018
142.21484375 1.505363 1.171008 -0.334355
142.94921875 1.503039 1.198039 -0.305
143.6328125 1.384789 0.834789 -0.55
144.3203125 1.366881 0.974945 -0.391936
145.0 1.56 1.245 -0.315
145.79296875 1.335 1.0 -0.335
146.62109375 1.316233 0.862303 -0.45393
147.40234375 1.540893 1.13164 -0.409253
148.05859375 1.473853 1.109048 -0.364805
148.7265625 1.256379 0.949521 -0.306858
149.4140625 1.708863 1.219178 -0.489685
150.10546875 1.5491769999999998 1.354974 -0.194203
150.8046875 1.434472 1.069472 -0.365
151.54296875 1.50043 0.968158 -0.532272
152.2890625 1.623767 1.256569 -0.367198
152.97265625 1.470657 1.157634 -0.313023
153.69140625 1.4886860000000002 1.039033 -0.449653
154.45703125 1.581126 1.02011 -0.561016
155.12890625 1.512864 1.084114 -0.42875
155.78125 1.342327 0.872476 -0.469851
156.453125 1.509581 0.936934 -0.572647
157.14453125 1.544726 1.134937 -0.409789
157.83984375 1.232729 0.842729 -0.39
158.6015625 1.426007 0.881007 -0.545
159.37890625 1.5178310000000002 1.133285 -0.384546
160.0546875 1.464851 1.17 -0.294851
160.71875 1.3294329999999999 0.954641 -0.374792
161.37890625 1.532232 1.092232 -0.44
162.08984375 1.440923 1.152285 -0.288638
162.80078125 1.354339 1.064573 -0.289766
163.5546875 1.443775 0.978775 -0.465
164.28125 1.7165059999999999 1.2971 -0.419406
164.99609375 1.846809 1.050997 -0.795812
165.69140625 1.401591 1.018974 -0.382617
166.40234375 1.47364 0.989649 -0.483991
167.12109375 1.376614 1.047434 -0.32918
167.7890625 1.310381 0.874205 -0.436176
168.46484375 1.376513 0.853677 -0.522836
169.12109375 1.493799 1.126072 -0.367727
169.85546875 1.484628 1.12493 -0.359698
170.65625 1.3563 0.890987 -0.465313
171.40625 1.6386509999999999 0.944094 -0.694557
172.078125 1.675777 1.179367 -0.49641
172.73046875 1.574938 1.169938 -0.405
173.40234375 1.525468 1.026412 -0.499056
174.08984375 1.660571 1.037741 -0.62283
174.78125 1.592696 1.232727 -0.359969
175.50390625 1.525981 1.177182 -0.348799
176.23828125 1.483995 1.131669 -0.352326
176.7578125 1.782597 0.863478 -0.919119
177.38671875 2.809584 2.09 -0.719584
178.359375 1.4519549999999999 1.181447 -0.270508
178.83984375 2.3452319999999998 0.286692 -2.05854
179.51953125 2.70875 1.97 -0.73875
180.3828125 1.385945 1.077207 -0.308738
180.83203125 2.3618419999999998 0.282422 -2.07942
181.78515625 1.397698 0.982471 -0.415227
182.41015625 2.338257 0.088257 -2.25
183.3046875 1.34195 0.944422 -0.397528
183.90234375 2.587625 0.306898 -2.280727
184.6640625 1.344632 0.794632 -0.55
185.21875 2.44225 0.25725 -2.185
185.984375 1.6293989999999998 1.216211 -0.413188
186.6328125 2.4733519999999998 0.335425 -2.137927
187.421875 1.462847 1.128958 -0.333889
188.0546875 2.5482850000000004 0.374566 -2.173719
188.8828125 1.4184960000000002 1.013764 -0.404732
189.5078125 2.458165 0.213165 -2.245
190.31640625 1.43914 1.009276 -0.429864
190.92578125 2.62038 0.28038 -2.34
191.76953125 1.384644 0.949875 -0.434769
192.34765625 2.588235 0.223235 -2.365
193.14453125 1.349058 0.839995 -0.509063
193.71875 2.060684 0.267266 -1.793418
194.72265625 1.553379 0.869531 -0.683848
195.2578125 2.457453 0.372863 -2.08459
196.1640625 1.526341 1.129674 -0.396667
196.62109375 2.257504 0.178192 -2.079312
197.4609375 1.343631 0.983631 -0.36
198.03515625 2.399815 0.221043 -2.178772
198.82421875 1.520705 1.022846 -0.497859
199.453125 2.365 0.49 -1.875
200.30859375 1.308191 0.928366 -0.379825
200.84765625 1.987798 0.109844 -1.877954
201.703125 1.472086 0.992131 -0.479955
202.17578125 2.2088259999999997 -0.086135 -2.294961
203.12890625 1.34798 0.569649 -0.778331
203.58984375 2.119141 -0.070668 -2.189809
204.4453125 1.421994 0.959472 -0.462522
204.92578125 2.13096 0.145 -1.98596
205.8203125 1.604905 1.103247 -0.501658
206.3046875 2.394278 0.222331 -2.171947
207.21484375 1.5977910000000002 1.132791 -0.465
207.92578125 1.423598 1.103824 -0.319774
208.5703125 1.2535690000000002 0.964141 -0.289428
209.21875 1.429115 0.878382 -0.550733
209.7734375 1.544721 1.125121 -0.4196
210.515625 1.379721 1.033359 -0.346362
211.27734375 1.365391 0.844012 -0.521379
212.0390625 1.462675 0.93975 -0.522925
212.73046875 1.353157 0.949825 -0.403332
213.44921875 1.318392 0.869447 -0.448945
214.16796875 1.318837 0.846506 -0.472331
214.85546875 1.412059 0.865509 -0.54655
215.4609375 2.0955440000000003 1.170544 -0.925
216.265625 1.254143 0.725371 -0.528772
216.7421875 2.156924 0.033018 -2.123906
217.70703125 1.41471 0.89971 -0.515
218.1875 2.1504220000000003 -0.182 -2.332422
219.30078125 1.555153 0.800355 -0.754798
219.90234375 2.423034 0.163309 -2.259725
220.69921875 1.355154 0.852011 -0.503143
221.35546875 2.053038 0.138059 -1.914979
222.04296875 1.482883 1.115324 -0.367559
222.70703125 1.308625 0.94511 -0.363515
223.44140625 1.511314 1.088814 -0.4225
224.0859375 2.429957 0.3 -2.129957
224.921875 1.241059 0.830933 -0.410126
225.5625 2.44969 0.411027 -2.038663
226.27734375 1.493654 0.943654 -0.55
226.76953125 2.037188 0.0 -2.037188
227.67578125 1.56116 0.938558 -0.622602
228.1328125 2.230206 0.11639 -2.113816
228.96875 1.327687 0.694654 -0.633033
229.44140625 2.099103 0.109103 -1.99
229.90234375 1.5936919999999999 0.813067 -0.780625
231.05859375 1.449868 0.794523 -0.655345
231.50390625 2.046096 -0.058904 -2.105
232.41015625 1.668813 0.435084 -1.233729
233.08203125 1.339632 1.590003 0.250371
233.68359375 1.278327 2.379479 1.101152
234.30859375 1.495438 1.505855 0.010417
234.9921875 1.354594 0.886681 -0.467913
235.68359375 1.288288 0.29398 -0.994308
236.38671875 1.414365 0.449415 -0.96495
236.99609375 1.6701549999999998 0.638885 -1.03127
237.6328125 1.271128 0.477492 -0.793636
238.30859375 1.362168 0.927379 -0.434789
238.83984375 1.461331 0.902056 -0.559275
239.53125 1.2896329999999998 0.530727 -0.758906
240.203125 1.3939219999999999 0.748922 -0.645
240.8203125 1.465503 0.941675 -0.523828
241.46484375 1.346077 0.885238 -0.460839
242.11328125 1.2686549999999999 0.938669 -0.329986
242.61328125 1.474971 0.855 -0.619971
243.515625 1.356104 0.833206 -0.522898
243.9765625 2.105916 -0.00384 -2.109756
244.82421875 1.541483 0.84243 -0.699053
245.4375 1.5752920000000001 1.030313 -0.544979
246.03515625 1.289404 0.87358 -0.415824
246.671875 1.317687 0.958958 -0.358729
247.328125 1.4475190000000002 1.039697 -0.407822
248.01171875 1.358794 0.919386 -0.439408
248.75 1.444951 0.89 -0.554951
249.40234375 1.344156 1.102437 -0.241719
250.02734375 1.4284309999999998 1.048431 -0.38
250.63671875 1.37147 0.83647 -0.535
251.2890625 1.589804 0.959968 -0.629836
251.95703125 1.424523 0.878117 -0.546406
252.61328125 1.299791 0.756369 -0.543422
253.26171875 1.498518 0.803976 -0.694542
253.9140625 1.2954379999999999 0.634621 -0.660817
254.62109375 1.43 0.865 -0.565
255.27734375 1.3961139999999999 1.048606 -0.347508
255.9453125 1.2812379999999999 1.073832 -0.207406
256.625 1.359826 0.815 -0.544826
257.12890625 2.233783 0.242134 -1.991649
257.875 1.370938 0.83 -0.540938
258.42578125 1.313339 0.804511 -0.508828
259.13671875 1.384717 0.873946 -0.510771
259.703125 2.00778 0.08 -1.92778
260.609375 1.327278 0.768274 -0.559004
261.20703125 1.855794 0.19787 -1.657924
261.92578125 1.409824 0.870017 -0.539807
262.55078125 1.2315040000000002 0.734696 -0.496808
263.16015625 1.480586 1.001123 -0.479463
263.796875 1.374957 0.971092 -0.403865
264.43359375 1.199908 0.644708 -0.5552
264.97265625 1.989525 -0.285362 -2.274887
265.76953125 1.413776 0.674961 -0.738815
266.42578125 1.237995 0.562256 -0.675739
267.08984375 1.34464 0.853984 -0.490656
267.65234375 1.549642 0.889692 -0.65995
268.44140625 1.35 0.98 -0.37
268.90234375 2.002025 0.248665 -1.75336
269.65234375 1.623345 1.098606 -0.524739
270.25390625 1.404128 0.901803 -0.502325
270.8671875 1.345301 0.869792 -0.475509
271.484375 1.305923 0.872977 -0.432946
272.17578125 1.229155 0.732565 -0.49659
272.87109375 1.1696330000000001 0.679633 -0.49
273.53125 1.300437 0.864629 -0.435808
274.015625 2.264105 0.088672 -2.175433
274.7421875 2.497636 1.497188 -1.000448
275.34375 1.243027 0.679658 -0.563369
276.00390625 1.316578 0.84307 -0.473508
276.64453125 1.332191 0.725768 -0.606423
277.3125 1.07643 0.571667 -0.504763
277.7734375 1.502189 0.652833 -0.849356
278.5859375 1.30671 0.9 -0.40671
279.25 1.0503339999999999 0.75 -0.300334
279.85546875 1.336451 0.89486 -0.441591
280.375 2.30543 0.205 -2.10043
281.1484375 1.185683 0.813292 -0.372391
281.7109375 2.3997010000000003 0.145608 -2.254093
282.359375 1.49273 0.932925 -0.559805
282.9453125 1.343135 0.932172 -0.410963
283.56640625 1.1340810000000001 0.724823 -0.409258
284.3125 1.424658 0.855 -0.569658
284.984375 1.430801 1.084187 -0.346614
285.62890625 1.3831419999999999 0.769114 -0.614028
286.203125 1.397326 0.62 -0.777326
286.77734375 1.527682 0.834525 -0.693157
287.37109375 1.338074 0.81461 -0.523464
287.94140625 1.23287 0.529515 -0.703355
288.5546875 1.396785 0.786719 -0.610066
289.1171875 2.026607 0.14884 -1.877767
289.82421875 1.375853 0.932134 -0.443719
290.4609375 1.968634 0.042541 -1.926093
291.078125 1.43793 0.958977 -0.478953
291.7109375 1.339368 0.939921 -0.399447
292.3671875 1.253604 0.688611 -0.564993
292.96484375 1.416986 0.8228 -0.594186
293.5625 1.506015 0.940455 -0.56556
294.02734375 1.9850759999999998 0.149279 -1.835797
294.68359375 1.285468 0.654201 -0.631267
295.17578125 1.610594 1.192628 -0.417966
295.9140625 1.404387 0.864642 -0.539745
296.58984375 1.22681 0.54181 -0.685
297.265625 1.2834409999999998 0.624199 -0.659242
297.8828125 1.459798 0.889798 -0.57
298.484375 1.334764 0.84636 -0.488404
299.046875 1.318893 0.713624 -0.605269
299.63671875 1.510382 1.031223 -0.479159
300.265625 1.395782 0.945 -0.450782
300.89453125 1.2946849999999999 0.744988 -0.549697
301.4375 1.907969 0.293125 -1.614844
302.16796875 1.455165 0.895654 -0.559511
302.8203125 1.263417 0.898779 -0.364638
303.4609375 1.3962249999999998 0.77982 -0.616405
304.05078125 1.486429 0.890017 -0.596412
304.67578125 1.336384 0.798581 -0.537803
305.17578125 1.9889100000000002 -0.012409 -2.001319
305.8984375 1.466424 0.836619 -0.629805
306.4921875 1.4426 0.996715 -0.445885
307.06640625 1.4169640000000001 0.789891 -0.627073
307.66015625 2.33527 0.140467 -2.194803
308.3359375 1.273741 0.73495 -0.538791
308.8984375 2.192419 0.11252 -2.079899
309.66796875 1.532303 0.915607 -0.616696
310.28125 1.414156 0.759666 -0.65449
310.84375 1.40427 0.855 -0.54927
311.3984375 1.601933 1.077874 -0.524059
311.96484375 1.482567 0.9613 -0.521267
312.52734375 1.388208 0.784156 -0.604052
313.16015625 1.606947 0.806947 -0.8
313.75 2.277267 0.685 -1.592267
314.04296875 2.8314510000000004 1.239184 -1.592267
314.46484375 1.4550450000000001 0.906603 -0.548442
314.9765625 2.358259 0.354289 -2.00397
315.66015625 1.505332 1.239744 -0.265588
316.16796875 2.170755 0.022431 -2.148324
316.9296875 1.8386939999999998 0.785 -1.053694
317.4296875 2.593009 0.733083 -1.859926
318.1171875 1.83545 1.1148 -0.72065
318.66796875 1.557164 0.568837 -0.988327
319.25390625 1.419876 0.434859 -0.985017
319.81640625 2.0667020000000003 -0.035112 -2.101814
320.0546875 3.196974 1.09516 -2.101814
320.4921875 1.678697 0.873151 -0.805546
321.1484375 1.470996 0.718431 -0.752565
321.77734375 1.637175 0.719012 -0.918163
322.296875 2.395139 0.258504 -2.136635
322.953125 1.6155119999999998 1.029467 -0.586045
323.5234375 2.490693 0.260693 -2.23
324.0625 1.6177139999999999 0.792714 -0.825
324.578125 2.243859 0.188859 -2.055
325.33984375 1.603624 1.033624 -0.57
325.83203125 2.3991089999999997 0.117844 -2.281265
326.61328125 1.6206610000000001 0.816903 -0.803758
327.2421875 1.7036470000000001 1.068022 -0.635625
327.828125 1.659914 1.159914 -0.5
328.328125 2.226085 0.256085 -1.97
329.015625 1.589009 0.884126 -0.704883
329.4765625 1.971627 0.007369 -1.964258
330.23046875 1.704941 1.154941 -0.55
330.828125 1.4687640000000002 0.903483 -0.565281
331.4609375 1.652625 0.989632 -0.662993
332.05078125 1.7142469999999999 1.055067 -0.65918
332.73828125 1.741268 1.16843 -0.572838
333.34375 2.247625 0.384531 -1.863094
334.0390625 1.6448909999999999 1.184945 -0.459946
334.65234375 2.461979 0.391425 -2.070554
335.20703125 1.528786 1.123828 -0.404958
335.7734375 1.387506 0.947506 -0.44
336.38671875 1.5781830000000001 0.973532 -0.604651
336.86328125 2.307228 0.340591 -1.966637
337.6328125 1.44359 0.938645 -0.504945
338.14453125 2.2786820000000003 0.024995 -2.253687
338.359375 2.633944 0.380257 -2.253687
339.0078125 1.6963329999999999 1.06652 -0.629813
339.63671875 1.5579679999999998 1.1136 -0.444368
340.234375 1.491904 0.685586 -0.806318
340.828125 1.5178530000000001 0.917853 -0.6
341.51171875 1.61027 1.08027 -0.53
341.984375 2.26235 0.348481 -1.913869
342.75390625 1.606271 0.811498 -0.794773
343.37109375 1.6599490000000001 1.155 -0.504949
343.99609375 1.501991 1.077136 -0.424855
344.66015625 1.399969 0.756507 -0.643462
345.34375 1.542221 0.929094 -0.613127
345.91015625 2.031806 0.137661 -1.894145
346.6328125 1.5713759999999999 0.616422 -0.954954
347.12109375 2.252292 0.391284 -1.861008
347.84375 1.692383 1.222383 -0.47
348.453125 1.5959180000000002 1.028237 -0.567681
349.125 1.485833 0.985 -0.500833
349.79296875 1.7291820000000002 1.1463 -0.582882
350.46484375 1.677225 1.297792 -0.379433
351.140625 1.393175 0.848481 -0.544694
351.78515625 1.8622319999999999 1.270849 -0.591383
352.3828125 2.2450229999999998 1.452682 -0.792341
353.0 1.541272 1.14 -0.401272
353.5 2.1486 0.28 -1.8686
354.28515625 1.762202 1.270119 -0.492083
354.78125 2.199907 0.4539 -1.746007
355.578125 1.6139160000000001 0.950955 -0.662961
356.08203125 1.850061 0.277927 -1.572134
356.91796875 1.644368 1.105464 -0.538904
357.61328125 1.487774 1.102856 -0.384918
358.28515625 1.82312 1.375806 -0.447314
358.9296875 1.6902050000000002 1.115844 -0.574361
359.49609375 1.491598 1.066743 -0.424855
360.1015625 1.313311 0.888311 -0.425
360.75390625 1.743061 1.107276 -0.635785
361.359375 1.672162 1.248859 -0.423303
362.05859375 1.474145 1.049145 -0.425
362.734375 1.7291120000000002 1.155801 -0.573311
363.453125 1.642835 1.173828 -0.469007
363.96875 2.162038 0.276953 -1.885085
364.68359375 1.403443 0.893443 -0.51
365.13671875 1.947836 0.093802 -1.854034
365.984375 1.587902 1.113594 -0.474308
366.63671875 1.452434 0.936938 -0.515496
367.32421875 1.4667430000000001 0.77732 -0.689423
367.96875 1.5662500000000001 1.14125 -0.425
368.625 1.5395180000000002 1.205 -0.334518
369.25 1.408606 1.07 -0.338606
369.71484375 1.397329 0.927329 -0.47
370.61328125 1.5686149999999999 1.188615 -0.38
371.11328125 2.1185959999999997 0.116491 -2.002105
371.88671875 1.39752 0.840447 -0.557073
372.53515625 1.53714 1.030106 -0.507034
373.16015625 1.467501 1.050834 -0.416667
373.88671875 1.337953 0.857953 -0.48
374.6796875 1.4467750000000001 1.048288 -0.398487
375.375 1.415842 1.08 -0.335842
376.0078125 1.3669509999999998 1.072763 -0.294188
376.62109375 1.439781 0.947803 -0.491978
377.28125 1.581057 1.1265 -0.454557
377.875 1.5200040000000001 1.215 -0.305004
378.53515625 1.398677 0.988677 -0.41
379.2265625 1.549066 0.93 -0.619066
379.89453125 1.5294379999999999 0.69 -0.839438
380.59765625 1.4748679999999998 0.844868 -0.63
381.23828125 1.6108920000000002 1.0296 -0.581292
381.890625 1.551411 1.304275 -0.247136
382.5703125 1.402744 1.098971 -0.303773
383.1953125 1.354545 1.08488 -0.269665
383.81640625 1.4013030000000002 1.054396 -0.346907
384.4296875 1.353479 0.925 -0.428479
385.07421875 1.484009 1.109561 -0.374448
385.75 1.281317 0.97 -0.311317
386.453125 1.298111 0.694912 -0.603199
387.171875 1.514459 0.944654 -0.569805
387.8828125 1.581812 1.08735 -0.494462
388.5546875 1.305019 0.888921 -0.416098
389.18359375 1.6676870000000001 1.01913 -0.648557
389.8125 1.5778439999999998 1.149336 -0.428508
390.515625 1.490878 1.068317 -0.422561
391.12109375 1.436544 1.021544 -0.415
391.8984375 1.320344 1.000696 -0.319648
392.33984375 1.362082 0.755 -0.607082
393.25390625 1.536573 1.103148 -0.433425
393.78125 2.244363 0.345718 -1.898645
394.5703125 1.300752 0.922167 -0.378585
395.16015625 2.213438 0.064952 -2.148486
395.9296875 1.5162849999999999 1.079502 -0.436783
396.45703125 2.082377 0.160654 -1.921723
397.13671875 1.240086 0.794428 -0.445658
397.625 1.9864220000000001 0.235 -1.751422
398.98828125 1.3933259999999998 1.148359 -0.244967
399.5234375 1.336668 0.420903 -0.915765
399.96875 1.33 0.78 -0.55
401.13671875 1.5868959999999999 1.132715 -0.454181
401.6484375 1.37695 0.458177 -0.918773
402.57421875 1.738586 1.188591 -0.549995
403.34375 1.5167190000000002 1.186719 -0.33
404.12109375 1.475049 0.928393 -0.546656
404.88671875 1.625072 1.051865 -0.573207
405.58984375 1.695604 1.273782 -0.421822
406.30078125 1.475432 1.089577 -0.385855
406.78125 1.62479 0.839658 -0.785132
407.66015625 1.70374 1.292073 -0.411667
408.25390625 2.246652 0.252298 -1.994354
408.93359375 1.452257 0.930853 -0.521404
409.40234375 2.090566 0.305566 -1.785
410.3125 1.614141 1.172391 -0.44175
410.84375 2.045859 0.064594 -1.981265
411.71875 1.560072 1.110072 -0.45
412.43359375 1.529992 1.129436 -0.400556
413.0859375 1.6394989999999998 0.959768 -0.679731
413.69921875 1.8660389999999998 1.202376 -0.663663
414.32421875 2.169944 1.399955 -0.769989
415.0234375 1.6865109999999999 1.442707 -0.243804
415.6875 1.49207 1.297262 -0.194808
416.39453125 1.375358 0.979994 -0.395364
417.0234375 1.4506670000000002 1.054086 -0.396581
417.703125 1.5446680000000002 1.224714 -0.319954
418.3671875 1.4800939999999998 1.154567 -0.325527
419.02734375 1.369862 0.844862 -0.525
419.71484375 1.88015 1.216267 -0.663883
420.40234375 1.4647569999999999 1.022733 -0.442024
421.09765625 1.3126600000000002 0.94266 -0.37
421.79296875 1.404679 0.889679 -0.515
422.546875 1.4832519999999998 1.103589 -0.379663
423.3359375 1.3899489999999999 1.034949 -0.355
424.0625 1.360843 0.850446 -0.510397
424.78515625 1.589856 1.06503 -0.524826
425.421875 1.5876139999999999 1.169492 -0.418122
425.9453125 1.84642 1.447551 -0.398869
426.70703125 1.601674 1.187158 -0.414516
427.25 2.411085 0.47 -1.941085
428.50390625 1.580944 1.202303 -0.378641
429.01171875 2.030624 0.151642 -1.878982
430.00390625 1.720749 1.125749 -0.595
430.55078125 2.3083549999999997 0.579583 -1.728772
431.4296875 1.403755 0.983755 -0.42
431.921875 2.034353 0.269578 -1.764775
432.84375 1.668112 1.290896 -0.377216
433.28515625 2.259101 0.212941 -2.04616
434.21484375 1.4954960000000002 0.949594 -0.545902
434.73828125 2.104604 0.258229 -1.846375
435.6640625 1.516873 1.166873 -0.35
436.125 2.17346 0.11 -2.06346
437.01171875 1.5835430000000001 1.10864 -0.474903
437.49609375 2.525181 0.55786 -1.967321
438.2734375 1.5425529999999998 1.241455 -0.301098
438.73046875 2.294921 0.154994 -2.139927
439.70703125 1.662865 1.177304 -0.485561
440.22265625 2.330391 0.402618 -1.927773
441.1484375 1.590662 1.255256 -0.335406
441.73046875 2.21982 0.157601 -2.062219
442.41796875 1.650533 1.166754 -0.483779
442.89453125 2.254984 0.339984 -1.915
443.76171875 1.5539740000000002 1.240447 -0.313527
444.23046875 2.223059 1.744877 -0.478182
445.14453125 1.656865 1.209954 -0.446911
445.875 1.577325 1.2 -0.377325
446.4453125 1.390663 0.921859 -0.468804
446.9921875 2.2637340000000004 1.638945 -0.624789
448.28125 1.598916 1.261016 -0.3379
448.7421875 2.478201 0.223287 -2.254914
449.73046875 1.51893 1.049988 -0.468942
450.4453125 1.504141 1.204851 -0.29929
451.16015625 1.5013370000000001 1.1564 -0.344937
451.91796875 1.612226 1.055 -0.557226
452.6953125 1.589445 1.164451 -0.424994
453.43359375 1.469976 1.175 -0.294976
454.1328125 1.355631 0.949028 -0.406603
454.78125 1.602392 1.107928 -0.494464
455.34375 1.698229 1.005 -0.693229
456.171875 1.507221 1.102949 -0.404272
456.65625 2.121232 0.097656 -2.023576
457.58984375 1.5690520000000001 1.051026 -0.518026
458.19140625 2.279798 0.116429 -2.163369
459.015625 1.45672 0.966818 -0.489902
459.5 2.264894 0.295 -1.969894
460.421875 1.47798 1.026918 -0.451062
460.8828125 2.198616 0.008616 -2.19
461.7890625 1.868977 1.319574 -0.549403
462.46875 1.508985 1.065831 -0.443154
463.140625 1.684832 0.935 -0.749832
463.89453125 1.7044839999999999 1.004973 -0.699511
464.68359375 1.5288590000000002 0.864577 -0.664282
465.43359375 1.835187 0.949627 -0.88556
465.9609375 2.861852 1.900468 -0.961384
466.75390625 1.784195 1.147373 -0.636822
467.25390625 2.3399530000000004 0.325 -2.014953
468.0546875 1.7206290000000002 1.248293 -0.472336
468.5390625 2.480521 0.251074 -2.229447
469.46875 1.4878909999999999 1.057891 -0.43
470.08203125 2.417141 0.047297 -2.369844
470.515625 1.604361 0.675529 -0.928832
471.47265625 1.202769 0.619481 -0.583288
471.9765625 2.290557 1.565557 -0.725
472.98828125 1.640397 1.079772 -0.560625
473.69140625 1.546392 0.940851 -0.605541
474.3203125 1.3789150000000001 0.739234 -0.639681
475.00390625 1.51854 0.746936 -0.771604
475.7421875 1.600536 1.005626 -0.59491
476.48046875 1.4993660000000002 0.989994 -0.509372
477.26171875 1.41202 0.861998 -0.550022
477.93359375 1.532898 0.893109 -0.639789
478.73046875 1.568943 1.139875 -0.429068
479.3125 2.478853 0.185 -2.293853
480.16015625 1.529821 0.879366 -0.650455
480.6875 2.131666 0.067 -2.064666
481.765625 1.701282 1.235386 -0.465896
482.296875 2.220474 -0.03541 -2.255884
483.421875 2.184173 1.333159 -0.851014
483.91015625 2.251665 0.029312 -2.222353
484.99609375 1.639664 1.175 -0.464664
485.484375 2.3297290000000004 0.290179 -2.03955
486.53125 1.66574 1.051346 -0.614394
487.0703125 2.466042 0.536792 -1.92925
488.0546875 1.639503 1.213921 -0.425582
488.62109375 2.06786 -0.00714 -2.075
489.7265625 1.6767379999999998 1.306738 -0.37
490.484375 1.4119160000000002 1.185 -0.226916
491.109375 1.478818 1.058095 -0.420723
491.76171875 1.827185 1.40843 -0.418755
492.42578125 1.697578 1.29 -0.407578
493.09375 1.5682939999999999 1.033281 -0.535013
493.8203125 1.685773 1.069456 -0.616317
494.57421875 1.608506 1.223506 -0.385
495.1640625 2.457591 0.494343 -1.963248
495.90625 1.7694999999999999 1.229674 -0.539826
496.56640625 1.8783720000000002 1.509184 -0.369188
497.12890625 2.719477 0.71961 -1.999867
497.94140625 1.5250400000000002 1.019838 -0.505202
498.60546875 1.710293 1.230293 -0.48
499.28125 1.648229 1.20345 -0.444779
499.82421875 2.410088 0.205088 -2.205
500.71484375 1.604685 0.91281 -0.691875
501.2109375 2.2699499999999997 0.13495 -2.135
502.1328125 1.574239 1.036587 -0.537652
502.6484375 2.085968 0.081968 -2.004
503.5 1.749849 1.115 -0.634849
504.0546875 2.586537 0.268494 -2.318043
504.78125 1.425 0.915 -0.51
505.3125 2.081235 0.166786 -1.914449
506.3125 1.6207440000000002 1.165588 -0.455156
506.9765625 2.549775 0.228549 -2.321226
507.7421875 1.666839 0.976875 -0.689964
508.4296875 1.587568 1.075919 -0.511649
508.9140625 2.373672 0.409766 -1.963906
509.74609375 1.589559 1.024559 -0.565
510.2421875 2.388818 0.304506 -2.084312
511.12890625 1.613076 1.044179 -0.568897
511.6484375 2.040493 0.116826 -1.923667
512.56640625 1.799315 1.004694 -0.794621
513.1015625 2.139729 0.172727 -1.967002
514.03125 1.7003629999999998 0.976389 -0.723974
514.6328125 2.1389460000000002 0.064071 -2.074875
515.28125 1.429006 1.033333 -0.395673
515.94140625 1.277117 0.963691 -0.313426
516.59765625 1.457584 1.086361 -0.371223
517.2578125 1.42534 1.102578 -0.322762
518.0 1.303711 0.985 -0.318711
518.80859375 1.663288 1.21 -0.453288
519.40234375 1.5245330000000001 1.225 -0.299533
520.21484375 1.5147279999999999 1.300439 -0.214289
520.66796875 2.687169 2.032861 -0.654308
521.7421875 1.720141 1.273163 -0.446978
522.359375 2.746669 0.236704 -2.509965
523.2421875 1.488166 0.808231 -0.679935
523.69921875 2.226691 -0.063309 -2.29
524.66796875 1.5874830000000002 1.102483 -0.485
525.640625 1.498107 0.925386 -0.572721
526.44921875 1.623982 1.09911 -0.524872
527.2578125 1.5758390000000002 1.12664 -0.449199
528.00390625 1.382177 0.879109 -0.503068
528.71875 1.674305 1.119079 -0.555226
529.50390625 1.5187929999999998 1.103638 -0.415155
530.39453125 1.452362 1.014955 -0.437407
531.21484375 1.592573 1.050969 -0.541604
531.9609375 1.6006300000000002 1.139385 -0.461245
532.703125 1.5376880000000002 0.962708 -0.57498
533.44140625 1.598775 1.024065 -0.57471
534.16796875 1.60575 1.241394 -0.364356
534.91015625 1.392962 0.909188 -0.483774
535.703125 1.849053 1.257803 -0.59125
536.4609375 1.630564 1.301556 -0.329008
537.171875 1.458342 1.069813 -0.388529
537.90234375 1.458465 0.868897 -0.589568
538.671875 1.5977409999999999 1.108882 -0.488859
539.36328125 1.5503500000000001 1.151121 -0.399229
540.0546875 1.4792800000000002 0.929478 -0.549802
540.7265625 1.6024340000000001 1.052434 -0.55
541.44140625 1.568997 1.184951 -0.384046
542.1640625 1.424687 1.034951 -0.389736
542.96875 1.555669 1.015669 -0.54
543.76171875 1.679628 1.234737 -0.444891
544.44921875 1.573523 1.211856 -0.361667
545.12890625 1.60324 1.159136 -0.444104
545.796875 1.9115410000000002 1.354915 -0.556626
546.546875 1.7447499999999998 1.104272 -0.640478
547.30078125 1.774815 1.166271 -0.608544
548.0625 1.966801 1.38625 -0.580551
548.7421875 1.605416 1.259811 -0.345605
549.4296875 1.566771 1.18 -0.386771
550.125 1.55 1.12 -0.43
550.8046875 1.4137 0.934422 -0.479278
551.4921875 1.279118 0.779169 -0.499949
552.20703125 1.6068609999999999 1.052662 -0.554199
552.88671875 1.462136 0.989335 -0.472801
553.58203125 1.583166 1.086719 -0.496447
554.3515625 1.367415 1.067506 -0.299909
555.19140625 1.353537 1.02 -0.333537
555.91796875 1.358077 0.973824 -0.384253
556.62109375 1.292678 0.727738 -0.56494
557.29296875 1.599405 1.074628 -0.524777
557.95703125 1.5525129999999998 1.119622 -0.432891
558.60546875 1.4903739999999999 1.079891 -0.410483
559.33203125 1.4284 0.994672 -0.433728
560.14453125 1.5195340000000002 0.914981 -0.604553
560.88671875 1.563254 1.063254 -0.5
561.61328125 1.591145 1.096145 -0.495
562.328125 1.396123 0.822609 -0.573514
563.78125 1.713225 1.257821 -0.455404
564.26171875 2.286644 0.064707 -2.221937
565.171875 1.664351 1.038915 -0.625436
565.6953125 2.3228109999999997 0.518605 -1.804206
566.6171875 1.488099 1.020046 -0.468053
567.14453125 2.35 0.085 -2.265
568.1015625 1.6261960000000002 1.091717 -0.534479
568.68359375 2.291302 0.509766 -1.781536
569.4765625 1.535585 0.955585 -0.58
569.92578125 2.254684 0.37 -1.884684
570.7734375 1.604177 1.166968 -0.437209
571.3125 2.4149499999999997 0.17 -2.24495
572.265625 1.681284 1.006084 -0.6752
572.8125 2.31718 0.205227 -2.111953
573.6484375 1.598913 1.149391 -0.449522
574.12109375 2.056455 0.067043 -1.989412
574.9375 1.6016879999999998 1.024158 -0.57753
575.41796875 2.277591 0.113707 -2.163884
576.26953125 1.496916 1.084987 -0.411929
576.77734375 2.185989 0.13951 -2.046479
577.46484375 2.719596 2.0078 -0.711796
578.32421875 1.671586 1.189491 -0.482095
578.8828125 2.5583780000000003 0.384463 -2.173915
579.80859375 1.4440279999999999 0.774891 -0.669137
580.41796875 2.159984 0.028738 -2.131246
581.1484375 1.620545 1.131587 -0.488958
581.59375 2.265877 0.190833 -2.075044
582.375 1.439994 0.84 -0.599994
582.9765625 2.401698 0.287363 -2.114335
583.78515625 1.456214 1.077748 -0.378466
584.3203125 2.027039 0.002144 -2.024895
585.2890625 1.629407 1.106074 -0.523333
585.890625 2.386524 0.127168 -2.259356
586.59765625 1.3961890000000001 0.907497 -0.488692
587.0703125 2.089888 0.192502 -1.897386
587.96484375 1.600647 1.127924 -0.472723
588.5703125 2.515852 0.214052 -2.3018
589.37890625 1.476257 0.876117 -0.60014
589.96484375 2.243895 0.368895 -1.875
590.72265625 1.38253 0.973551 -0.408979
591.25390625 2.390174 0.229302 -2.160872
592.234375 1.3599519999999998 0.879307 -0.480645
592.703125 2.2540810000000002 0.029081 -2.225
593.65625 1.471597 0.8471 -0.624497
594.265625 2.062269 -0.05824 -2.120509
594.98828125 1.337806 1.063711 -0.274095
595.515625 1.938223 0.158347 -1.779876
596.61328125 1.543605 1.087046 -0.456559
597.25 2.163668 0.49 -1.673668
598.125 1.585222 0.93 -0.655222
598.60546875 2.596381 0.499926 -2.096455
599.46484375 1.48396 1.143575 -0.340385
600.02734375 2.569598 0.320911 -2.248687
600.8359375 1.656189 1.00475 -0.651439
601.52734375 2.340375 0.550884 -1.789491
602.25 2.122859 1.73 -0.392859
603.12109375 1.5166140000000001 0.945513 -0.571101
603.578125 1.493878 0.653991 -0.839887
604.0625 1.5541710000000002 1.08 -0.474171
605.265625 1.6384980000000002 1.135134 -0.503364
605.78515625 1.714702 0.055202 -1.6595
606.61328125 1.83734 1.073629 -0.763711
607.3046875 1.5532910000000002 0.885862 -0.667429
608.0078125 2.05016 1.490521 -0.559639
608.7734375 1.615789 1.260789 -0.355
609.3359375 2.139837 0.429837 -1.71
610.2265625 1.650807 1.126623 -0.524184
610.69921875 2.219328 0.244036 -1.975292
610.9609375 3.1932840000000002 1.217992 -1.975292
611.5859375 0.521227 -0.008244 -0.529471
612.06640625 2.6369939999999996 0.370776 -2.266218
612.8828125 1.514745 1.212184 -0.302561
613.546875 2.631363 0.481079 -2.150284
614.37890625 1.429834 0.956188 -0.473646
614.8671875 2.186357 0.209028 -1.977329
615.734375 1.5230000000000001 1.03 -0.493
616.22265625 2.344512 0.02955 -2.314962
617.0859375 1.6647249999999998 1.179725 -0.485
617.76171875 1.743652 1.268804 -0.474848
618.44140625 1.474096 0.984757 -0.489339
619.08203125 1.472413 0.89818 -0.574233
619.80859375 1.635329 1.169033 -0.466296
620.5 1.5376629999999998 1.14 -0.397663
621.2578125 1.3813659999999999 0.866622 -0.514744
621.9765625 1.493719 1.068719 -0.425
622.65625 1.337728 0.905605 -0.432123
623.27734375 1.592524 0.748585 -0.843939
623.9375 1.866348 1.178686 -0.687662
624.5859375 1.449209 0.96 -0.489209
625.29296875 1.248662 0.745782 -0.50288
626.0625 1.564448 0.99 -0.574448
626.8359375 1.457275 1.034502 -0.422773
627.484375 1.361211 0.975954 -0.385257
628.22265625 1.4487320000000001 0.773732 -0.675
628.71875 2.4146080000000003 0.167047 -2.247561
629.66796875 1.6111849999999999 0.943053 -0.668132
630.25390625 2.271405 0.059536 -2.211869
630.6015625 2.2967079999999997 1.68896 -0.607748
631.09765625 1.673176 1.018176 -0.655
632.26953125 1.5276709999999998 0.484822 -1.042849
632.86328125 2.518684 0.593712 -1.924972
633.984375 1.391459 0.565443 -0.826016
634.515625 1.232457 0.49125 -0.741207
635.3984375 1.169192 0.897564 -0.271628
636.046875 1.233073 0.778516 -0.454557
636.6875 1.283376 1.161364 -0.122012
637.40234375 1.309947 1.24 -0.069947
638.1640625 1.204644 1.030569 -0.174075
638.91796875 1.4321700000000002 1.057592 -0.374578
639.5703125 1.448294 1.049226 -0.399068
640.2265625 1.3845649999999998 0.789565 -0.595
640.890625 1.512897 0.977946 -0.534951
641.49609375 2.218882 0.217453 -2.001429
642.140625 1.267644 0.48291 -0.784734
642.63671875 2.222561 -0.472439 -2.695
643.515625 1.5852210000000002 0.697212 -0.888009
644.09375 2.1913889999999996 -0.193611 -2.385
644.87890625 1.563154 0.847083 -0.716071
645.4375 2.2096810000000002 0.21 -1.999681
646.265625 1.5099660000000001 1.103317 -0.406649
646.91796875 1.504399 1.043501 -0.460898
647.56640625 1.624109 1.153014 -0.471095
648.05859375 2.109599 0.159599 -1.95
648.76171875 1.4893399999999999 0.972671 -0.516669
649.39453125 2.249313 0.232046 -2.017267
650.09375 1.4357190000000002 0.900719 -0.535
650.61328125 2.274686 0.154686 -2.12
651.19921875 1.454543 0.874543 -0.58
652.1640625 1.619521 1.13982 -0.479701
652.6875 2.095692 0.319375 -1.776317
653.38671875 1.532629 1.004719 -0.52791
654.0234375 1.468877 1.038331 -0.430546
654.71484375 1.353337 0.789421 -0.563916
655.265625 1.9410910000000001 0.295257 -1.645834
656.09765625 1.4844789999999999 1.004479 -0.48
656.55859375 2.314915 0.124642 -2.190273
657.39453125 1.574048 0.834352 -0.739696
658.0390625 1.473339 1.109672 -0.363667
658.671875 1.496952 1.104678 -0.392274
659.15625 1.909983 -0.025 -1.934983
659.9609375 1.5755860000000002 1.040566 -0.53502
660.45703125 2.227029 0.298318 -1.928711
661.171875 1.305208 0.832896 -0.472312
661.82421875 1.443166 0.944921 -0.498245
662.54296875 1.464978 0.89 -0.574978
663.078125 2.3097070000000004 0.025933 -2.283774
663.609375 1.432172 0.685 -0.747172
664.53515625 1.6035359999999999 1.149212 -0.454324
665.15625 1.28483 0.892333 -0.392497
665.75390625 1.4644659999999998 0.837034 -0.627432
666.2265625 2.066087 0.290359 -1.775728
667.0 1.3691659999999999 0.745 -0.624166
667.515625 2.24144 0.025 -2.21644
668.37109375 1.4973519999999998 0.927441 -0.569911
669.046875 1.510087 0.944551 -0.565536
669.6640625 1.474821 0.759321 -0.7155
670.14453125 2.269797 0.144925 -2.124872
670.94140625 1.527653 0.819948 -0.707705
671.58984375 1.328117 0.71972 -0.608397
672.17578125 1.45408 0.822963 -0.631117
672.640625 2.2766409999999997 0.096761 -2.17988
673.43359375 1.329543 0.834656 -0.494887
674.125 1.348641 0.845 -0.503641
674.77734375 1.548589 1.079046 -0.469543
675.31640625 2.274711 0.294726 -1.979985
676.11328125 1.358214 1.00322 -0.354994
676.70703125 2.470695 0.416275 -2.05442
677.36328125 1.543508 1.058794 -0.484714
677.9375 1.539863 0.96 -0.579863
678.55078125 1.389845 0.86007 -0.529775
679.078125 2.2329280000000002 0.074895 -2.158033
679.94140625 1.45201 0.829436 -0.622574
680.47265625 2.3548590000000003 0.134859 -2.22
681.28125 1.456508 0.972094 -0.484414
681.9140625 1.384876 0.969978 -0.414898
682.5546875 1.475762 0.848991 -0.626771
683.0078125 2.1587199999999998 0.144567 -2.014153
683.703125 1.4660630000000001 1.081126 -0.384937
684.18359375 2.34 0.175 -2.165
685.01953125 1.43957 0.944916 -0.494654
685.70703125 1.438643 0.938707 -0.499936
686.3359375 1.439627 1.064895 -0.374732
686.89453125 2.058082 0.14 -1.918082
687.73828125 1.526872 0.897409 -0.629463
688.36328125 2.0946759999999998 -0.010107 -2.104783
689.01171875 1.612122 1.187129 -0.424993
689.578125 1.66093 1.064256 -0.596674
690.1484375 1.361803 0.593331 -0.768472
690.66015625 2.075656 0.093375 -1.982281
691.3984375 1.382542 0.838971 -0.543571
691.92578125 2.236081 0.082296 -2.153785
692.8125 1.284948 0.8855 -0.399448
693.46875 1.379734 0.870818 -0.508916
694.08984375 1.434858 1.135424 -0.299434
694.6796875 1.3409209999999998 1.011132 -0.329789
695.296875 1.431501 0.974447 -0.457054
695.953125 1.501105 0.856076 -0.645029
696.5703125 1.563637 1.118775 -0.444862
697.16015625 1.309212 0.849212 -0.46
697.83984375 1.459463 0.911123 -0.54834
698.36328125 2.210925 0.097246 -2.113679
699.18359375 1.460374 0.964891 -0.495483
699.62890625 1.9552589999999999 -0.053735 -2.008994
700.4140625 1.583123 1.06327 -0.519853
701.078125 1.308068 0.964914 -0.343154
701.6875 1.337399 0.877548 -0.459851
702.30859375 1.578526 1.069374 -0.509152
702.87890625 1.376177 1.064513 -0.311664
703.515625 1.193253 0.8929 -0.300353
704.1796875 1.4123080000000001 0.987523 -0.424785
704.96484375 1.4244590000000001 1.07 -0.354459
705.640625 1.385249 1.046518 -0.338731
706.25390625 1.3368280000000001 0.897136 -0.439692
706.859375 1.5127540000000002 1.01354 -0.499214
707.46484375 1.319339 0.779339 -0.54
707.98046875 1.207999 0.894866 -0.313133
708.69140625 1.540065 1.069888 -0.470177
709.28515625 2.130203 0.145 -1.985203
710.08203125 1.245466 0.868785 -0.376681
710.58984375 1.9712819999999998 -0.07 -2.041282
711.375 1.449364 0.96 -0.489364
712.02734375 1.7279740000000001 0.213208 -1.514766
712.7109375 1.304105 0.92 -0.384105
713.37890625 1.196042 0.847828 -0.348214
714.03125 1.3382809999999998 1.033281 -0.305
714.515625 2.165415 0.438008 -1.727407
715.26171875 1.333057 0.973691 -0.359366
715.75 2.062106 -0.06 -2.122106
716.59375 1.122391 0.862391 -0.26
717.203125 1.504837 0.189912 -1.314925
718.03125 1.4225379999999999 0.974205 -0.448333
718.6640625 1.222686 0.84472 -0.377966
719.2890625 1.209743 0.904857 -0.304886
719.86328125 2.084577 0.299613 -1.784964
720.5234375 1.461759 1.107218 -0.354541
721.0390625 2.3978289999999998 0.184094 -2.213735
721.96875 1.256147 0.94207 -0.314077
722.72265625 1.252754 0.983474 -0.26928
723.37109375 1.157404 0.873285 -0.284119
723.96484375 1.360281 0.96072 -0.399561
724.6640625 1.324382 0.974718 -0.349664
725.140625 2.3681449999999997 0.048145 -2.32
725.9609375 1.138361 0.734978 -0.403383
726.5859375 2.385594 0.122595 -2.262999
727.30859375 1.28903 0.854718 -0.434312
727.9765625 1.2048510000000001 0.841483 -0.363368
728.67578125 1.2614049999999999 0.807963 -0.453442
729.359375 1.389656 0.921818 -0.467838
730.12109375 1.238996 0.85408 -0.384916
730.625 2.363258 0.015 -2.348258
731.390625 1.4068459999999998 0.903422 -0.503424
731.9609375 2.585833 0.199946 -2.385887
732.67578125 1.3957739999999998 0.903565 -0.492209
733.33984375 1.27027 0.92527 -0.345
734.0625 1.4330500000000002 0.903571 -0.529479
734.8203125 1.357234 1.012375 -0.344859
735.4921875 1.310207 1.009442 -0.300765
736.1484375 1.2736880000000002 1.032755 -0.240933
736.76953125 1.210414 0.975 -0.235414
737.4453125 1.163479 0.888508 -0.274971
738.140625 1.219136 0.838387 -0.380749
738.82421875 1.397313 0.967313 -0.43
739.46484375 1.249047 0.893288 -0.355759
740.16796875 1.242136 0.892136 -0.35
740.890625 1.160063 0.865809 -0.294254
741.3671875 2.230957 1.718745 -0.512212
742.2578125 1.290975 0.984028 -0.306947
742.7734375 2.3732469999999997 0.043935 -2.329312
743.625 1.38 0.97 -0.41
744.15625 2.308333 0.363333 -1.945
744.91015625 1.178122 0.811418 -0.366704
745.55078125 1.396952 1.297007 -0.099945
746.40234375 1.304568 0.864692 -0.439876
746.9375 2.21885 -0.0725 -2.29135
747.87890625 1.19002 0.692504 -0.497516
748.46875 2.522674 0.200339 -2.322335
749.20703125 1.246681 0.809669 -0.437012
749.77734375 2.104643 0.118346 -1.986297
750.5234375 1.516591 1.101591 -0.415
751.02734375 2.270789 -0.065327 -2.336116
752.0390625 1.639745 0.964922 -0.674823
752.76953125 1.566608 1.104898 -0.46171
753.453125 1.421222 1.024812 -0.39641
754.18359375 1.322518 0.769883 -0.552635
754.890625 1.670334 1.050529 -0.619805
755.49609375 1.496081 0.948533 -0.547548
756.12890625 1.341193 0.817514 -0.523679
756.77734375 1.626792 1.074863 -0.551929
757.4609375 1.578157 1.019954 -0.558203
758.125 1.488594 0.97 -0.518594
758.85546875 1.4039549999999998 0.834953 -0.569002
759.6015625 1.512999 0.966289 -0.54671
760.25390625 1.5705170000000002 1.170986 -0.399531
760.90234375 1.455863 0.986275 -0.469588
761.50390625 1.40836 1.071173 -0.337187
762.16796875 1.42041 0.880954 -0.539456
762.890625 1.3004820000000001 0.752031 -0.548451
763.62109375 1.5865559999999999 1.08408 -0.502476
764.35546875 1.542905 0.964919 -0.577986
765.0625 1.381609 0.998947 -0.382662
765.7578125 1.422434 0.725559 -0.696875
766.39453125 1.5524580000000001 1.059967 -0.492491
767.06640625 1.431195 0.844242 -0.586953
767.765625 1.589333 1.021902 -0.567431
768.4296875 1.5864600000000002 1.029473 -0.556987
769.10546875 1.562015 0.869914 -0.692101
769.70703125 1.4681190000000002 0.897444 -0.570675
770.51953125 1.429148 0.844911 -0.584237
771.33203125 1.5528279999999999 1.021047 -0.531781
772.01953125 1.529309 1.049901 -0.479408
772.75 1.38455 0.87 -0.51455
773.40625 1.407803 0.984641 -0.423162
774.00390625 1.451995 1.093686 -0.358309
774.69921875 1.25576 0.948348 -0.307412
775.44140625 1.235085 0.744048 -0.491037
776.19921875 1.478996 1.114075 -0.364921
776.984375 1.3862169999999998 1.121217 -0.265
777.6953125 1.312306 0.967306 -0.345
778.375 1.307245 0.9 -0.407245
779.09375 1.522644 1.069658 -0.452986
779.66796875 2.243271 1.873271 -0.37
780.52734375 1.518461 0.869773 -0.648688
781.06640625 2.1740820000000003 0.624581 -1.549501
781.8984375 1.462907 0.891528 -0.571379
782.5 2.094775 0.12 -1.974775
783.29296875 1.512391 0.965 -0.547391
784.04296875 1.3790440000000002 1.067684 -0.31136
784.75 1.521572 0.965 -0.556572
785.38671875 1.639359 1.171597 -0.467762
786.0 1.588717 0.925 -0.663717
786.57421875 1.5263170000000001 0.75 -0.776317
787.31640625 1.746111 1.094507 -0.651604
787.9765625 2.137153 0.243908 -1.893245
788.796875 1.592291 1.034783 -0.557508
789.2890625 2.278108 0.114949 -2.163159
790.10546875 1.611168 0.999914 -0.611254
790.57421875 2.247657 0.187296 -2.060361
791.37890625 1.578053 1.118949 -0.459104
791.98828125 2.581212 0.296229 -2.284983
792.7421875 1.3894129999999998 0.779561 -0.609852
793.3515625 2.379419 0.164606 -2.214813
794.16015625 1.2463060000000001 0.601418 -0.644888
794.87109375 1.1788189999999998 0.769396 -0.409423
795.59765625 1.426612 0.833654 -0.592958
796.140625 1.9198639999999998 -0.09 -2.009864
796.984375 1.465433 0.765703 -0.69973
797.5703125 2.334094 0.154147 -2.179947
798.22265625 1.374536 0.879536 -0.495
798.68359375 2.094562 0.109789 -1.984773
799.54296875 1.3962809999999999 0.991771 -0.40451
800.0703125 2.0230319999999997 -0.231968 -2.255
801.0546875 1.550753 0.995 -0.555753
801.6875 1.3880970000000001 0.898676 -0.489421
802.41015625 1.666704 0.909374 -0.75733
802.85546875 2.140294 0.37491 -1.765384
803.65625 1.4968679999999999 1.09706 -0.399808
804.15625 1.974621 -0.045379 -2.02
804.63671875 1.470358 0.93343 -0.536928
805.7578125 1.465946 1.054485 -0.411461
806.28125 1.4408310000000002 0.349641 -1.09119
807.1171875 1.618917 1.022992 -0.595925
807.78515625 1.434163 0.97435 -0.459813
808.4375 1.282406 0.772206 -0.5102
809.0859375 1.4346510000000001 0.869924 -0.564727
809.73828125 1.44 0.95 -0.49
810.34765625 1.353641 0.803641 -0.55
810.984375 1.399257 0.816309 -0.582948
811.55078125 2.168881 0.297054 -1.871827
812.33984375 1.2850000000000001 0.745 -0.54
812.94140625 1.864589 -0.045211 -1.9098
813.78125 1.541608 0.936719 -0.604889
814.375 2.4868750000000004 0.28 -2.206875
814.99609375 1.3868939999999998 0.796894 -0.59
815.62109375 1.537226 0.987232 -0.549994
816.2109375 1.6753879999999999 1.039952 -0.635436
816.70703125 2.068149 0.328442 -1.739707
817.51953125 1.214987 0.799987 -0.415
818.06640625 1.9187750000000001 -0.165054 -2.083829
818.9140625 1.463685 0.874978 -0.588707
819.5390625 1.386448 0.929866 -0.456582
820.15625 1.251983 0.676346 -0.575637
820.80859375 1.5596700000000001 1.029886 -0.529784
821.46875 1.3974630000000001 0.888852 -0.508611
822.08203125 1.3128 0.841074 -0.471726
822.69921875 1.2673459999999999 0.877346 -0.39
823.32421875 1.460774 1.028529 -0.432245
823.9765625 1.4069829999999999 1.097694 -0.309289
824.65234375 1.284305 1.017603 -0.266702
825.33203125 1.4378860000000002 1.037886 -0.4
825.90625 2.066019 0.376532 -1.689487
826.66015625 1.336026 0.911026 -0.425
827.1640625 1.36985 0.164955 -1.204895
827.84765625 1.4726629999999998 1.092663 -0.38
828.42578125 1.4477740000000001 1.035905 -0.411869
829.0703125 1.312481 0.907481 -0.405
829.67578125 1.925723 0.215766 -1.709957
830.49609375 2.280962 1.69276 -0.588202
831.1875 1.420671 0.950259 -0.470412
831.78515625 1.4694319999999998 0.870861 -0.598571
832.37890625 1.545806 0.806601 -0.739205
832.98828125 1.409925 0.97335 -0.436575
833.578125 1.354621 0.839663 -0.514958
834.1875 1.4727480000000002 0.765 -0.707748
834.84375 1.514651 0.904651 -0.61
835.4375 1.459565 0.895 -0.564565
836.078125 1.259223 0.863871 -0.395352
836.6953125 1.3943029999999998 0.659303 -0.735
837.21875 2.001309 0.13 -1.871309
838.03515625 1.451213 0.817588 -0.633625
838.6484375 1.2909670000000002 0.721948 -0.569019
839.26953125 1.328343 0.734886 -0.593457
839.71484375 1.915737 0.174215 -1.741522
840.3828125 1.5146929999999998 0.917561 -0.597132
840.984375 1.3859979999999998 0.848343 -0.537655
841.57421875 1.436597 0.886597 -0.55
842.13671875 2.039332 0.369667 -1.669665
842.890625 1.444382 0.954588 -0.489794
843.51953125 1.379723 0.914925 -0.464798
844.12109375 1.4126940000000001 0.8 -0.612694
844.59765625 2.034203 0.359775 -1.674428
845.22265625 1.432333 1.028234 -0.404099
845.8203125 1.3322189999999998 1.022538 -0.309681
846.4609375 1.3275649999999999 0.854737 -0.472828
846.96484375 1.91527 0.35027 -1.565
847.67578125 1.5501800000000001 1.010623 -0.539557
848.26953125 1.339431 1.014953 -0.324478
848.87109375 1.399169 0.810828 -0.588341
849.42578125 2.096356 0.466762 -1.629594
850.0546875 1.426812 1.003779 -0.423033
850.640625 1.273355 0.773355 -0.5
851.25390625 1.450116 0.772098 -0.678018
851.8125 1.4129049999999999 0.879062 -0.533843
852.37890625 1.292694 0.732979 -0.559715
852.921875 1.243209 0.839162 -0.404047
853.5078125 1.4480520000000001 0.868133 -0.579919
854.16015625 1.459794 0.944847 -0.514947
854.83984375 1.288597 0.898597 -0.39
855.4453125 1.284264 0.881019 -0.403245
856.0546875 1.5207190000000002 0.946141 -0.574578
856.6015625 1.414735 0.964735 -0.45
857.125 1.31 0.88 -0.43
857.68359375 1.222633 0.814233 -0.4084
858.21484375 1.381997 0.78743 -0.594567
858.80078125 1.459425 0.927228 -0.532197
859.43359375 1.319305 0.756582 -0.562723
860.0703125 1.282135 0.848832 -0.433303
860.7109375 1.4647139999999998 0.86 -0.604714
861.296875 1.532171 0.994185 -0.537986
861.86328125 1.417252 0.916318 -0.500934
862.46875 1.236745 0.815669 -0.421076
863.1015625 1.443088 1.065 -0.378088
863.66796875 1.4161259999999998 1.031737 -0.384389
864.2578125 1.374392 0.906644 -0.467748
864.79296875 1.325235 0.838795 -0.48644
865.37109375 1.566057 0.971093 -0.594964
866.00390625 1.447672 1.040672 -0.407
866.59765625 1.289104 0.929104 -0.36
867.24609375 1.376194 0.781201 -0.594993
867.87890625 1.528107 0.973107 -0.555
868.46484375 1.332706 1.014344 -0.318362
869.03515625 1.311059 0.925059 -0.386
869.57421875 1.510164 1.125623 -0.384541
870.11328125 1.4987309999999998 1.080909 -0.417822
870.7109375 1.354365 0.81482 -0.539545
871.37109375 1.304799 0.795828 -0.508971
872.0078125 1.473811 0.864302 -0.609509
872.6796875 1.533735 0.96 -0.573735
873.2578125 1.243156 0.910477 -0.332679
873.8359375 1.31901 0.669952 -0.649058
874.453125 1.5657869999999998 0.764454 -0.801333
874.9921875 1.5342319999999998 0.846737 -0.687495
875.5859375 1.390569 0.810569 -0.58
876.18359375 1.38963 0.734346 -0.655284
876.7109375 1.916123 0.205544 -1.710579
877.3828125 1.439323 0.845 -0.594323
877.98828125 1.318584 0.816859 -0.501725
878.60546875 1.486651 0.869972 -0.616679
879.2734375 1.709916 0.962506 -0.74741
879.9453125 1.431408 0.944502 -0.486906
880.53125 1.308812 0.858812 -0.45
881.13671875 1.645439 0.523336 -1.122103
881.68359375 1.459756 0.58483 -0.874926
882.23046875 1.365815 0.765285 -0.60053
882.83203125 1.390902 0.745989 -0.644913
883.421875 1.557048 0.799815 -0.757233
884.0859375 1.479897 0.958427 -0.52147
884.7890625 1.314305 0.964305 -0.35
885.4375 1.5427840000000002 0.96319 -0.579594
886.06640625 1.458892 1.064947 -0.393945
886.6171875 1.316637 0.989999 -0.326638
887.1875 1.4369290000000001 0.82733 -0.609599
887.8046875 1.5978809999999999 1.029904 -0.567977
888.421875 1.3719189999999999 0.924684 -0.447235
889.03515625 1.24184 0.97217 -0.26967
889.671875 1.383924 0.909794 -0.47413
890.2890625 1.4759250000000002 1.065479 -0.410446
890.88671875 1.348499 1.169727 -0.178772
891.50390625 1.3059 0.976375 -0.329525
892.12890625 1.410042 1.110042 -0.3
892.72265625 1.4595790000000002 1.182608 -0.276971
893.34375 1.293577 1.03206 -0.261517
893.91015625 1.3455300000000001 0.78003 -0.5655
894.5 1.602218 0.96 -0.642218
895.05078125 1.5532789999999999 0.974735 -0.578544
895.69140625 1.468658 0.809591 -0.659067
896.27734375 1.7923280000000001 0.137358 -1.65497
897.109375 1.446241 0.625749 -0.820492
897.71875 1.505118 0.941188 -0.56393
898.31640625 1.3792810000000002 0.827316 -0.551965
898.90234375 1.520355 0.879865 -0.64049
899.484375 1.43756 0.87256 -0.565
900.0546875 2.1891019999999997 0.079239 -2.109863
900.64453125 1.498646 0.67555 -0.823096
901.30078125 1.564414 0.878348 -0.686066
901.953125 1.463479 1.083384 -0.380095
902.59375 1.293672 0.923672 -0.37
903.2109375 1.379192 0.90482 -0.474372
903.8359375 1.4675880000000001 0.909043 -0.558545
904.48046875 1.436257 0.95997 -0.476287
905.11328125 1.443446 0.918779 -0.524667
905.7109375 1.2781319999999998 0.725571 -0.552561
906.2890625 1.5551110000000001 0.911111 -0.644
906.87109375 1.416235 0.993482 -0.422753
907.47265625 1.249362 0.851339 -0.398023
908.09765625 1.368725 0.853725 -0.515
908.76953125 1.584727 0.969929 -0.614798
909.41796875 1.428952 0.949524 -0.479428
910.09375 1.284666 0.914087 -0.370579
910.68359375 1.5198710000000002 0.969952 -0.549919
911.2890625 1.578703 0.954953 -0.62375
911.84765625 1.368945 0.988945 -0.38
912.4609375 1.294187 1.005 -0.289187
913.15234375 1.537234 1.102767 -0.434467
913.73828125 1.458787 1.079072 -0.379715
914.46875 1.363142 0.947879 -0.415263
914.95703125 1.9829269999999999 0.137927 -1.845
915.7265625 1.585 1.075 -0.51
916.359375 1.521311 1.122405 -0.398906
916.9453125 1.320836 0.993288 -0.327548
917.5625 1.353594 0.838594 -0.515
918.2265625 1.488956 0.872412 -0.616544
918.71875 2.368125 0.248125 -2.12
919.5078125 1.340773 0.908258 -0.432515
920.13671875 1.501725 0.911725 -0.59
920.83984375 1.546618 0.96356 -0.583058
921.4140625 2.359675 0.084849 -2.274826
922.23046875 1.503121 0.794994 -0.708127
922.80859375 1.46876 0.954489 -0.514271
923.39453125 1.406923 0.909994 -0.496929
923.85546875 2.308127 0.025 -2.283127
924.64453125 1.538819 0.815278 -0.723541
925.2578125 1.3894220000000002 0.884553 -0.504869
925.9375 1.330917 0.872167 -0.45875
926.66796875 1.435324 0.820999 -0.614325
927.328125 1.528856 0.958348 -0.570508
927.90625 1.338115 0.969 -0.369115
928.5234375 1.275627 0.927859 -0.347768
929.0078125 2.079219 0.189485 -1.889734
929.8203125 1.497787 0.971505 -0.526282
930.44140625 1.390202 1.0 -0.390202
931.09375 1.231855 0.921855 -0.31
931.73828125 1.384153 0.864042 -0.520111
932.41796875 1.473067 0.9358 -0.537267
933.12109375 1.252881 0.869737 -0.383144
933.73828125 1.257892 0.937892 -0.32
934.421875 1.51845 0.624022 -0.894428
935.078125 1.434297 0.664382 -0.769915
935.65625 1.216904 0.957091 -0.259813
936.3203125 1.4960149999999999 1.281796 -0.214219
936.79296875 2.29421 0.477378 -1.816832
937.58203125 1.322506 1.035749 -0.286757
938.15234375 2.041947 0.365 -1.676947
939.08984375 1.416591 1.017046 -0.399545
939.609375 2.439073 0.114141 -2.324932
940.4296875 1.534156 0.860546 -0.67361
941.05078125 1.401486 0.958573 -0.442913
941.69140625 1.294077 0.919836 -0.374241
942.30078125 1.456719 0.849948 -0.606771
942.98046875 1.507069 1.045525 -0.461544
943.71875 1.55322 1.024096 -0.529124
944.4140625 1.4590679999999998 1.01056 -0.448508
945.12109375 1.500283 1.094993 -0.40529
945.61328125 1.8560889999999999 0.197002 -1.659087
946.140625 2.6994249999999997 1.664915 -1.03451
947.109375 2.603878 1.575441 -1.028437
947.58203125 2.2674689999999997 0.007469 -2.26
948.41015625 1.4699529999999998 0.84514 -0.624813
949.02734375 1.6993550000000002 1.194863 -0.504492
949.6640625 1.590363 1.124579 -0.465784
950.34375 1.478814 1.138814 -0.34
950.85546875 2.1669 0.354896 -1.812004
951.7265625 1.704784 1.202496 -0.502288
952.27734375 2.3219860000000003 0.307386 -2.0146
953.0078125 1.419972 1.084972 -0.335
953.6015625 1.421664 1.049927 -0.371737
954.203125 1.514035 0.939134 -0.574901
954.89453125 1.5397059999999998 1.049899 -0.489807
955.60546875 1.528024 1.129814 -0.39821
956.3203125 1.336435 0.950087 -0.386348
957.0078125 1.477821 0.984601 -0.49322
957.62890625 1.5820569999999998 1.071994 -0.510063
958.32421875 1.5298470000000002 1.095571 -0.434276
958.8203125 2.324277 0.089303 -2.234974
959.58984375 1.257858 0.714332 -0.543526
960.07421875 2.118359 0.10357 -2.014789
960.91015625 1.520553 1.05472 -0.465833
961.52734375 2.336458 0.046522 -2.289936
962.234375 1.33535 0.91125 -0.4241
962.76953125 1.947305 0.014964 -1.932341
963.70703125 1.584631 1.119716 -0.464915
964.17578125 2.2821230000000003 0.123082 -2.159041
965.0234375 1.5274489999999998 1.06289 -0.464559
965.53125 1.273973 0.868973 -0.405
966.2421875 1.654243 1.154321 -0.499922
966.8515625 2.468612 0.393661 -2.074951
967.578125 1.6778659999999999 1.02873 -0.649136
968.109375 2.097653 0.26 -1.837653
969.00390625 1.822278 1.171202 -0.651076
969.49609375 2.502218 0.093278 -2.40894
970.33203125 1.8529179999999998 1.152898 -0.70002
970.77734375 2.3185390000000003 0.028821 -2.289718
971.58984375 1.516264 0.9402 -0.576064
972.08203125 2.217225 -0.061632 -2.278857
972.93359375 1.6034160000000002 0.969663 -0.633753
973.5 1.392336 0.925 -0.467336
974.234375 1.3015430000000001 0.903301 -0.398242
974.7734375 1.9601069999999998 0.217655 -1.742452
975.578125 2.2465 1.635631 -0.610869
976.21875 2.423183 0.281472 -2.141711
976.921875 1.558897 0.961085 -0.597812
977.41796875 2.232532 0.187971 -2.044561
978.2109375 1.533254 1.079546 -0.453708
978.78515625 2.353995 0.109098 -2.244897
979.51171875 2.13823 1.754355 -0.383875
980.296875 1.501986 1.154542 -0.347444
981.05859375 1.479577 0.939757 -0.53982
981.78515625 1.608536 1.078536 -0.53
982.390625 1.461084 0.986084 -0.475
983.01171875 1.598711 1.023711 -0.575
983.640625 1.513324 1.058447 -0.454877
984.125 2.2512499999999998 0.29 -1.96125
984.95703125 1.634568 0.875923 -0.758645
985.515625 2.215 0.02 -2.195
986.37109375 1.422036 0.933791 -0.488245
986.89453125 2.52314 0.249943 -2.273197
987.78515625 1.535205 0.797801 -0.737404
988.26953125 2.039993 -0.125007 -2.165
989.21484375 1.469348 0.895059 -0.574289
989.90625 1.282974 0.832974 -0.45
990.41796875 2.34652 0.364203 -1.982317
991.19140625 1.36775 0.924952 -0.442798
991.7734375 1.393804 0.086211 -1.307593
992.6796875 1.589415 1.159535 -0.42988
993.19921875 2.268865 0.113865 -2.155
994.30078125 1.551595 1.030045 -0.52155
994.87109375 2.2905360000000003 0.130536 -2.16
995.61328125 1.534741 0.993629 -0.541112
996.078125 2.123504 0.237354 -1.88615
996.97265625 1.7449240000000001 1.399531 -0.345393
997.73828125 1.60015 1.120212 -0.479938
998.51953125 1.6744340000000002 0.909881 -0.764553
999.20703125 1.7418430000000003 1.162176 -0.579667
999.85546875 1.592794 1.109924 -0.48287
1000.453125 1.574757 1.211119 -0.363638
1001.109375 1.5929769999999999 1.007977 -0.585
1001.64453125 2.277177 0.425381 -1.851796
1002.46875 1.572868 1.062109 -0.510759
1002.9296875 2.374963 0.038479 -2.336484
1003.40234375 2.364043 1.649146 -0.714897
1004.4765625 1.7349999999999999 1.155 -0.58
1005.03125 1.517355 0.043438 -1.473917
1005.953125 1.632976 0.938037 -0.694939
1006.4609375 2.279861 0.124861 -2.155
1007.2109375 1.7339289999999998 1.1497 -0.584229
1007.75390625 2.374324 0.040924 -2.3334
1008.45703125 1.69997 0.93 -0.76997
1009.06640625 2.51316 0.252629 -2.260531
1009.80859375 1.580466 1.04946 -0.531006
1010.328125 2.053188 -0.005556 -2.058744
1011.30859375 1.8733959999999998 1.238622 -0.634774
1011.77734375 2.298505 0.134263 -2.164242
1012.578125 1.55273 0.98373 -0.569
1013.15625 2.007689 0.079157 -1.928532
1013.90234375 1.585754 1.106317 -0.479437
1014.4140625 2.1540179999999998 0.17476 -1.979258
1015.28125 1.631353 1.059409 -0.571944
1015.7578125 2.126576 0.131638 -1.994938
1016.6328125 1.5611860000000002 1.113857 -0.447329
1017.1640625 1.9764030000000001 0.119887 -1.856516
1017.99609375 1.700987 1.160987 -0.54
1018.60546875 2.3578810000000003 0.238195 -2.119686
1019.34375 1.4366759999999998 0.927727 -0.508949
1019.80078125 2.020867 0.260921 -1.759946
1020.5703125 1.598716 1.119904 -0.478812
1021.1328125 2.127704 0.035911 -2.091793
1021.9609375 1.7582499999999999 1.064778 -0.693472
1022.55078125 2.18607 0.262108 -1.923962
1023.47265625 1.539027 1.12251 -0.416517
1024.078125 2.241877 0.17363 -2.068247
1024.78125 1.7469999999999999 1.14968 -0.59732
1025.234375 2.099107 0.105909 -1.993198
1026.0234375 1.431518 1.020095 -0.411423
1026.63671875 2.1694579999999997 0.154276 -2.015182
1027.4375 1.633847 1.064 -0.569847
1027.9609375 2.169689 0.134689 -2.035
1028.89453125 1.515244 0.859908 -0.655336
1029.49609375 2.131827 0.023046 -2.108781
1030.26953125 1.614586 1.079974 -0.534612
1030.796875 2.2252639999999997 0.164697 -2.060567
1031.671875 1.6823510000000002 1.012798 -0.669553
1032.26953125 2.311204 0.211256 -2.099948
1033.01171875 1.5465209999999998 1.071929 -0.474592
1033.49609375 1.928893 0.09913 -1.829763
1034.45703125 1.744691 1.136151 -0.60854
1034.9765625 2.19048 0.038889 -2.151591
1035.9140625 1.463487 0.954732 -0.508755
1036.44140625 1.945553 0.190701 -1.754852
1036.8671875 2.4966090000000003 1.904681 -0.591928
1038.07421875 1.542987 1.22655 -0.316437
1038.609375 1.34627 0.442934 -0.903336
1039.87109375 1.6167939999999998 1.176937 -0.439857
1040.515625 1.63353 0.75 -0.88353
1041.4375 1.689667 1.273698 -0.415969
1042.13671875 1.4875969999999998 1.162046 -0.325551
1042.8125 1.507421 1.028041 -0.47938
1043.5078125 1.6504940000000001 1.142832 -0.507662
1044.12109375 1.566011 1.137136 -0.428875
1044.890625 1.544904 1.002834 -0.54207
1045.64453125 1.7043879999999998 1.179919 -0.524469
1046.33984375 1.598149 1.190741 -0.407408
1047.09375 1.494062 1.029062 -0.465
1047.90234375 1.6493600000000002 1.049697 -0.599663
1048.59765625 1.63498 1.154565 -0.480415
1049.28515625 1.503162 1.064526 -0.438636
1049.9453125 1.517242 0.94255 -0.574692
1050.65234375 1.665001 1.063326 -0.601675
1051.375 1.579837 1.085 -0.494837
1052.19140625 1.4839989999999998 0.954681 -0.529318
1052.88671875 1.681815 1.073336 -0.608479
1053.67578125 1.623801 1.154543 -0.469258
1054.734375 1.790292 1.218398 -0.571894
1055.234375 2.264971 0.265 -1.999971
1056.37890625 1.7173340000000001 1.175013 -0.542321
1056.859375 2.263339 0.006902 -2.256437
1058.09765625 1.5020410000000002 0.952041 -0.55
1058.61328125 2.136255 -0.048719 -2.184974
1059.796875 1.8006579999999999 1.176116 -0.624542
1060.33203125 1.7468409999999999 0.656899 -1.089942
1061.359375 1.7229990000000002 1.174023 -0.548976
1061.9140625 2.461822 0.224861 -2.236961
1062.8359375 1.656532 0.934732 -0.7218
1063.30859375 2.339579 0.014282 -2.325297
1064.35546875 1.665226 1.074583 -0.590643
1065.09765625 2.24107 0.51107 -1.73
1066.0078125 1.659468 0.981676 -0.677792
1066.49609375 2.1384879999999997 0.189241 -1.949247
1067.34765625 1.607838 1.06955 -0.538288
1067.84375 2.0541899999999997 0.169656 -1.884534
1068.75 1.733728 1.105 -0.628728
1069.2578125 2.3774949999999997 0.112723 -2.264772
1070.31640625 1.647605 1.033718 -0.613887
1070.83203125 2.307639 0.289507 -2.018132
1071.34765625 1.519212 0.804212 -0.715
1072.45703125 1.754448 1.134475 -0.619973
1072.98046875 2.274941 0.174968 -2.099973
1073.9140625 1.5595409999999998 1.044924 -0.514617
1074.40625 2.1411559999999996 -0.033094 -2.17425
1075.31640625 1.631699 0.968147 -0.663552
1075.80859375 2.1947360000000002 0.18 -2.014736
1076.76953125 1.592174 1.094941 -0.497233
1077.29296875 2.110061 -0.015094 -2.125155
1078.26953125 1.784484 1.124965 -0.659519
1078.7578125 2.293883 0.274169 -2.019714
1079.61328125 1.5986529999999999 1.051597 -0.547056
1080.1796875 2.1419960000000002 0.122996 -2.019
1081.00390625 1.667278 1.18408 -0.483198
1081.578125 2.194461 0.188559 -2.005902
1082.6171875 1.776367 1.136367 -0.64
1083.2578125 2.450004 0.265031 -2.184973
1084.0546875 1.583197 1.12232 -0.460877
1084.5546875 2.090146 0.121512 -1.968634
1085.453125 1.796356 1.093882 -0.702474
1085.9296875 2.330034 0.0938 -2.236234
1086.90625 1.6077919999999999 0.942969 -0.664823
1087.41015625 2.2920969999999996 0.284213 -2.007884
1088.4140625 1.7464490000000001 1.10161 -0.644839
1088.91015625 2.283301 -0.03247 -2.315771
1089.99609375 1.636529 0.919093 -0.717436
1090.515625 2.228054 0.220845 -2.007209
1091.45703125 1.5852789999999999 0.984951 -0.600328
1091.8984375 2.143693 0.0 -2.143693
1092.87109375 1.616301 1.05 -0.566301
1093.44921875 2.2048889999999997 0.460383 -1.744506
1094.43359375 1.7150349999999999 1.015 -0.700035
1095.05078125 2.227166 0.257961 -1.969205
1096.03125 1.624063 1.139063 -0.485
1096.65234375 2.326969 0.202029 -2.12494
1096.984375 1.492565 0.762721 -0.729844
1098.203125 1.777803 1.09 -0.687803
1098.734375 2.306981 0.09354 -2.213441
1099.80859375 1.5343550000000001 0.944466 -0.589889
1100.3125 2.128594 -0.016406 -2.145
1100.90625 2.579759 1.947522 -0.632237
1101.23046875 0.797527 0.805381 0.007854
1101.70703125 1.662969 0.122969 -1.54
1102.515625 1.781157 1.166211 -0.614946
1102.9921875 1.9700119999999999 0.16 -1.810012
1104.2265625 1.6304589999999999 1.143379 -0.48708
1104.859375 1.7226730000000001 0.152838 -1.569835
1105.78515625 1.754932 1.122817 -0.632115
1106.43359375 1.7397559999999999 0.694897 -1.044859
1107.31640625 2.555584 0.290848 -2.264736
1108.44140625 1.577438 0.89969 -0.677748
1108.90625 2.236672 0.212031 -2.024641
1109.93359375 1.569216 1.014817 -0.554399
1110.51171875 2.5269440000000003 0.118872 -2.408072
1111.51171875 1.46876 0.944711 -0.524049
1112.08203125 2.377269 -0.026852 -2.404121
1113.25390625 1.435659 0.849152 -0.586507
1113.8125 1.926875 -0.010156 -1.937031
1114.75 1.554107 0.94 -0.614107
1115.37890625 2.249754 0.384754 -1.865
1116.22265625 1.363171 0.909338 -0.453833
1116.83984375 1.9616930000000001 0.043635 -1.918058
1117.63671875 1.5753309999999998 1.072892 -0.502439
1118.15625 2.084775 0.085 -1.999775
1118.6796875 2.4925170000000003 1.332065 -1.160452
1119.86328125 1.6374549999999999 1.234986 -0.402469
1120.5234375 2.328842 0.220217 -2.108625
1121.27734375 1.517512 1.068757 -0.448755
1121.7578125 2.152517 0.268107 -1.88441
1122.5703125 1.503674 1.253817 -0.249857
1123.07421875 2.120502 0.264548 -1.855954
1124.12890625 1.6740009999999999 1.205828 -0.468173
1124.6796875 2.494616 0.25 -2.244616
1125.6015625 1.759063 1.039063 -0.72
1126.28125 1.691241 1.125818 -0.565423
1126.80078125 2.37932 0.374387 -2.004933
1127.5859375 1.6658629999999999 1.084978 -0.580885
1128.09375 2.2104369999999998 0.173711 -2.036726
1128.96875 1.696894 0.946894 -0.75
1129.4296875 1.9828640000000002 -0.072136 -2.055
1130.26953125 1.6546029999999998 1.104949 -0.549654
1130.7578125 2.2606289999999998 1.659805 -0.600824
1131.80859375 1.719244 1.189452 -0.529792
1132.453125 2.221165 0.051978 -2.169187
1133.26171875 1.757377 1.131624 -0.625753
1133.703125 2.3234179999999998 0.296052 -2.027366
1134.2421875 2.80304 2.083505 -0.719535
1134.82421875 2.694495 2.027256 -0.667239
1135.9765625 1.7498960000000001 1.195167 -0.554729
1136.5078125 2.2510879999999998 0.15277 -2.098318
1137.5234375 1.590012 1.133847 -0.456165
1138.02734375 2.2920700000000003 0.162647 -2.129423
1138.87890625 1.376733 0.929197 -0.447536
1139.33203125 2.068668 -0.031332 -2.1
1140.28125 1.526891 0.952047 -0.574844
1140.88671875 2.3109770000000003 0.12279 -2.188187
1141.75390625 1.463647 0.979097 -0.48455
1142.2578125 1.9990459999999999 0.304485 -1.694561
1143.19140625 1.656993 1.119374 -0.537619
1143.8046875 2.470538 0.328947 -2.141591
1144.5625 1.345716 0.831371 -0.514345
1145.0625 2.292298 0.342083 -1.950215
1145.94140625 1.393592 1.078951 -0.314641
1146.55078125 2.242823 0.170619 -2.072204
1147.296875 1.213034 0.888129 -0.324905
1147.828125 1.966827 0.088975 -1.877852
1148.9140625 1.5566710000000001 1.054869 -0.501802
1149.42578125 2.211346 0.126015 -2.085331
1149.94140625 1.409215 0.724215 -0.685
1151.0078125 1.521647 0.99229 -0.529357
1151.4609375 2.213571 0.129782 -2.083789
1152.34375 1.7445620000000002 1.124562 -0.62
1153.0703125 1.4949899999999998 1.051578 -0.443412
1153.84375 1.4332500000000001 0.96825 -0.465
1154.59765625 1.47816 0.841371 -0.636789
1155.26171875 1.499598 0.914687 -0.584911
1155.984375 1.393229 0.875 -0.518229
1156.70703125 1.586231 0.906573 -0.679658
1157.4453125 1.443416 1.009234 -0.434182
1157.96875 2.194572 0.296172 -1.8984
1158.703125 1.393914 0.864487 -0.529427
1159.2578125 2.161555 0.262848 -1.898707
1159.71484375 1.470345 0.805345 -0.665
1161.0390625 1.664382 1.175 -0.489382
1161.57421875 1.948982 0.093982 -1.855
1162.69140625 1.718545 1.303904 -0.414641
1163.2421875 2.334044 0.719044 -1.615
1164.05078125 1.437886 0.981129 -0.456757
1164.62109375 2.122439 0.47339 -1.649049
1165.578125 1.767675 1.25491 -0.512765
1166.37890625 1.540351 1.105656 -0.434695
1166.98046875 2.3549350000000002 0.484935 -1.87
1167.82421875 1.404137 1.03915 -0.364987
1168.328125 2.03733 0.219766 -1.817564
1169.1640625 1.56161 0.96661 -0.595
1169.64453125 2.297631 0.07495 -2.222681
1170.53125 1.4285489999999998 0.80707 -0.621479
1171.08203125 2.0194069999999997 0.032421 -1.986986
1172.03515625 1.613982 1.013597 -0.600385
1172.6640625 2.370745 0.107345 -2.2634
1173.5078125 1.6442359999999998 0.882917 -0.761319
1174.19140625 2.2556510000000003 0.043426 -2.212225
1174.66015625 1.584281 0.825597 -0.758684
1175.6875 1.4574889999999998 1.027561 -0.429928
1176.14453125 2.016944 0.15 -1.866944
1177.0703125 1.736777 1.127481 -0.609296
1177.59375 2.269609 0.124609 -2.145
1178.5546875 1.7084230000000002 1.028593 -0.67983
1179.1171875 2.163442 0.099275 -2.064167
1180.0703125 1.608443 1.048288 -0.560155
1180.578125 2.2823070000000003 0.219542 -2.062765
1181.390625 1.707449 1.051375 -0.656074
1181.87109375 2.2254449999999997 0.095579 -2.129866
1182.859375 1.5785159999999998 1.082955 -0.495561
1183.390625 2.1290709999999997 0.243274 -1.885797
1183.9296875 1.5076779999999999 0.832523 -0.675155
1185.0703125 1.693614 1.17 -0.523614
1185.57421875 2.2132799999999997 0.076599 -2.136681
1186.4609375 1.624523 1.095577 -0.528946
1186.984375 2.171745 0.301761 -1.869984
1187.87109375 1.8061 1.203996 -0.602104
1188.32421875 2.3186470000000003 0.210173 -2.108474
1189.15625 1.6318350000000001 1.102581 -0.529254
1189.65234375 2.206077 0.208746 -1.997331
1190.61328125 1.656769 1.054042 -0.602727
1191.20703125 2.102136 0.097136 -2.005
1192.13671875 1.6437279999999999 1.071874 -0.571854
1192.62890625 2.168084 0.170654 -1.99743
1193.3671875 1.666779 1.016779 -0.65
1193.953125 2.11665 0.002014 -2.114636
1194.76953125 1.578967 1.004929 -0.574038
1195.3046875 1.939273 0.105211 -1.834062
1196.34375 1.694393 1.063674 -0.630719
1196.8359375 2.208486 0.079877 -2.128609
1197.76953125 1.565367 0.965557 -0.59981
1198.25390625 2.111693 0.125838 -1.985855
1198.765625 1.5100470000000001 0.721929 -0.788118
1199.84375 1.638569 1.014663 -0.623906
1200.34375 2.075621 0.229231 -1.84639
1201.16796875 1.691935 1.01318 -0.678755
1201.671875 2.130722 0.027946 -2.102776
1202.5390625 1.569101 0.999797 -0.569304
1203.046875 1.988796 0.211012 -1.777784
1204.03125 1.686066 1.116136 -0.56993
1204.6875 2.192977 0.046159 -2.146818
1205.41796875 1.583197 0.98688 -0.596317
1205.91015625 2.138854 0.361123 -1.777731
1206.7421875 1.668016 1.173022 -0.494994
1207.27734375 2.2393210000000003 0.063696 -2.175625
1208.3125 1.669297 1.015625 -0.653672
1208.89453125 2.154591 0.229964 -1.924627
1209.79296875 1.603662 1.080022 -0.52364
1210.40234375 2.327476 0.152476 -2.175
1211.12890625 1.810382 1.068763 -0.741619
1211.59765625 2.192189 0.223444 -1.968745
1212.4453125 1.5843120000000002 1.06624 -0.518072
1212.9921875 2.033645 -0.006355 -2.04
1213.8828125 1.797201 1.152862 -0.644339
1214.421875 2.346009 1.723219 -0.62279
1215.2734375 1.703875 1.211619 -0.492256
1215.8046875 2.103598 0.10864 -1.994958
1216.67578125 1.757466 1.134373 -0.623093
1217.1796875 2.161063 0.244344 -1.916719
1217.953125 1.706414 1.106126 -0.600288
1218.41796875 2.126296 -0.008704 -2.135
1219.27734375 1.789144 1.049144 -0.74
1219.78515625 2.204585 0.215 -1.989585
1220.71484375 1.629445 1.061322 -0.568123
1221.2734375 2.118664 -0.022632 -2.141296
1222.18359375 1.71551 1.030848 -0.684662
1222.6875 2.233244 0.265714 -1.96753
1223.4765625 1.674077 1.02 -0.654077
1223.95703125 2.1169130000000003 -0.046632 -2.163545
1224.83984375 1.5724330000000002 0.974415 -0.598018
1225.3671875 2.0251259999999998 0.23608 -1.789046
1226.328125 1.604168 1.049174 -0.554994
1226.97265625 2.149391 0.069661 -2.07973
1227.796875 1.720713 1.034334 -0.686379
1228.2890625 2.224406 0.259763 -1.964643
1229.08984375 1.566176 1.019043 -0.547133
1229.61328125 1.911095 0.001726 -1.909369
1230.53515625 1.6135869999999999 1.042753 -0.570834
1231.15234375 2.144497 0.079691 -2.064806
1231.8515625 1.565629 1.029406 -0.536223
1232.41015625 2.051509 0.186509 -1.865
1233.4453125 1.55416 0.959456 -0.594704
1233.96484375 1.998634 0.173634 -1.825
1234.796875 1.783266 1.104578 -0.678688
1235.28515625 2.1673470000000004 0.069847 -2.0975
1236.078125 1.51179 0.954915 -0.556875
1236.52734375 1.93865 0.02365 -1.915
1237.4296875 1.591984 1.090562 -0.501422
1237.9921875 2.276324 0.148796 -2.127528
1238.90625 1.3162610000000001 0.817625 -0.498636
1239.4453125 1.934338 0.139365 -1.794973
1240.2734375 1.433662 0.958662 -0.475
1240.75390625 2.111589 0.010656 -2.100933
1241.6328125 1.638134 1.124321 -0.513813
1242.109375 2.138416 0.19636 -1.942056
1242.9921875 1.432814 1.015021 -0.417793
1243.46875 2.169801 0.168641 -2.00116
1244.35546875 1.437767 1.004867 -0.4329
1244.859375 2.430602 0.400953 -2.029649
1245.734375 1.601078 0.98877 -0.612308
1246.2421875 2.247408 0.027408 -2.22
1247.08984375 1.394198 0.831338 -0.56286
1247.578125 2.068371 -0.020101 -2.088472
1248.3359375 1.651147 0.9847 -0.666447
1248.80078125 2.2599839999999998 -0.015 -2.274984
1249.7734375 1.382706 0.803292 -0.579414
1250.34375 1.956923 0.071987 -1.884936
1251.26953125 1.519923 0.969923 -0.55
1251.71875 2.203812 0.02457 -2.179242
1252.50390625 1.3986 0.763946 -0.634654
1253.02734375 2.188355 0.161361 -2.026994
1253.859375 1.394358 0.844911 -0.549447
1254.32421875 2.0319260000000003 -0.05 -2.081926
1255.2421875 1.481252 0.911252 -0.57
1255.7734375 1.943746 1.287496 -0.65625
1256.62109375 1.6874349999999998 1.097435 -0.59
1257.11328125 2.233012 0.038545 -2.194467
1258.0390625 1.093978 0.499764 -0.594214
1258.56640625 2.144278 0.179568 -1.96471
1259.390625 1.361754 0.837942 -0.523812
1259.9375 2.3260270000000003 0.207857 -2.11817
1260.62890625 1.357728 0.793107 -0.564621
1261.15625 2.0084720000000003 0.125 -1.883472
1261.9453125 1.4824730000000002 0.916578 -0.565895
1262.4765625 2.1383039999999998 -0.039946 -2.17825
1263.55078125 1.465742 0.7512 -0.714542
1264.15625 2.309062 0.030625 -2.278437
1264.91015625 1.3068330000000001 0.787177 -0.519656
1265.49609375 1.965606 -0.128735 -2.094341
1266.30078125 1.4506839999999999 0.940684 -0.51
1266.953125 2.3120849999999997 0.161317 -2.150768
1267.79296875 1.3618109999999999 0.723424 -0.638387
1268.30859375 1.91409 0.079949 -1.834141
1269.23828125 1.3726060000000002 1.017621 -0.354985
1269.890625 2.142779 0.090671 -2.052108
1270.625 1.323906 0.91 -0.413906
1271.1015625 2.237715 0.025215 -2.2125
1272.04296875 1.296432 0.822511 -0.473921
1272.66015625 2.252683 0.177683 -2.075
1273.3515625 1.2679520000000002 0.731276 -0.536676
1273.8359375 2.108794 -2.25E-4 -2.109019
1274.984375 1.291542 0.856447 -0.435095
1275.52734375 2.073096 -0.136792 -2.209888
1276.52734375 1.56164 0.73664 -0.825
1277.09375 2.185924 -0.069076 -2.255
1277.75390625 1.38116 0.721531 -0.659629
1278.26171875 1.9692340000000002 0.094335 -1.874899
1278.73046875 1.458103 0.64 -0.818103
1279.98046875 1.35494 0.974896 -0.380044
1280.56640625 1.6511179999999999 0.954892 -0.696226
1281.55078125 1.519531 1.05 -0.469531
1282.2890625 1.34967 1.084722 -0.264948
1282.99609375 1.4244940000000001 1.069633 -0.354861
1283.74609375 1.6287800000000001 1.234809 -0.393971
1284.42578125 1.6265049999999999 1.286597 -0.339908
1284.984375 2.367846 1.934141 -0.433705
1285.78515625 1.45608 1.167509 -0.288571
1286.3125 2.057409 0.2815 -1.775909
1287.21484375 1.641498 1.108655 -0.532843
1287.74609375 2.11794 0.108127 -2.009813
1288.29296875 1.6637 0.659152 -1.004548
1289.26953125 1.572319 1.104875 -0.467444
1289.75 2.125 0.26 -1.865
1290.5234375 1.409845 1.110843 -0.299002
1291.01171875 2.095847 0.203802 -1.892045
1291.9453125 1.4580220000000002 1.013022 -0.445
1292.4921875 2.265 0.145 -2.12
1293.4140625 1.4560629999999999 1.004584 -0.451479
1293.890625 2.09289 0.108154 -1.984736
1294.66796875 1.278423 0.961369 -0.317054
1295.30859375 2.201289 0.234652 -1.966637
1295.92578125 1.554955 1.135045 -0.41991
1296.39453125 2.053387 0.099987 -1.9534
1297.3046875 1.513765 0.993851 -0.519914
1297.79296875 1.940468 -0.004532 -1.945
1298.6953125 1.6903569999999999 1.052571 -0.637786
1299.19140625 2.074175 -0.030819 -2.104994
1300.05859375 1.518806 0.964021 -0.554785
1300.578125 2.084902 -0.005098 -2.09
1301.4375 1.615 1.03 -0.585
1301.9296875 2.135496 0.045 -2.090496
1302.69921875 1.50088 0.921015 -0.579865
1303.16796875 2.0357 -0.042266 -2.077966
1304.03515625 1.459373 0.978864 -0.480509
1304.6171875 2.096526 0.178328 -1.918198
1305.58203125 1.482014 0.931369 -0.550645
1306.19921875 2.133987 0.092678 -2.041309
1306.90625 1.425086 0.965589 -0.459497
1307.48046875 2.108988 0.229766 -1.879222
1308.125 1.351281 0.815 -0.536281
1308.64453125 1.9499680000000001 0.129968 -1.82
1309.60546875 1.463368 1.229994 -0.233374
1310.1484375 2.0472 0.258774 -1.788426
1311.0390625 1.473104 1.15 -0.323104
1311.52734375 2.182147 0.254022 -1.928125
1312.375 1.5598640000000001 1.12 -0.439864
1312.84375 2.06008 0.113173 -1.946907
1313.6953125 1.475095 1.013874 -0.461221
1314.3203125 2.2777659999999997 0.088059 -2.189707
1315.03515625 1.577025 0.972025 -0.605
1315.52734375 2.056859 -0.006474 -2.063333
1316.41015625 1.521064 0.86224 -0.658824
1316.9609375 2.264888 -0.100055 -2.364943
1317.8359375 1.534516 0.884782 -0.649734
1318.359375 2.136144 0.09 -2.046144
1319.26171875 1.4579659999999999 0.913072 -0.544894
1319.83984375 2.309695 0.119695 -2.19
1320.65234375 1.668361 1.001473 -0.666888
1321.41015625 1.507362 0.953612 -0.55375
1322.1875 1.441891 0.91375 -0.528141
1322.9921875 1.607587 0.967672 -0.639915
1323.7265625 1.5986099999999999 1.062833 -0.535777
1324.28515625 1.42576 0.97276 -0.453
1325.015625 1.455014 0.973365 -0.481649
1325.640625 2.204599 0.26 -1.944599
1326.52734375 1.453059 0.948326 -0.504733
1327.0546875 2.050745 0.035 -2.015745
1327.96875 1.6190699999999998 1.001 -0.61807
1328.4921875 2.154845 0.137133 -2.017712
1329.32421875 1.4493399999999999 0.949557 -0.499783
1329.98828125 2.1949530000000004 0.072919 -2.122034
1330.8828125 1.7122989999999998 1.107454 -0.604845
1331.4921875 2.573834 0.349025 -2.224809
1332.2578125 1.5235539999999999 1.040892 -0.482662
1332.875 2.41 0.225 -2.185
1333.30078125 1.6456490000000001 0.920733 -0.724916
1334.47265625 1.578112 1.058654 -0.519458
1335.07421875 2.017253 0.184415 -1.832838
1336.0703125 1.7489249999999998 1.091751 -0.657174
1336.64453125 2.290161 0.495161 -1.795
1337.43359375 1.406479 0.95653 -0.449949
1337.890625 2.121406 0.216406 -1.905
1338.8203125 1.657703 1.041337 -0.616366
1339.36328125 2.125 -0.105 -2.23
1340.234375 1.438398 0.9 -0.538398
1340.7890625 2.040026 0.130537 -1.909489
1341.90625 1.567939 1.007105 -0.560834
1342.4140625 2.249796 -0.005027 -2.254823
1343.421875 1.737227 1.093039 -0.644188
1343.93359375 2.276914 0.324867 -1.952047
1344.7578125 1.564848 0.961634 -0.603214
1345.2265625 2.1091270000000004 -0.084087 -2.193214
1346.12890625 1.625315 1.027627 -0.597688
1346.6875 2.254994 0.265 -1.989994
1347.6328125 1.532006 1.047133 -0.484873
1348.2734375 2.363001 0.221927 -2.141074
1348.96875 1.614566 1.070891 -0.543675
1349.52734375 2.2317519999999997 0.216836 -2.014916
1350.2734375 1.485016 1.059661 -0.425355
1350.78515625 2.218446 0.069151 -2.149295
1351.74609375 1.643528 1.179105 -0.464423
1352.30859375 2.3683199999999998 0.214022 -2.154298
1353.12109375 1.378889 0.95 -0.428889
1353.61328125 1.908142 0.093445 -1.814697
1354.52734375 1.2951840000000001 1.107102 -0.188082
1354.9921875 2.268706 0.11383 -2.154876
1355.890625 1.289142 1.004234 -0.284908
1356.56640625 1.2198129999999998 0.874813 -0.345
1357.16796875 1.524694 0.941479 -0.583215
1357.90234375 1.4865439999999999 1.003345 -0.483199
1358.61328125 1.4455689999999999 0.96 -0.485569
1359.38671875 1.399632 0.949737 -0.449895
1360.11328125 1.603522 0.998728 -0.604794
1360.80859375 1.577174 1.08664 -0.490534
1361.2890625 1.664372 0.334711 -1.329661
1362.046875 1.382487 0.847104 -0.535383
1362.60546875 2.205327 0.24521 -1.960117
1363.453125 1.469046 0.949073 -0.519973
1363.984375 2.1732549999999997 0.069209 -2.104046
1364.90234375 1.573792 0.976382 -0.59741
1365.4140625 2.0589519999999997 -0.030368 -2.08932
1366.3203125 1.5048759999999999 0.997017 -0.507859
1366.921875 2.107844 -0.042156 -2.15
1367.73046875 1.6154989999999998 1.040703 -0.574796
1368.36328125 2.308296 0.13082 -2.177476
1369.09375 1.481857 0.973799 -0.508058
1369.5703125 2.143159 0.221257 -1.921902
1370.45703125 1.514237 1.021327 -0.49291
1371.125 2.367656 0.22 -2.147656
1371.80078125 1.5309139999999999 1.119492 -0.411422
1372.3046875 2.087854 0.216853 -1.871001
1373.1875 1.54917 1.03439 -0.51478
1373.6328125 2.169725 0.115 -2.054725
1374.38671875 1.738356 1.158814 -0.579542
1374.85546875 2.2302220000000004 0.164944 -2.065278
1375.79296875 1.599901 1.0658 -0.534101
1376.3515625 2.279631 0.028141 -2.25149
1377.26171875 1.559323 0.989737 -0.569586
1377.76171875 2.140027 0.229023 -1.911004
1378.54296875 1.580416 1.094014 -0.486402
1379.0078125 2.2995460000000003 0.093535 -2.206011
1379.7890625 1.582029 1.054357 -0.527672
1380.3125 2.147879 0.103667 -2.044212
1381.16796875 1.5032230000000002 0.958223 -0.545
1381.68359375 2.16445 -5.5E-4 -2.165
1382.609375 1.708469 1.135384 -0.573085
1383.25390625 2.1063829999999997 0.099585 -2.006798
1383.578125 1.668766 0.833796 -0.83497
1384.65234375 1.598884 1.099638 -0.499246
1385.25 2.309859 0.105 -2.204859
1385.9765625 1.552464 0.967464 -0.585
1386.43359375 2.169491 0.26 -1.909491
1387.22265625 1.599184 1.004184 -0.595
1387.87109375 2.171155 -0.013722 -2.184877
1388.66796875 1.520569 0.976204 -0.544365
1389.2265625 2.078414 0.15342 -1.924994
1390.12890625 1.488142 0.988954 -0.499188
1390.5859375 2.299124 0.099849 -2.199275
1391.40234375 1.584819 0.998964 -0.585855
1391.86328125 2.2543759999999997 0.29586 -1.958516
1392.62109375 1.582381 1.123105 -0.459276
1393.2109375 2.149763 0.084763 -2.065
1394.25390625 1.525551 0.95 -0.575551
1394.9296875 2.283702 0.099487 -2.184215
1395.6484375 1.5924580000000002 1.000153 -0.592305
1396.1640625 2.193979 0.284336 -1.909643
1396.91796875 1.583091 0.990105 -0.592986
1397.41015625 2.04863 0.036832 -2.011798
1398.28515625 1.5949849999999999 1.096507 -0.498478
1398.78515625 2.076578 0.183474 -1.893104
1399.66796875 1.589466 1.150066 -0.4394
1400.16015625 2.0391209999999997 0.165 -1.874121
1401.04296875 1.5396969999999999 1.087511 -0.452186
1401.6328125 2.118657 0.244792 -1.873865
1402.50390625 1.516893 1.126034 -0.390859
1403.125 2.1748689999999997 0.17 -2.004869
1403.7109375 1.567943 1.074978 -0.492965
1404.18359375 2.1197660000000003 0.174766 -1.945
1405.0703125 1.563447 1.049502 -0.513945
1405.5625 2.137915 0.0375 -2.100415
1406.53515625 1.739142 1.164275 -0.574867
1407.125 2.1902410000000003 0.135 -2.055241
1407.93359375 1.529488 1.018951 -0.510537
1408.41015625 2.089695 0.099695 -1.99
1409.1875 1.710044 1.070455 -0.639589
1409.671875 2.100044 -0.03 -2.130044
1410.23828125 2.3746780000000003 1.77539 -0.599288
1411.2265625 1.582517 1.122024 -0.460493
1411.7265625 2.171995 0.208923 -1.963072
1412.6015625 1.673591 1.128591 -0.545
1413.14453125 2.064848 0.11 -1.954848
1413.91796875 1.732472 1.23818 -0.494292
1414.4453125 2.1699859999999997 1.74 -0.429986
1415.26171875 2.371605 2.075454 -0.296151
1415.8828125 1.626944 1.289262 -0.337682
1416.52734375 1.745459 1.277619 -0.46784
1417.12109375 1.669803 1.298393 -0.37141
1417.796875 1.335178 1.029242 -0.305936
1418.57421875 1.533484 1.128512 -0.404972
1419.3046875 1.5159310000000001 1.204234 -0.311697
1420.0 1.383897 1.16 -0.223897
1420.59765625 1.4236 1.07654 -0.34706
1421.1953125 1.541877 1.168874 -0.373003
1421.83203125 1.6262789999999998 1.20342 -0.422859
1422.36328125 1.569222 1.144105 -0.425117
1422.92578125 1.562819 0.284036 -1.278783
1423.8125 1.48119 1.20119 -0.28
1424.3046875 2.221235 0.126512 -2.094723
1425.1875 1.641594 1.120625 -0.520969
1425.79296875 2.327465 0.069526 -2.257939
1426.45703125 1.4570750000000001 0.986307 -0.470768
1426.98828125 2.298034 -0.025 -2.323034
1427.84375 1.7016609999999999 1.107422 -0.594239
1428.3359375 2.6085309999999997 0.119601 -2.48893
1429.1171875 1.43805 1.083107 -0.354943
1429.61328125 2.207198 0.107892 -2.099306
1430.47265625 1.534368 1.064368 -0.47
1430.97265625 2.3924209999999997 0.092386 -2.300035
1431.87109375 1.409419 0.935828 -0.473591
1432.41015625 2.096512 0.10284 -1.993672
1433.15625 1.600751 1.096012 -0.504739
1433.72265625 2.496709 0.193298 -2.303411
1434.35546875 1.366991 0.904887 -0.462104
1434.890625 2.041897 0.085111 -1.956786
1435.8203125 1.556947 0.957879 -0.599068
1436.33984375 2.333431 -0.021569 -2.355
1437.234375 1.4835699999999998 0.87857 -0.605
1437.76953125 2.089727 0.159727 -1.93
1438.578125 1.469168 0.964174 -0.504994
1439.14453125 2.4255639999999996 0.156023 -2.269541
1439.83984375 1.340259 0.945259 -0.395
1440.36328125 2.063827 0.181815 -1.882012
1441.22265625 1.589175 1.134175 -0.455
1441.73828125 2.264669 0.098976 -2.165693
1442.61328125 1.367089 0.972089 -0.395
1443.1640625 2.024264 0.114302 -1.909962
1444.08203125 1.444027 1.034027 -0.41
1444.70703125 2.265626 0.127482 -2.138144
1445.41015625 1.296964 0.990382 -0.306582
1445.86328125 2.018765 0.147765 -1.871
1446.6328125 1.499058 1.008089 -0.490969
1447.2734375 2.196681 0.183181 -2.0135
1448.0546875 1.429102 1.029157 -0.399945
1448.60546875 1.978618 0.049939 -1.928679
1449.58203125 1.580192 1.01 -0.570192
1450.0625 2.20967 0.049844 -2.159826
1450.8671875 1.39089 0.900404 -0.490486
1451.33203125 2.018424 0.053424 -1.965
1452.203125 1.5849349999999998 1.035 -0.549935
1452.7109375 2.108385 -0.054578 -2.162963
1453.640625 1.29055 0.903042 -0.387508
1454.16796875 2.027219 0.142219 -1.885
1455.046875 1.369707 0.959707 -0.41
1455.5546875 2.165547 -0.01384 -2.179387
1456.359375 1.366666 0.913307 -0.453359
1456.8671875 2.0681239999999996 0.059798 -2.008326
1457.765625 1.364732 0.982396 -0.382336
1458.22265625 2.16384 0.093746 -2.070094
1459.0703125 1.490157 1.063896 -0.426261
1459.5546875 2.132801 0.103755 -2.029046
1460.4609375 1.341201 0.974584 -0.366617
1461.0390625 2.209832 0.064832 -2.145
1461.94140625 1.50967 1.02967 -0.48
1462.5546875 2.2503 0.285715 -1.964585
1463.171875 1.310641 0.964913 -0.345728
1463.62890625 2.079957 0.019957 -2.06
1464.43359375 1.5364769999999999 1.053934 -0.482543
1464.93359375 2.103421 0.054749 -2.048672
1465.8203125 1.41966 0.955211 -0.464449
1466.3984375 2.147595 0.27322 -1.874375
1467.265625 1.436382 0.985486 -0.450896
1467.859375 2.347519 0.162534 -2.184985
1468.55078125 1.4289740000000002 1.004075 -0.424899
1469.0859375 2.083026 0.144919 -1.938107
1469.8828125 1.557926 1.128231 -0.429695
1470.515625 2.196159 0.087711 -2.108448
1471.1640625 1.402963 0.993427 -0.409536
1471.69140625 2.1149400000000003 0.199946 -1.914994
1472.53125 1.51838 1.055878 -0.462502
1472.984375 2.187559 0.017559 -2.17
1473.87890625 1.363798 0.810986 -0.552812
1474.41796875 2.19346 0.198487 -1.994973
1475.1875 1.392567 1.042283 -0.350284
1475.78125 2.379055 0.285833 -2.093222
1476.3828125 1.4293500000000001 0.96435 -0.465
1476.87890625 2.053207 0.203949 -1.849258
1477.79296875 1.381175 1.013444 -0.367731
1478.30078125 2.164041 0.077961 -2.08608
1479.234375 1.4725700000000002 0.963708 -0.508862
1479.7109375 2.034026 0.08 -1.954026
1480.29296875 2.105 1.645 -0.46
1481.09765625 1.382164 1.064541 -0.317623
1481.7421875 1.367896 0.997917 -0.369979
1482.2890625 2.139087 0.319496 -1.819591
1483.08984375 1.419222 0.935238 -0.483984
1483.76953125 1.539586 0.999885 -0.539701
1484.41796875 1.454786 1.050366 -0.40442
1485.0703125 1.418975 0.982538 -0.436437
1485.8203125 1.5002360000000001 0.952481 -0.547755
1486.52734375 1.507826 1.071437 -0.436389
1487.18359375 1.4240460000000001 1.129766 -0.29428
1487.78125 1.384095 0.954095 -0.43
1488.421875 1.542397 1.018141 -0.524256
1489.1015625 1.415137 1.062564 -0.352573
1489.76953125 1.397226 1.049954 -0.347272
1490.51171875 1.479226 1.063397 -0.415829
1491.26953125 1.368938 0.900281 -0.468657
1491.8359375 1.644868 0.982912 -0.661956
1492.5546875 1.599798 1.07 -0.529798
1493.015625 2.288973 0.140625 -2.148348
1493.91796875 1.51925 1.021727 -0.497523
1494.43359375 2.315272 0.025637 -2.289635
1494.9921875 2.57055 1.90981 -0.66074
1495.6484375 2.226469 1.389399 -0.83707
1496.78125 1.528983 1.134426 -0.394557
1497.28125 2.185951 0.452087 -1.733864
1498.12890625 1.371827 0.924175 -0.447652
1498.765625 1.439042 0.911071 -0.527971
1499.4921875 1.505414 1.053045 -0.452369
1500.125 2.194953 0.215 -1.979953
1500.8125 1.350756 0.935446 -0.41531
1501.26171875 2.299439 0.114686 -2.184753
1502.1640625 1.288912 0.894973 -0.393939
1502.7421875 2.07673 0.216882 -1.859848
1503.6796875 1.387983 0.928241 -0.459742
1504.17578125 2.1744149999999998 0.024415 -2.15
1504.9921875 1.275342 0.909805 -0.365537
1505.44921875 1.988898 0.13049 -1.858408
1506.29296875 1.503044 0.898851 -0.604193
1506.74609375 2.183445 -0.015305 -2.19875
1507.69140625 1.452453 0.889266 -0.563187
1508.52734375 1.407425 0.978821 -0.428604
1509.2734375 1.305311 0.910311 -0.395
1509.9609375 1.449798 0.929754 -0.520044
1510.54296875 1.553791 1.020066 -0.533725
1511.2890625 1.3996330000000001 1.01476 -0.384873
1512.05078125 1.388492 0.949268 -0.439224
1512.78515625 1.526262 1.022691 -0.503571
1513.45703125 1.493919 1.009769 -0.48415
1514.18359375 1.487186 1.029709 -0.457477
1514.8046875 1.36758 0.39758 -0.97
1515.70703125 1.44511 1.08011 -0.365
1516.21875 2.094103 0.117813 -1.97629
1517.328125 1.665172 1.093855 -0.571317
1517.92578125 2.544328 0.376004 -2.168324
1518.70703125 1.409986 1.015 -0.394986
1519.5 1.545 1.005 -0.54
1520.32421875 1.426328 1.130905 -0.295423
1521.09375 1.332656 1.077656 -0.255
1521.79296875 1.414355 0.971369 -0.442986
1522.484375 1.269456 0.031733 -1.237723
1523.0546875 1.569065 1.028468 -0.540597
1523.69921875 1.538729 1.378448 -0.160281
1524.66015625 1.346832 1.221861 -0.124971
1525.29296875 2.362889 0.323424 -2.039465
1525.77734375 1.2104439999999999 0.524704 -0.68574
1527.06640625 1.523299 1.079739 -0.44356
1527.57421875 1.503304 0.642963 -0.860341
1528.6796875 1.379157 0.859157 -0.52
1529.421875 1.562476 0.934454 -0.628022
1529.8671875 1.369995 0.465 -0.904995
1530.84375 1.284386 0.88745 -0.396936
1531.3203125 2.265607 -0.043479 -2.309086
1532.40234375 1.453585 0.913877 -0.539708
1533.20703125 1.248186 0.841479 -0.406707
1533.78125 1.421661 0.389473 -1.032188
1534.64453125 1.5478100000000001 0.930498 -0.617312
1535.11328125 2.266903 0.151916 -2.114987
1535.921875 1.3394650000000001 0.859912 -0.479553
1536.44140625 2.088863 0.024555 -2.064308
1536.98828125 1.3447360000000002 0.429736 -0.915
1538.1484375 1.450412 0.847898 -0.602514
1538.640625 2.06697 0.038042 -2.028928
1539.55078125 1.476256 0.978529 -0.497727
1540.20703125 2.614045 0.224045 -2.39
1540.859375 1.233895 0.848387 -0.385508
1541.47265625 2.35282 0.124651 -2.228169
1542.34765625 1.29455 0.80455 -0.49
1542.9375 2.324985 0.04 -2.284985
1543.72265625 1.26393 0.81393 -0.45
1544.26171875 2.253602 -0.036417 -2.290019
1545.3046875 1.280668 0.903022 -0.377646
1545.84765625 2.138956 -0.111038 -2.249994
1546.7890625 1.361484 0.924496 -0.436988
1547.3515625 2.580213 0.210213 -2.37
1548.06640625 1.3280150000000002 0.844242 -0.483773
1548.71484375 2.151996 0.176158 -1.975838
1549.59765625 1.287559 0.839536 -0.448023
1550.1171875 2.254268 -0.03058 -2.284848
1551.19140625 1.4607700000000001 0.782296 -0.678474
1551.875 1.422617 0.81 -0.612617
1552.34765625 2.1647730000000003 0.165063 -1.99971
1553.2734375 1.21882 0.710095 -0.508725
1553.81640625 2.15254 0.074656 -2.077884
1554.71484375 1.2790599999999999 0.79906 -0.48
1555.23046875 2.134783 -0.095027 -2.22981
1556.18359375 1.417802 0.739266 -0.678536
1556.93359375 1.37874 0.81446 -0.56428
1557.45703125 1.800363 0.142262 -1.658101
1558.546875 1.569645 0.944807 -0.624838
1559.06640625 2.084514 0.009599 -2.074915
1560.1015625 1.280166 0.9011 -0.379066
1560.69921875 2.2882100000000003 0.23321 -2.055
1561.62109375 1.455124 1.024124 -0.431
1562.57421875 1.325003 1.001482 -0.323521
1563.43359375 1.4645299999999999 1.059577 -0.404953
1564.2109375 1.459539 1.049553 -0.409986
1564.9375 1.334009 1.0092 -0.324809
1565.6875 1.3992360000000001 1.04 -0.359236
1566.3984375 1.581145 1.129138 -0.452007
1567.15234375 1.384007 1.024448 -0.359559
1567.9921875 1.287641 0.962647 -0.324994
1568.79296875 1.417766 0.948732 -0.469034
1569.52734375 1.5040459999999998 1.139166 -0.36488
1570.25390625 1.322532 1.069809 -0.252723
1570.8828125 1.3108270000000002 1.065854 -0.244973
1571.875 1.607187 1.14 -0.467187
1572.37890625 2.3158410000000003 0.155987 -2.159854
1573.4140625 1.439222 0.994674 -0.444548
1573.93359375 2.295044 0.034683 -2.260361
1575.08203125 1.373218 0.959549 -0.413669
1575.69140625 2.070307 0.460797 -1.60951
1576.67578125 1.592128 0.9786 -0.613528
1577.234375 2.1696590000000002 0.365885 -1.803774
1577.6328125 1.998181 1.308611 -0.68957
1578.875 1.395735 0.985 -0.410735
1579.48046875 1.959385 0.189957 -1.769428
1580.44140625 2.3051250000000003 1.589946 -0.715179
1581.25390625 1.264835 0.952079 -0.312756
1581.9609375 1.415019 0.945585 -0.469434
1582.6640625 1.645946 0.90971 -0.736236
1583.31640625 1.300975 0.767296 -0.533679
1583.99609375 1.21461 0.740548 -0.474062
1584.72265625 1.484051 0.902921 -0.58113
1585.4296875 1.321 0.932172 -0.388828
1586.01171875 1.889767 1.494767 -0.395
1586.7734375 1.2605259999999998 1.013135 -0.247391
1587.3125 2.008176 0.238182 -1.769994
1588.3046875 1.311059 1.047172 -0.263887
1588.91796875 2.1885179999999997 0.287538 -1.90098
1589.61328125 1.3329870000000001 1.083026 -0.249961
1590.23046875 1.213496 0.954962 -0.258534
1590.9609375 1.339885 0.894885 -0.445
1591.47265625 2.182754 0.26 -1.922754
1592.40625 1.264654 1.004654 -0.26
1592.9609375 2.162257 0.104943 -2.057314
1594.078125 1.600454 1.058705 -0.541749
1594.64453125 2.5043670000000002 0.2959 -2.208467
1595.5078125 1.5204550000000001 1.081174 -0.439281
1596.0078125 2.2716260000000004 0.176626 -2.095
1597.06640625 1.379251 1.025855 -0.353396
1597.84765625 1.206296 0.871949 -0.334347
1598.60546875 1.383486 0.894875 -0.488611
1599.40625 1.285743 0.918462 -0.367281
1600.09765625 1.193703 0.882386 -0.311317
1600.8046875 1.42642 0.982951 -0.443469
1601.5234375 1.279631 0.894631 -0.385
1602.17578125 1.221147 0.919557 -0.30159
1602.82421875 1.2977159999999999 0.9085 -0.389216
1603.4140625 1.461754 0.929834 -0.53192
1604.265625 1.374816 0.895 -0.479816
1604.8984375 2.1586589999999997 0.032726 -2.125933
1606.14453125 1.463722 0.94495 -0.518772
1606.71484375 2.47804 0.11804 -2.36
1607.609375 1.223127 0.872619 -0.350508
1608.19140625 2.420899 0.281937 -2.138962
1609.0703125 1.3469820000000001 0.964472 -0.38251
1609.734375 1.960513 0.325513 -1.635
1610.65234375 1.313078 0.928234 -0.384844
1611.40625 1.321959 0.900072 -0.421887
1612.1015625 1.265703 1.000903 -0.2648
1612.85546875 1.218849 0.944987 -0.273862
1613.48828125 1.38654 1.009687 -0.376853
1614.26171875 1.2943419999999999 0.940674 -0.353668
1615.015625 1.175 0.96 -0.215
1615.77734375 1.278645 0.934068 -0.344577
1616.55078125 1.318949 0.954047 -0.364902
1617.3515625 1.2210429999999999 0.912195 -0.308848
1618.14453125 1.119339 0.814877 -0.304462
1618.70703125 1.2325629999999999 0.8602 -0.372363
1619.67578125 1.361843 0.993004 -0.368839
1620.1171875 2.03283 0.102408 -1.930422
1621.29296875 1.306074 0.871074 -0.435
1621.859375 2.30469 0.04469 -2.26
1623.06640625 1.387336 0.855 -0.532336
1623.84375 1.241651 0.790605 -0.451046
1624.3515625 1.664589 1.115944 -0.548645
1625.29296875 1.280652 0.895989 -0.384663
1625.86328125 1.9744009999999999 0.464737 -1.509664
1626.8828125 1.432706 0.864796 -0.56791
1627.69140625 1.3341129999999999 0.824685 -0.509428
1628.48046875 1.343061 0.774925 -0.568136
1629.23828125 1.298284 0.718284 -0.58
1629.90625 1.750688 0.93 -0.820688
1630.4453125 1.2443170000000001 0.401662 -0.842655
1631.5234375 1.348078 0.953514 -0.394564
1632.07421875 2.3235259999999998 0.155108 -2.168418
1632.8828125 1.268039 0.664442 -0.603597
1633.51953125 2.456032 0.311165 -2.144867
1634.40234375 1.318988 0.859491 -0.459497
1634.9765625 1.9199860000000002 0.225 -1.694986
1635.87890625 1.218137 0.749093 -0.469044
1636.625 1.3084310000000001 0.7 -0.608431
1637.25390625 1.25755 0.804894 -0.452656
1637.94140625 1.283663 0.748663 -0.535
1638.6171875 1.24739 0.924098 -0.323292
1639.40625 1.17759 0.852841 -0.324749
1640.16015625 1.197086 0.723624 -0.473462
1640.89453125 1.190759 0.664994 -0.525765
1641.51953125 1.283306 0.639958 -0.643348
1642.4921875 1.2436989999999999 0.792647 -0.451052
1643.0078125 2.014542 0.0 -2.014542
1644.05078125 1.4035289999999998 0.784905 -0.618624
1644.50390625 2.267531 -0.11714 -2.384671
1645.54296875 1.276845 0.507176 -0.769669
1646.07421875 2.217183 -0.050452 -2.267635
1647.234375 1.2416909999999999 0.801183 -0.440508
1648.02734375 1.205 0.715 -0.49
1648.73046875 1.250907 0.709345 -0.541562
1649.34375 1.295337 0.774531 -0.520806
1650.0390625 1.364172 0.824478 -0.539694
1650.6875 1.2523900000000001 0.88725 -0.36514
1651.41796875 1.249152 0.880105 -0.369047
1652.21484375 1.402329 0.862329 -0.54
1652.890625 1.327934 0.757934 -0.57
1653.6796875 1.3802269999999999 0.881859 -0.498368
1654.31640625 1.308115 0.968392 -0.339723
1654.98828125 1.2878859999999999 0.976439 -0.311447
1655.73046875 1.4649869999999998 1.064987 -0.4
1656.41015625 1.402517 0.977874 -0.424643
1657.03515625 1.246146 0.915 -0.331146
1658.00390625 1.59973 1.106706 -0.493024
1658.515625 2.152887 -0.002086 -2.154973
1659.66796875 1.343833 0.918833 -0.425
1660.15625 2.250981 0.131196 -2.119785
1661.22265625 1.374525 0.874525 -0.5
1661.78125 2.1135099999999998 0.409 -1.70451
1662.66796875 1.64632 1.21058 -0.43574
1663.51171875 1.254645 0.872361 -0.382284
1664.421875 1.280209 0.813693 -0.466516
1665.2578125 1.5050000000000001 1.07 -0.435
1665.87890625 2.203306 1.178406 -1.0249
1666.64453125 1.30459 0.755531 -0.549059
1667.16796875 2.088955 0.153782 -1.935173
1667.92578125 1.540384 1.057274 -0.48311
1668.43359375 1.802534 0.067296 -1.735238
1669.62109375 1.485941 1.06723 -0.418711
1670.14453125 2.303623 0.180498 -2.123125
1671.296875 1.386623 0.827564 -0.559059
1672.09765625 1.242204 0.712987 -0.529217
1672.88671875 1.52874 0.888794 -0.639946
1673.4765625 1.443417 0.971559 -0.471858
1674.2421875 1.31203 1.029811 -0.282219
1674.765625 2.311014 0.285 -2.026014
1675.9609375 1.5888 1.099678 -0.489122
1676.47265625 2.574491 0.079491 -2.495
1676.734375 3.125 0.63 -2.495
1677.60546875 1.327986 0.869944 -0.458042
1678.40234375 1.464466 0.972578 -0.491888
1678.890625 1.267014 0.382811 -0.884203
1679.37890625 2.058211 0.968423 -1.089788
1680.4453125 1.512853 0.971505 -0.541348
1681.03515625 2.177364 0.235155 -1.942209
1682.109375 1.302915 0.782934 -0.519981
1682.984375 1.3620160000000001 0.788835 -0.573181
1683.71875 1.453132 0.835139 -0.617993
1684.33984375 1.333112 0.848527 -0.484585
1685.15234375 1.418553 0.968553 -0.45
1685.6796875 2.114422 0.077391 -2.037031
1686.9140625 1.41933 0.889655 -0.529675
1687.40625 2.399718 -0.04654 -2.446258
1688.5390625 1.3869950000000002 0.794664 -0.592331
1689.37890625 1.253863 0.784099 -0.469764
1690.203125 1.31342 0.768466 -0.544954
1690.921875 1.263666 0.759258 -0.504408
1691.58203125 1.230416 0.828487 -0.401929
1692.13671875 1.357663 0.77313 -0.584533
1693.0859375 1.371013 0.919891 -0.451122
1693.5859375 2.05562 0.054718 -2.000902
1694.76171875 1.377728 0.778486 -0.599242
1695.42578125 2.437993 0.116616 -2.321377
1696.34765625 1.333699 0.718016 -0.615683
1697.06640625 1.319385 0.712366 -0.607019
1697.84375 1.311936 0.780896 -0.53104
1698.6328125 1.2897370000000001 0.869356 -0.420381
1699.44140625 1.278014 0.929276 -0.348738
1700.21875 1.188973 0.858973 -0.33
1701.0078125 1.217422 0.852528 -0.364894
1701.76953125 1.334836 0.839923 -0.494913
1702.51171875 1.3174890000000001 0.907694 -0.409795
1703.2265625 1.2179200000000001 0.883936 -0.333984
1703.8984375 1.226923 0.892573 -0.33435
1704.5859375 1.268672 0.904859 -0.363813
1705.25 1.2982339999999999 0.88 -0.418234
1705.875 1.274044 0.995 -0.279044
1706.7265625 1.199707 0.845 -0.354707
1707.31640625 2.104667 0.16 -1.944667
1708.421875 1.363476 0.793901 -0.569575
1709.01171875 2.414242 0.138774 -2.275468
1709.8515625 1.2493910000000001 0.754391 -0.495
1710.55078125 1.323831 0.839471 -0.48436
1711.21484375 1.9677289999999998 1.157937 -0.809792
1712.08984375 1.276931 1.002656 -0.274275
1712.8671875 1.41327 1.043318 -0.369952
1713.375 1.9120249999999999 1.565 -0.347025
1714.24609375 1.2740040000000001 0.997514 -0.27649
1714.84375 1.971354 0.226389 -1.744965
1715.6875 1.172692 0.827692 -0.345
1716.40625 1.4189880000000001 0.949473 -0.469515
1717.3359375 1.031938 0.219632 -0.812306
1718.421875 1.332528 0.933427 -0.399101
1718.984375 2.084182 0.275 -1.809182
1719.94921875 1.332319 0.987346 -0.344973
1720.6640625 1.230502 0.959694 -0.270808
1721.31640625 1.175521 0.879021 -0.2965
1721.90625 1.170035 0.871346 -0.298689
1722.60546875 1.229892 0.904892 -0.325
1723.390625 1.321009 1.011562 -0.309447
1724.1484375 1.213685 1.018533 -0.195152
1724.94921875 1.28516 1.008472 -0.276688
1725.546875 1.457626 1.048977 -0.408649
1726.31640625 1.248313 0.929021 -0.319292
1727.03125 1.214587 0.885878 -0.328709
1727.76171875 1.408516 0.959122 -0.449394
1728.49609375 1.228556 0.879066 -0.34949
1729.23046875 1.177357 0.85998 -0.317377
1729.859375 1.2827030000000001 0.888317 -0.394386
1730.83984375 1.222723 0.967723 -0.255
1731.3828125 2.1594689999999996 0.123407 -2.036062
1732.5234375 1.398754 0.900517 -0.498237
1733.14453125 2.4256 0.111235 -2.314365
1733.98828125 1.169983 0.727409 -0.442574
1734.73046875 1.4093 0.854988 -0.554312
1735.4921875 1.268195 0.77821 -0.489985
1736.16015625 1.164826 0.705 -0.459826
1737.109375 1.290035 0.765057 -0.524978
1737.67578125 2.128714 0.133884 -1.99483
1738.72265625 1.239715 0.764715 -0.475
1739.28515625 2.331633 0.091682 -2.239951
1740.203125 1.317691 0.859807 -0.457884
1740.875 2.3122190000000002 0.115 -2.197219
1741.8515625 1.202893 0.843923 -0.35897
1742.64453125 1.120266 0.830266 -0.29
1743.41015625 1.1967240000000001 0.850202 -0.346522
1744.05078125 1.4105889999999999 0.877332 -0.533257
1744.88671875 1.297532 0.862621 -0.434911
1745.42578125 2.295147 0.10883 -2.186317
1746.328125 1.239893 0.77 -0.469893
1746.84375 2.009163 0.199629 -1.809534
1747.69921875 1.259433 0.774492 -0.484941
1748.21484375 2.196095 -0.077769 -2.273864
1749.375 1.233679 0.73 -0.503679
1749.8984375 2.183513 -0.032504 -2.216017
1750.80078125 1.23561 0.747476 -0.488134
1751.390625 2.554008 0.259832 -2.294176
1752.1171875 1.168029 0.747832 -0.420197
1752.58203125 1.9663549999999999 0.222262 -1.744093
1753.52734375 1.2880859999999998 0.793206 -0.49488
1754.328125 1.17 0.8 -0.37
1755.01171875 1.144383 0.817308 -0.327075
1755.75 1.210537 0.725 -0.485537
1756.40625 1.164943 0.78 -0.384943
1757.09765625 1.1392390000000001 0.817563 -0.321676
1757.82421875 1.312131 0.829567 -0.482564
1758.48046875 1.373753 0.899972 -0.473781
1759.20703125 1.23926 0.873511 -0.365749
1759.9609375 1.2891489999999999 0.899789 -0.38936
1760.75390625 1.2571050000000001 0.92 -0.337105
1761.5 1.1800000000000002 0.9 -0.28
1762.140625 1.30099 0.954938 -0.346052
1763.1484375 1.274085 0.877024 -0.397061
1763.6328125 2.0958900000000003 0.076452 -2.019438
1764.6640625 1.320117 0.910551 -0.409566
1765.51171875 1.225757 0.837516 -0.388241
1766.41015625 1.200142 0.828612 -0.37153
1767.25390625 1.263954 0.953954 -0.31
1768.0 1.1999499999999999 0.835 -0.36495
1768.62109375 2.23245 1.316301 -0.916149
1769.43359375 1.3185630000000002 1.049427 -0.269136
1769.92578125 2.107749 0.2 -1.907749
1770.96875 1.169171 0.795 -0.374171
1771.62109375 2.326803 -0.003197 -2.33
1772.5703125 1.386291 0.759851 -0.62644
1773.140625 2.133021 0.352326 -1.780695
1774.10546875 1.204963 0.694963 -0.51
1774.87109375 1.358076 0.708135 -0.649941
1775.5625 1.183959 0.790658 -0.393301
1776.20703125 1.110891 0.707444 -0.403447
1776.890625 1.3264559999999999 0.727955 -0.598501
1777.5625 1.191594 0.820625 -0.370969
1778.37109375 1.058971 0.775131 -0.28384
1779.00390625 2.01237 0.10737 -1.905
1780.01953125 1.179438 0.819994 -0.359444
1780.50390625 2.029157 0.114217 -1.91494
1781.3671875 1.1509960000000001 0.81605 -0.334946
1781.82421875 2.177953 -0.059234 -2.237187
1782.87890625 1.503815 0.953921 -0.549894
1783.5 2.112883 0.445 -1.667883
1784.50390625 1.3130229999999998 0.90372 -0.409303
1785.25 1.1346 0.775 -0.3596
1785.9609375 1.2783790000000002 0.75 -0.528379
1786.6640625 1.3292869999999999 0.959538 -0.369749
1787.37890625 1.192229 0.797276 -0.394953
1788.0859375 1.188697 0.689546 -0.499151
1788.77734375 1.073549 0.439861 -0.633688
1789.46875 1.213309 0.943309 -0.27
1790.18359375 1.189888 0.999888 -0.19
1790.95703125 1.181762 0.8134 -0.368362
1791.7421875 1.143611 0.883611 -0.26
1792.4375 1.086665 0.647014 -0.439651
1793.12109375 1.233056 0.823127 -0.409929
1793.73046875 1.253719 0.949889 -0.30383
1794.41015625 1.132648 0.797762 -0.334886
1794.9765625 1.9166420000000002 -0.027529 -1.944171
1795.86328125 1.306693 0.976726 -0.329967
1796.6640625 1.164976 0.959976 -0.205
1797.4296875 1.2299309999999999 0.850015 -0.379916
1798.0078125 1.647458 0.07766 -1.569798
1798.73828125 1.292725 1.011725 -0.281
1799.32421875 2.3812759999999997 0.158717 -2.222559
1800.25 1.26825 0.765 -0.50325
1800.9921875 1.3530739999999999 1.04334 -0.309734
1801.74609375 1.236939 0.851971 -0.384968
1802.5 1.149635 0.56 -0.589635
1803.2265625 1.2738580000000002 0.094062 -1.179796
1803.9140625 1.366299 0.874632 -0.491667
1804.62109375 1.0658239999999999 0.906137 -0.159687
