56 
154 
251 
348 
466 
608 
753 
892 
1031 
1165 
1303 
1443 
1578 
1718 
1859 
2002 
2136 
2277 
2411 
2549 
2694 
2837 
2974 
3117 
3253 
3390 
3526 
3666 
3809 
3949 
4092 
4228 
4365 
4501 
4641 
4782 
4924 
5061 
5203 
5337 
5474 
5615 
5753 
5891 
6030 
6174 
6316 
6455 
6590 
6730 
6872 
7015 
7152 
7293 
7427 
7565 
7703 
7840 
7977 
8118 
8262 
8398 
8535 
8673 
8812 
8952 
9096 
9236 
9377 
9510 
9648 
9787 
9927 
10066 
10205 
10347 
10486 
10623 
10758 
10895 
11035 
11178 
11315 
11456 
11594 
11730 
11867 
12009 
12144 
12287 
12431 
12571 
12707 
12845 
12981 
13122 
13265 
13404 
13542 
13679 
13816 
13951 
14092 
14228 
14368 
14507 
14647 
14785 
14924 
15058 
15196 
15341 
15484 
15625 
15764 
15898 
16038 
16150 
16309 
16453 
16592 
16737 
16872 
17009 
17145 
17287 
17428 
17570 
17709 
17848 
17982 
18119 
18260 
18401 
18541 
18681 
18822 
18960 
19103 
19237 
19374 
19516 
19658 
19795 
19934 
20070 
20208 
20346 
20485 
20624 
20764 
20907 
21049 
21188 
21325 
21467 
21610 
21755 
21891 
22034 
22170 
22309 
22449 
22588 
22727 
22869 
23011 
23148 
23287 
23426 
23563 
23702 
23845 
23986 
24126 
24262 
24403 
24542 
24683 
24825 
24964 
25106 
25248 
25389 
25525 
25663 
25803 
25947 
26084 
26227 
26361 
26500 
26638 
26780 
26918 
27059 
27200 
27342 
27480 
27619 
27756 
27898 
28039 
28178 
28320 
28458 
28595 
28731 
28874 
29008 
29148 
29289 
29429 
29566 
29706 
29841 
29980 
30124 
30268 
30406 
30537 
30683 
30816 
30964 
31087 
31243 
31381 
31529 
31664 
31808 
31944 
32083 
32224 
32364 
32505 
32643 
32785 
32916 
33059 
33197 
33341 
33482 
33620 
33758 
33893 
34033 
34172 
34312 
34452 
34595 
34733 
34869 
35001 
35148 
35274 
35423 
35549 
35708 
35836 
35983 
36120 
36261 
36402 
36545 
36684 
36823 
36961 
37100 
37238 
37374 
37518 
37658 
37799 
37934 
38071 
38210 
38335 
38488 
38617 
38768 
38894 
39044 
39179 
39319 
39457 
39597 
39734 
39880 
40016 
40154 
40289 
40429 
40564 
40711 
40832 
40989 
41121 
41261 
41402 
41535 
41676 
41816 
41960 
42094 
42233 
42372 
42507 
42650 
42779 
42936 
43064 
43212 
43345 
43490 
43629 
43770 
43911 
44052 
44188 
44328 
44466 
44604 
44738 
44889 
45009 
45169 
45305 
45443 
45583 
45720 
45856 
46001 
46138 
46282 
46412 
46556 
46686 
46838 
46980 
47120 
47261 
47395 
47533 
47668 
47804 
47943 
48076 
48224 
48353 
48507 
48642 
48780 
48920 
49068 
49207 
49346 
49482 
49626 
49764 
49904 
50042 
50186 
50325 
50466 
50595 
50740 
50864 
51020 
51158 
51302 
51444 
51582 
51718 
51857 
51995 
52135 
52274 
52421 
52560 
52702 
52844 
52982 
53121 
53266 
53406 
53549 
53683 
53820 
53947 
54102 
54238 
54377 
54519 
54660 
54797 
54938 
55073 
55213 
55345 
55500 
55628 
55779 
55918 
56055 
56196 
56335 
56475 
56615 
56756 
56892 
57030 
57168 
57307 
57447 
57584 
57720 
57867 
58003 
58142 
58285 
58423 
58571 
58707 
58852 
58989 
59131 
59262 
59408 
59549 
59690 
59829 
59970 
60099 
60243 
60379 
60520 
60655 
60805 
60945 
61082 
61223 
61360 
61501 
61646 
61788 
61926 
62056 
62168 
62334 
62483 
62621 
62761 
62898 
63040 
63176 
63313 
63447 
63588 
63723 
63872 
63997 
64152 
64288 
64429 
64572 
64706 
64848 
64990 
65135 
65272 
65405 
65553 
65690 
65830 
65964 
66109 
66237 
66391 
66527 
66667 
66806 
66951 
67089 
67231 
67367 
67510 
67647 
67785 
67925 
68065 
68196 
68345 
68465 
68616 
68738 
68894 
69032 
69169 
69314 
69450 
69588 
69725 
69864 
70006 
70148 
70287 
70430 
70565 
70699 
70847 
70969 
71124 
71266 
71409 
71552 
71691 
71827 
71965 
72107 
72249 
72381 
72528 
72648 
72804 
72944 
73084 
73227 
73366 
73510 
73649 
73793 
73927 
74066 
74208 
74357 
74494 
74636 
74773 
74914 
75050 
75181 
75329 
75454 
75614 
75735 
75893 
76034 
76171 
76311 
76456 
76596 
76737 
76872 
77014 
77142 
77291 
77421 
77572 
77714 
77853 
77994 
78128 
78264 
78408 
78551 
78688 
78831 
78965 
79104 
79242 
79364 
79522 
79647 
79811 
79951 
80091 
80233 
80369 
80509 
80654 
80792 
80932 
81068 
81204 
81339 
81479 
81612 
81761 
81888 
82043 
82174 
82322 
82458 
82601 
82744 
82885 
83027 
83164 
83295 
83438 
83565 
83718 
83851 
84004 
84143 
84280 
84418 
84556 
84695 
84837 
84976 
85119 
85256 
85393 
85530 
85675 
85800 
85959 
86101 
86245 
86382 
86520 
86660 
86802 
86944 
87085 
87228 
87364 
87501 
87608 
87778 
87916 
88058 
88203 
88343 
88481 
88621 
88758 
88875 
89045 
89189 
89328 
89467 
89605 
89746 
89887 
90025 
90169 
90312 
90450 
90587 
90728 
90863 
91003 
91150 
91292 
91431 
91568 
91707 
91850 
91989 
92090 
92264 
92411 
92551 
92689 
92829 
92964 
93106 
93252 
93392 
93530 
93666 
93806 
93941 
94083 
94223 
94363 
94506 
94646 
94783 
94923 
95061 
95206 
95348 
95487 
95598 
95766 
95908 
96046 
96188 
96325 
96431 
96604 
96745 
96884 
97022 
97160 
97304 
97445 
97585 
97725 
97863 
98001 
98137 
98281 
98418 
98559 
98705 
98844 
98981 
99119 
99258 
99404 
99546 
99684 
99828 
99963 
100102 
100241 
100383 
100520 
100663 
100806 
100944 
101085 
101227 
101364 
101505 
101622 
101792 
101934 
102073 
102212 
102351 
102492 
102632 
102771 
102912 
103054 
103193 
103328 
103465 
103606 
103755 
103893 
104033 
104167 
104315 
104452 
104592 
104734 
104877 
105016 
105155 
105294 
105437 
105572 
105712 
105858 
105997 
106142 
106275 
106412 
106552 
106692 
106829 
106969 
107112 
107251 
107390 
107531 
107671 
107811 
107956 
108098 
108238 
108373 
108514 
108654 
108792 
108929 
109071 
109213 
109352 
109490 
109632 
109768 
109907 
110053 
110195 
110334 
110472 
110614 
110751 
110891 
111031 
111175 
111316 
111456 
111597 
111737 
111869 
112009 
112152 
112296 
112433 
112548 
112706 
112848 
112988 
113123 
113263 
113405 
113530 
113688 
113827 
113965 
114106 
114247 
114389 
114529 
114667 
114803 
114941 
115081 
115214 
115358 
115487 
115639 
115766 
115918 
116053 
116193 
116329 
116481 
116620 
116760 
116893 
117042 
117176 
117318 
117451 
117603 
117734 
117887 
118025 
118160 
118297 
118448 
118584 
118729 
118858 
119008 
119127 
119286 
119413 
119568 
119703 
119855 
119994 
120130 
120266 
120406 
120554 
120698 
120828 
120975 
121109 
121251 
121377 
121534 
121663 
121816 
121946 
122101 
122238 
122372 
122513 
122665 
122807 
122947 
123081 
123227 
123350 
123508 
123635 
123789 
123919 
124075 
124212 
124349 
124489 
124634 
124775 
124918 
125059 
125196 
125333 
125473 
125601 
125757 
125882 
126045 
126170 
126328 
126463 
126602 
126745 
126891 
127031 
127169 
127305 
127444 
127581 
127721 
127848 
128001 
128133 
128283 
128415 
128563 
128701 
128843 
128988 
129127 
129272 
129407 
129536 
129684 
129810 
129967 
130109 
130251 
130387 
130525 
130662 
130802 
130941 
131085 
131213 
131366 
131481 
131642 
131782 
131920 
132053 
132202 
132346 
132485 
132613 
132763 
132901 
133042 
133189 
133325 
133465 
133601 
133730 
133877 
134005 
134157 
134297 
134438 
134575 
134715 
134849 
134993 
135132 
135281 
135413 
135570 
135704 
135843 
135983 
136125 
136261 
136399 
136531 
136683 
136820 
136957 
137085 
137239 
137382 
137519 
137656 
137797 
137936 
138074 
138216 
138354 
138486 
138642 
138776 
138922 
139059 
139203 
139346 
139487 
139626 
139768 
139907 
140045 
140178 
140326 
140454 
140603 
140731 
140889 
141029 
141167 
141308 
141449 
141594 
141714 
141877 
142014 
142153 
142293 
142431 
142568 
142694 
142855 
142994 
143130 
143271 
143410 
143548 
143692 
143833 
143975 
144112 
144250 
144393 
144537 
144675 
144816 
144945 
145100 
145220 
145379 
145522 
145663 
145806 
145944 
146089 
146223 
146361 
146486 
146642 
146779 
146921 
147051 
147208 
147345 
147484 
147625 
147766 
147910 
148051 
148194 
148330 
148466 
148608 
148747 
148886 
149025 
149171 
149309 
149447 
149585 
149725 
149866 
150010 
150151 
150296 
150430 
150571 
150706 
150852 
150993 
151117 
151278 
151419 
151562 
151696 
151834 
151978 
152121 
152259 
152395 
152535 
152673 
152817 
152955 
153096 
153236 
153386 
153524 
153666 
153805 
153948 
154088 
154230 
154365 
154517 
154654 
154789 
154929 
155068 
155213 
155353 
155497 
155632 
155781 
155915 
156047 
156202 
156335 
156482 
156610 
156767 
156905 
157049 
157184 
157327 
157471 
157611 
157748 
157889 
158025 
158164 
158295 
158451 
158589 
158730 
158870 
159006 
159147 
159285 
159432 
159571 
159709 
159853 
159979 
160136 
160257 
160419 
160547 
160709 
160847 
160983 
161122 
161267 
161400 
161542 
161683 
161831 
161965 
162104 
162226 
162386 
162520 
162675 
162817 
162929 
163096 
163234 
163379 
163518 
163660 
163802 
163947 
164084 
164211 
164362 
164487 
164650 
164793 
164900 
165067 
165209 
165347 
165493 
165633 
165773 
165918 
166062 
166180 
166338 
166480 
166622 
166767 
166908 
167051 
167186 
167327 
167465 
167609 
167747 
167888 
168034 
168176 
168316 
168455 
168598 
168740 
168882 
169024 
169167 
169306 
169451 
169591 
169732 
169871 
170019 
170162 
170302 
170442 
170583 
170721 
170863 
171009 
171150 
171291 
171427 
171566 
171711 
171852 
171992 
172134 
172282 
172422 
172562 
172699 
172844 
172986 
173130 
173270 
173414 
173549 
173688 
173833 
173971 
174113 
174255 
174402 
174539 
174679 
174819 
174960 
175103 
175249 
175392 
175533 
175669 
175812 
175953 
176091 
176236 
176377 
176520 
176658 
176801 
176937 
177076 
177224 
177368 
177507 
177649 
177788 
177926 
178068 
178207 
178357 
178498 
178639 
178780 
178924 
179061 
179202 
179349 
179493 
179633 
179769 
179911 
180048 
180191 
180330 
180471 
180612 
180754 
180895 
181033 
181172 
181319 
181465 
181606 
181749 
181888 
182028 
182166 
182309 
182447 
182590 
182736 
182873 
183013 
183154 
183293 
183434 
183579 
183723 
183864 
184001 
184144 
184283 
184425 
184568 
184710 
184859 
185000 
185141 
185281 
185420 
185563 
185711 
185848 
185989 
186127 
186265 
186407 
186547 
186682 
186832 
186980 
187120 
187261 
187403 
187544 
187688 
187835 
187974 
188116 
188255 
188393 
188538 
188676 
188822 
188961 
189106 
189243 
189382 
189521 
189661 
189812 
189954 
190093 
190236 
190381 
190522 
190665 
190805 
190948 
191091 
191236 
191374 
191513 
191653 
191795 
191939 
192081 
192226 
192363 
192503 
192643 
192783 
192923 
193069 
193214 
193354 
193496 
193637 
193773 
193920 
194068 
194208 
194352 
194490 
194631 
194769 
194912 
195052 
195192 
195337 
195475 
195620 
195755 
195897 
196037 
196190 
196320 
196475 
196612 
196755 
196900 
197038 
197181 
197328 
197471 
197609 
197741 
197890 
198022 
198175 
198312 
198458 
198588 
198741 
198871 
199022 
199155 
199308 
199444 
199595 
199738 
199881 
200014 
200159 
200299 
200451 
200582 
200730 
200854 
201010 
201139 
201288 
201425 
201574 
201717 
201855 
201999 
202136 
202277 
202422 
202567 
202710 
202849 
202988 
203117 
203277 
203403 
203557 
203683 
203845 
203972 
204123 
204252 
204405 
204548 
204687 
204831 
204970 
205109 
205246 
205390 
205525 
205661 
205812 
205940 
206098 
206237 
206378 
206518 
206662 
206804 
206950 
207084 
207223 
207346 
207502 
207641 
207782 
207921 
208066 
208197 
208347 
208485 
208627 
208772 
208916 
209059 
209194 
209332 
209475 
209610 
209752 
209880 
210039 
210163 
210326 
210451 
210602 
210750 
210891 
211030 
211171 
211311 
211454 
211591 
211732 
211868 
212024 
212155 
212307 
212442 
212589 
212734 
212876 
213021 
213161 
213306 
213442 
213571 
213725 
213854 
214007 
214142 
214299 
214442 
214579 
214716 
214862 
215012 
215155 
215294 
215435 
215578 
215716 
215856 
215999 
216146 
216288 
216420 
216570 
216713 
216852 
216994 
217144 
217251 
217423 
217549 
217706 
217850 
217989 
218132 
218276 
218425 
218565 
218706 
218846 
218989 
219131 
219264 
219420 
219546 
219699 
219827 
219987 
220125 
220271 
220410 
220558 
220699 
220839 
220976 
221120 
221263 
221416 
221544 
221701 
221833 
221981 
222124 
222265 
222409 
222550 
222693 
222833 
222972 
223109 
223253 
223400 
223543 
223684 
223820 
223961 
224083 
224246 
224390 
224537 
224679 
224821 
224956 
225107 
225244 
225387 
225534 
225674 
225816 
225953 
226097 
226241 
226344 
226443 
226654 
226807 
226945 
227087 
227225 
227369 
227503 
227659 
227798 
227939 
228075 
228219 
228358 
228497 
228639 
228777 
228909 
229059 
229186 
229472 
229625 
229770 
229909 
230051 
230192 
230331 
230473 
230614 
230757 
230882 
231043 
231185 
231324 
231463 
231606 
231749 
231892 
232029 
232177 
232313 
232444 
232582 
232737 
232869 
233021 
233171 
233310 
233452 
233595 
233735 
233880 
234029 
234170 
234299 
234452 
234588 
234738 
234877 
235022 
235164 
235311 
235449 
235590 
235731 
235876 
235991 
236162 
236290 
236450 
236593 
236693 
236866 
237012 
237159 
237303 
237444 
237590 
237727 
237867 
238013 
238157 
238300 
238445 
238579 
238722 
238867 
239008 
239149 
239291 
239444 
239583 
239725 
239865 
240011 
240155 
240301 
240441 
240581 
240723 
240865 
241009 
241145 
241290 
241437 
241578 
241691 
241860 
242002 
242144 
242291 
242438 
242580 
242721 
242866 
243005 
243149 
243292 
243434 
243580 
243725 
243864 
244002 
244144 
244288 
244434 
244575 
244719 
244854 
244993 
245139 
245277 
245419 
245565 
245713 
245852 
245996 
246137 
246277 
246421 
246570 
246710 
246853 
246991 
247131 
247273 
247411 
247558 
247703 
247844 
247981 
248122 
248259 
248398 
248547 
248696 
248837 
248976 
249116 
249254 
249401 
249544 
249688 
249830 
249972 
250112 
250251 
250386 
250525 
250672 
250812 
250952 
251090 
251232 
251369 
251509 
251648 
251794 
251938 
252077 
252221 
252361 
252497 
252640 
252785 
252926 
253067 
253204 
253343 
253480 
253622 
253761 
253904 
254050 
254191 
254334 
254468 
254607 
254748 
254891 
254994 
255185 
255321 
255461 
255597 
255735 
255876 
256017 
256160 
256268 
256432 
256571 
256707 
256846 
256993 
257134 
257275 
257410 
257547 
257686 
257829 
257966 
258108 
258254 
258397 
258537 
258675 
258818 
258962 
259109 
259249 
259394 
259533 
259672 
259813 
259957 
260098 
260242 
260388 
260533 
260675 
260814 
260959 
261109 
261255 
261396 
261544 
261684 
261824 
261968 
262113 
262259 
262399 
262547 
262689 
262830 
262969 
263113 
263263 
263406 
263549 
263692 
263834 
263975 
264122 
264266 
264410 
264558 
264704 
264846 
264985 
265128 
265278 
265424 
265565 
265714 
265851 
265992 
266137 
266280 
266424 
266567 
266717 
266856 
266993 
267141 
267287 
267436 
267563 
267726 
267852 
268012 
268134 
268299 
268423 
268587 
268724 
268871 
269007 
269154 
269281 
269436 
269583 
269718 
269843 
269975 
270135 
270299 
270424 
270584 
270732 
270873 
271003 
271156 
271282 
271441 
271569 
271727 
271850 
271976 
272140 
272282 
272429 
272567 
272708 
272854 
272987 
273146 
273278 
273425 
273558 
273718 
273854 
274006 
274145 
274285 
274415 
274572 
274698 
274852 
274986 
275139 
275270 
275420 
275555 
275706 
275844 
275996 
276136 
276276 
276413 
276522 
276609 
276841 
276991 
277135 
277279 
277409 
277561 
277703 
277844 
277990 
278133 
278278 
278411 
278553 
278700 
278840 
278983 
279127 
279275 
279398 
279555 
279701 
279842 
279989 
280135 
280279 
280418 
280560 
280702 
280843 
280983 
281128 
281272 
281415 
281558 
281687 
281839 
281965 
282135 
282271 
282423 
282558 
282706 
282845 
282991 
283134 
283274 
283422 
283563 
283705 
283841 
283984 
284131 
284264 
284413 
284559 
284700 
284840 
284982 
285124 
285267 
285409 
285559 
285701 
285844 
285975 
286131 
286256 
286420 
286550 
286705 
286843 
286986 
287130 
287268 
287415 
287561 
287703 
287845 
287989 
288126 
288254 
288418 
288562 
288705 
288838 
288989 
289123 
289274 
289413 
289564 
289707 
289850 
289996 
290132 
290273 
290420 
290563 
290705 
290841 
290990 
291129 
291278 
291416 
291561 
291705 
291855 
291997 
292138 
292278 
292424 
292572 
292716 
292858 
293002 
293124 
293286 
293432 
293571 
293718 
293859 
294005 
294149 
294289 
294427 
294574 
294724 
294852 
295009 
295153 
295297 
295435 
295577 
295726 
295868 
296018 
296158 
296300 
296440 
296584 
296729 
296859 
297019 
297164 
297299 
297442 
297588 
297691 
297871 
298014 
298164 
298302 
298446 
298584 
298729 
298875 
299022 
299165 
299301 
299445 
299585 
299724 
299867 
300005 
300158 
300298 
300443 
300582 
300721 
300867 
301016 
301157 
301303 
301444 
301584 
301710 
301871 
302015 
302160 
302307 
302443 
302589 
302718 
302863 
303016 
303148 
303307 
303446 
303585 
303727 
303876 
304013 
304158 
304307 
304453 
304593 
304734 
304860 
305024 
305171 
305316 
305460 
305597 
305738 
305881 
306025 
306167 
306311 
306460 
306592 
306742 
306883 
307032 
307176 
307325 
307470 
307618 
307755 
307894 
308044 
308183 
308327 
308471 
308621 
308759 
308900 
309042 
309187 
309334 
309479 
309626 
309766 
309907 
310050 
310194 
310335 
310482 
310634 
310774 
310914 
311059 
311204 
311348 
311496 
311640 
311783 
311919 
312063 
312209 
312347 
312495 
312639 
312783 
312923 
313068 
313212 
313356 
313504 
313652 
313801 
313939 
314083 
314229 
314374 
314513 
314659 
314809 
314949 
315089 
315233 
315378 
315522 
315669 
315814 
315961 
316100 
316243 
316390 
316534 
316680 
316827 
316976 
317115 
317262 
317404 
317550 
317693 
317839 
317986 
318129 
318266 
318407 
318558 
318699 
318843 
318989 
319138 
319281 
319421 
319564 
319715 
319867 
320008 
320152 
320294 
320440 
320582 
320722 
320869 
321018 
321162 
321302 
321449 
321594 
321738 
321881 
322030 
322177 
322319 
322462 
322610 
322755 
322895 
323043 
323194 
323342 
323483 
323622 
323769 
323918 
324065 
324206 
324352 
324496 
324640 
324783 
324925 
325076 
325220 
325367 
325506 
325657 
325801 
325944 
326096 
326243 
326385 
326526 
326668 
326816 
326961 
327101 
327245 
327396 
327541 
327684 
327825 
327972 
328120 
328266 
328409 
328560 
328703 
328846 
328991 
329137 
329284 
329428 
329579 
329723 
329864 
330005 
330156 
330305 
330444 
330592 
330736 
330880 
331021 
331166 
331315 
331458 
331605 
331748 
331899 
332041 
332183 
332328 
332482 
332629 
332771 
332914 
333053 
333201 
333344 
333486 
333633 
333780 
333927 
334065 
334206 
334355 
334509 
334651 
334794 
334936 
335087 
335233 
335372 
335519 
335670 
335817 
335957 
336104 
336247 
336390 
336534 
336682 
336830 
336971 
337107 
337257 
337404 
337546 
337693 
337845 
337988 
338130 
338270 
338419 
338568 
338717 
338859 
339009 
339152 
339291 
339436 
339568 
339729 
339864 
340019 
340163 
340309 
340442 
340593 
340745 
340893 
341035 
341178 
341320 
341469 
341605 
341757 
341885 
342055 
342195 
342343 
342484 
342621 
342760 
342919 
343055 
343207 
343334 
343487 
343619 
343781 
343914 
344069 
344209 
344366 
344502 
344648 
344786 
344947 
345084 
345231 
345363 
345519 
345650 
345797 
345925 
346092 
346231 
346379 
346515 
346666 
346805 
346952 
347105 
347250 
347390 
347533 
347672 
347820 
347953 
348110 
348244 
348394 
348533 
348688 
348827 
348970 
349117 
349266 
349407 
349547 
349693 
349837 
349968 
350122 
350274 
350422 
350563 
350708 
350851 
350992 
351137 
351288 
351434 
351575 
351713 
351855 
352003 
352142 
352285 
352431 
352560 
352721 
352864 
353004 
353142 
353299 
353432 
353592 
353727 
353876 
354018 
354165 
354308 
354452 
354600 
354746 
354883 
355023 
355170 
355313 
355450 
355607 
355737 
355892 
356018 
356181 
356318 
356475 
356618 
356763 
356910 
357054 
357193 
357336 
357489 
357636 
357776 
357914 
358058 
358205 
358334 
358609 
358785 
358929 
359080 
359214 
359360 
359505 
359654 
359796 
359944 
360074 
360227 
360362 
360512 
360660 
360807 
360956 
361093 
361236 
361378 
361527 
361674 
361810 
361963 
362084 
362248 
362390 
362537 
362686 
362826 
362972 
363117 
363259 
363402 
363541 
363693 
363831 
363982 
364125 
364263 
364412 
364559 
364693 
364840 
364988 
365137 
365276 
365423 
365541 
365713 
365850 
366004 
366154 
366290 
366433 
366578 
366723 
366865 
367010 
367159 
367297 
367443 
367585 
367726 
367870 
368022 
368164 
368308 
368438 
368550 
368728 
368872 
369024 
369174 
369317 
369457 
369602 
369744 
369888 
370037 
370164 
370327 
370466 
370610 
370757 
370897 
371040 
371189 
371335 
371475 
371621 
371768 
371911 
372057 
372200 
372351 
372495 
372637 
372784 
372928 
373068 
373217 
373322 
373501 
373636 
373793 
373931 
374078 
374229 
374377 
374520 
374660 
374808 
374955 
375095 
375239 
375388 
375540 
375680 
375827 
375972 
376112 
376247 
376406 
376554 
376698 
376835 
376975 
377121 
377269 
377419 
377561 
377708 
377855 
378003 
378143 
378285 
378440 
378589 
378734 
378864 
379020 
379167 
379307 
379450 
379597 
379750 
379886 
380031 
380175 
380323 
380468 
380612 
380759 
380885 
381052 
381152 
381239 
381476 
381629 
381773 
381919 
382067 
382206 
382344 
382491 
382641 
382783 
382927 
383068 
383212 
383354 
383496 
383644 
383792 
383939 
384082 
384230 
384370 
384517 
384671 
384814 
384959 
385106 
385248 
385388 
385535 
385677 
385822 
385969 
386113 
386260 
386397 
386542 
386690 
386838 
386986 
387132 
387274 
387420 
387567 
387707 
387855 
388005 
388150 
388294 
388438 
388582 
388725 
388875 
389022 
389166 
389305 
389452 
389600 
389739 
389886 
390037 
390188 
390329 
390476 
390623 
390768 
390914 
391064 
391213 
391355 
391495 
391635 
391785 
391931 
392074 
392219 
392367 
392515 
392654 
392795 
392942 
393098 
393244 
393388 
393526 
393671 
393824 
393969 
394113 
394258 
394409 
394556 
394697 
394837 
394986 
395139 
395279 
395424 
395567 
395715 
395856 
396001 
396150 
396294 
396447 
396593 
396736 
396876 
397023 
397177 
397323 
397468 
397611 
397757 
397899 
398043 
398185 
398333 
398484 
398625 
398769 
398911 
399060 
399210 
399359 
399506 
399654 
399793 
399935 
400081 
400228 
400376 
400477 
400571 
400740 
400912 
401051 
401197 
401349 
401498 
401642 
401782 
401922 
402066 
402217 
402360 
402504 
402650 
402799 
402941 
403086 
403226 
403377 
403531 
403673 
403815 
403958 
404103 
404246 
404389 
404537 
404680 
404828 
404974 
405122 
405261 
405405 
405557 
405709 
405851 
405993 
406138 
406284 
406429 
406572 
406724 
406861 
407010 
407155 
407303 
407445 
407588 
407737 
407883 
408033 
408173 
408315 
408461 
408608 
408760 
408903 
409050 
409190 
409337 
409484 
409630 
409777 
409920 
410070 
410215 
410357 
410490 
410644 
410783 
410939 
411069 
411227 
411357 
411524 
411666 
411813 
411966 
412115 
412248 
412395 
412531 
412692 
412824 
412976 
413110 
413273 
413410 
413556 
413694 
413853 
414000 
414144 
414280 
414434 
414567 
414725 
414865 
415012 
415152 
415312 
415448 
415592 
415719 
415815 
416037 
416180 
416324 
416470 
416616 
416754 
416886 
417050 
417195 
417340 
417460 
417634 
417774 
417918 
418070 
418219 
418361 
418501 
418643 
418779 
418938 
419075 
419219 
419342 
419517 
419664 
419802 
419944 
420095 
420244 
420363 
420531 
420675 
420815 
420958 
421102 
421253 
421378 
421542 
421688 
421828 
421969 
422117 
422263 
422406 
422551 
422693 
422834 
422976 
423127 
423266 
423409 
423544 
423705 
423847 
423988 
424121 
424284 
424429 
424573 
424716 
424863 
425007 
425150 
425290 
425441 
425588 
425731 
425838 
426010 
426148 
426299 
426453 
426599 
426743 
426885 
427034 
427176 
427320 
427464 
427614 
427764 
427905 
428051 
428197 
428336 
428468 
428632 
428779 
428922 
429041 
429200 
429345 
429495 
429642 
429783 
429929 
430074 
430224 
430367 
430512 
430664 
430812 
430957 
431081 
431247 
431372 
431532 
431683 
431826 
431972 
432115 
432265 
432403 
432550 
432699 
432843 
432990 
433113 
433283 
433425 
433574 
433697 
433863 
434010 
434157 
434305 
434442 
434583 
434734 
434884 
435023 
435168 
435310 
435459 
435600 
435723 
435889 
436042 
436191 
436316 
436460 
436624 
436769 
436918 
437067 
437210 
437355 
437499 
437638 
437784 
437928 
438075 
438218 
438346 
438510 
438639 
438795 
438943 
439096 
439238 
439385 
439529 
439669 
439816 
439959 
440109 
440251 
440399 
440545 
440681 
440827 
440958 
441128 
441271 
441416 
441560 
441705 
441849 
441989 
442137 
442287 
442435 
442575 
442713 
442867 
442995 
443160 
443299 
443454 
443601 
443741 
443881 
444029 
444173 
444317 
444463 
444609 
444751 
444894 
445037 
445185 
445339 
445480 
445625 
445772 
445914 
446061 
446189 
446357 
446504 
446651 
446795 
446938 
447080 
447229 
447376 
447524 
447672 
447810 
447958 
448102 
448212 
448387 
448538 
448686 
448829 
448978 
449121 
449264 
449414 
449564 
449707 
449852 
449988 
450139 
450271 
450433 
450580 
450727 
450873 
451020 
451158 
451302 
451451 
451599 
451744 
451896 
452026 
452179 
452308 
452471 
452623 
452768 
452912 
453058 
453201 
453340 
453485 
453637 
453783 
453927 
454060 
454216 
454362 
454503 
454640 
454802 
454946 
455094 
455240 
455384 
455528 
455676 
455829 
455974 
456115 
456260 
456403 
456546 
456687 
456837 
456987 
457129 
457265 
457415 
457545 
457708 
457858 
458005 
458153 
458291 
458433 
458584 
458729 
458875 
459019 
459168 
459311 
459450 
459591 
459741 
459892 
460033 
460181 
460323 
460457 
460608 
460754 
460903 
461047 
461156 
461329 
461480 
461622 
461764 
461908 
462061 
