3.80078125 1.617977 1.093933 -0.524044
4.75390625 1.505354 0.990354 -0.515
5.65625 1.630284 1.043683 -0.586601
6.5234375 1.811737 1.371737 -0.44
7.39453125 1.7984490000000002 1.303449 -0.495
8.25390625 1.701303 1.216358 -0.484945
9.16796875 1.558799 1.114942 -0.443857
10.08203125 1.600987 1.125206 -0.475781
11.0 1.6099999999999999 1.19 -0.42
11.89453125 1.545787 1.1914 -0.354387
12.80078125 1.489031 1.114883 -0.374148
13.6875 1.438849 0.933849 -0.505
14.5546875 1.583641 1.228485 -0.355156
15.46484375 1.542749 1.122944 -0.419805
16.3828125 1.4928020000000002 0.936359 -0.556443
17.28515625 1.511302 1.123446 -0.387856
18.1328125 1.545595 1.203313 -0.342282
18.97265625 1.5539239999999999 1.170572 -0.383352
19.83984375 1.5280930000000001 1.043093 -0.485
20.7265625 1.455784 0.922432 -0.533352
21.625 1.490693 0.99 -0.500693
22.515625 1.385768 0.840768 -0.545
23.37109375 1.638725 1.104155 -0.53457
24.2265625 1.603726 1.196407 -0.407319
25.0703125 1.573559 1.064697 -0.508862
25.890625 1.526934 1.142578 -0.384356
26.74609375 1.518097 1.164716 -0.353381
27.64453125 1.554308 1.210587 -0.343721
28.55859375 1.397283 1.032564 -0.364719
29.4140625 1.5649119999999999 1.144912 -0.42
30.25390625 1.7639719999999999 1.124441 -0.639531
31.06640625 1.866762 1.246574 -0.620188
31.859375 1.9840019999999998 1.419177 -0.564825
32.6640625 1.899675 1.429958 -0.469717
33.46875 1.980774 1.576184 -0.40459
34.26953125 1.913434 1.4864 -0.427034
35.05859375 1.898142 1.493196 -0.404946
35.86328125 1.8422040000000002 1.351371 -0.490833
36.62109375 1.7359909999999998 1.230354 -0.505637
37.37890625 1.7455669999999999 1.180761 -0.564806
38.1640625 1.921317 1.369349 -0.551968
38.96875 1.867908 1.488227 -0.379681
39.8125 1.808724 1.513724 -0.295
40.66796875 1.791932 1.433839 -0.358093
41.453125 1.7235669999999998 1.307624 -0.415943
42.20703125 1.636539 1.205243 -0.431296
42.98046875 1.624292 1.199649 -0.424643
43.77734375 1.624231 1.209231 -0.415
44.5859375 1.5992739999999999 1.114274 -0.485
45.41796875 1.524467 1.102697 -0.42177
46.26171875 1.5101280000000001 1.235597 -0.274531
47.1015625 1.459225 1.179225 -0.28
47.91796875 1.398889 1.024621 -0.374268
48.69921875 1.4143270000000001 1.019708 -0.394619
49.48046875 1.4553289999999999 1.024692 -0.430637
50.2734375 1.512683 1.104677 -0.408006
51.09765625 1.44346 1.053574 -0.389886
51.90625 1.429037 1.035189 -0.393848
52.7109375 1.4189630000000002 1.024075 -0.394888
53.51953125 1.424412 0.999783 -0.424629
54.328125 1.50201 1.037042 -0.464968
55.16796875 1.553587 1.118587 -0.435
56.03515625 1.501925 0.957755 -0.54417
56.92578125 1.5711430000000002 0.951026 -0.620117
57.8359375 1.578509 0.993509 -0.585
58.79296875 1.4948160000000001 0.944774 -0.550042
59.71875 1.5059360000000002 1.016445 -0.489491
60.578125 1.602478 1.157615 -0.444863
61.47265625 1.5665879999999999 1.128776 -0.437812
62.36328125 1.546422 1.071061 -0.475361
63.28125 1.56667 0.987362 -0.579308
64.23828125 1.601694 1.097324 -0.50437
65.15625 1.5392549999999998 1.189255 -0.35
66.0390625 1.545029 1.259521 -0.285508
66.9140625 1.549814 1.329831 -0.219983
67.78515625 1.520624 1.350163 -0.170461
68.66796875 1.448137 1.258137 -0.19
69.5546875 1.566926 1.298391 -0.268535
70.48046875 1.5445849999999999 1.224832 -0.319753
71.3984375 1.45405 1.044511 -0.409539
72.24609375 1.479518 0.994518 -0.485
73.08203125 1.561262 1.112652 -0.44861
73.9921875 1.615239 1.215473 -0.399766
74.90625 1.53023 1.106382 -0.423848
75.83984375 1.500963 0.982815 -0.518148
76.7265625 1.637129 1.075021 -0.562108
77.59375 1.8140290000000001 1.32216 -0.491869
78.453125 1.7239550000000001 1.248955 -0.475
79.328125 1.791242 1.366953 -0.424289
80.16796875 1.811334 1.312323 -0.499011
80.984375 1.5408529999999998 1.211453 -0.3294
81.8515625 1.542764 1.116264 -0.4265
82.7265625 1.554176 1.105 -0.449176
83.578125 1.489555 1.020292 -0.469263
84.40625 1.408986 1.039233 -0.369753
85.2421875 1.4265320000000001 1.026782 -0.39975
86.06640625 1.391102 1.112717 -0.278385
86.97265625 1.370699 1.180699 -0.19
87.87109375 1.385605 1.060605 -0.325
88.7421875 1.487462 0.931629 -0.555833
89.6171875 1.666179 0.945179 -0.721
90.45703125 1.573492 0.890364 -0.683128
91.29296875 1.520043 0.951241 -0.568802
92.125 2.063352 1.555 -0.508352
92.9609375 1.219126 2.049181 0.830055
93.8203125 0.8027340000000001 1.385 0.582266
94.6953125 0.9816229999999999 0.887489 -0.094134
95.52734375 1.179701 0.664701 -0.515
96.328125 1.418403 0.644678 -0.773725
97.1640625 1.6593840000000002 0.699926 -0.959458
98.0234375 1.928765 0.843272 -1.085493
98.8828125 1.564625 0.684625 -0.88
99.75390625 1.612867 0.503277 -1.10959
100.6015625 1.745035 0.720035 -1.025
101.46875 1.7826780000000002 0.97235 -0.810328
102.32421875 1.723647 1.039194 -0.684453
103.16796875 1.6023800000000001 1.03238 -0.57
104.0234375 1.642993 1.088285 -0.554708
104.921875 1.427044 1.072736 -0.354308
105.828125 1.43282 1.08282 -0.35
106.74609375 1.50824 1.059506 -0.448734
107.6328125 1.476975 0.833755 -0.64322
108.49609375 1.439406 0.954745 -0.484661
109.375 1.5197509999999999 1.035 -0.484751
110.25390625 1.4498259999999998 0.839204 -0.610622
111.1484375 1.456344 0.991344 -0.465
112.05078125 1.405582 1.018717 -0.386865
112.96484375 1.544985 1.14446 -0.400525
113.8203125 2.023521 1.19785 -0.825671
114.62109375 1.739572 0.884627 -0.854945
115.39453125 1.821065 1.199666 -0.621399
116.19140625 1.743522 0.964114 -0.779408
117.015625 1.751709 0.93808 -0.813629
117.8359375 1.669536 1.129669 -0.539867
118.6484375 1.564018 1.279018 -0.285
119.4140625 1.4911629999999998 1.361163 -0.13
120.1875 1.474037 1.553099 0.079062
120.9609375 1.342308 1.479757 0.137449
121.7109375 1.409567 1.324691 -0.084876
122.484375 1.4915479999999999 0.696816 -0.794732
123.296875 1.495455 0.502354 -0.993101
124.09765625 1.545027 0.506005 -1.039022
124.9375 1.5648339999999998 0.590526 -0.974308
125.74609375 1.5218859999999999 0.763486 -0.7584
126.53515625 1.76939 0.98939 -0.78
127.33203125 1.801951 1.025832 -0.776119
128.16015625 1.805319 1.311168 -0.494151
129.0 1.809888 1.41 -0.399888
129.86328125 1.689306 1.485076 -0.20423
130.72265625 1.690913 1.61856 -0.072353
131.55078125 1.532695 1.438921 -0.093774
132.375 1.8973360000000001 2.145 0.247664
133.17578125 1.693731 1.978456 0.284725
133.96484375 2.084142 1.565091 -0.519051
134.765625 1.610318 1.006845 -0.603473
135.609375 1.8482290000000001 1.213502 -0.634727
136.45703125 1.9646029999999999 1.284699 -0.679904
137.28125 2.0603819999999997 1.366858 -0.693524
138.05078125 1.8076089999999998 1.2567 -0.550909
138.82421875 2.061828 1.311828 -0.75
139.578125 2.139246 1.390945 -0.748301
140.3515625 1.945875 1.896867 -0.049008
141.15234375 1.793695 1.535208 -0.258487
141.984375 1.948042 1.094042 -0.854
142.77734375 2.077537 0.9178 -1.159737
143.57421875 1.9845140000000001 1.344591 -0.639923
144.34765625 1.910419 1.515471 -0.394948
145.10546875 1.8136229999999998 1.399795 -0.413828
145.86328125 1.442978 1.208336 -0.234642
146.6484375 1.498301 0.748301 -0.75
147.4609375 1.5932469999999999 0.948247 -0.645
148.27734375 1.654258 1.081225 -0.573033
149.07421875 1.57822 1.019163 -0.559057
149.8515625 1.438739 1.014618 -0.424121
150.609375 1.4224890000000001 1.247891 -0.174598
151.43359375 1.532031 1.024554 -0.507477
152.2578125 1.4473799999999999 0.820818 -0.626562
153.07421875 1.7435230000000002 1.059158 -0.684365
153.90234375 2.1966330000000003 1.426633 -0.77
154.74609375 1.794445 1.327961 -0.466484
155.58203125 1.794171 1.28121 -0.512961
156.40625 1.887792 1.403015 -0.484777
157.23828125 1.8180390000000002 1.418233 -0.399806
158.10546875 1.76586 1.401391 -0.364469
159.03125 1.7398479999999998 1.348261 -0.391587
159.9765625 1.759308 1.243475 -0.515833
160.91015625 1.6935310000000001 1.149805 -0.543726
161.7890625 1.602991 1.064958 -0.538033
162.61328125 1.817316 1.092316 -0.725
163.45703125 1.751897 1.113966 -0.637931
164.34765625 1.8191829999999998 1.303262 -0.515921
165.24609375 1.627269 1.230019 -0.39725
166.16796875 1.814788 1.314815 -0.499973
167.09765625 1.743115 1.245154 -0.497961
167.98828125 1.657147 1.166313 -0.490834
168.84375 1.536898 1.155 -0.381898
169.69140625 1.621 1.212631 -0.408369
170.5390625 1.8111359999999999 1.239614 -0.571522
171.4609375 1.719391 1.199505 -0.519886
172.3828125 1.5032040000000002 1.228204 -0.275
173.21875 1.7792119999999998 1.294212 -0.485
174.0859375 1.764411 1.259286 -0.505125
174.98046875 1.675462 1.134761 -0.540701
175.23828125 2.658633 -0.515692 -3.174325
176.20703125 3.127011 1.19 -1.937011
176.75 1.4449999999999998 2.42 0.975
177.68359375 1.477371 1.677996 0.200625
178.5859375 1.835734 1.479222 -0.356512
179.51953125 1.773762 1.244636 -0.529126
180.35546875 1.8355569999999999 1.163482 -0.672075
181.234375 1.875194 1.275194 -0.6
182.15234375 1.884787 1.336633 -0.548154
183.0703125 1.83 1.315 -0.515
183.95703125 2.090803 1.468582 -0.622221
184.8984375 2.030699 1.515699 -0.515
185.8046875 1.976235 1.54736 -0.428875
186.66015625 1.9754330000000002 1.586375 -0.389058
187.52734375 2.039032 1.663014 -0.376018
188.41796875 2.019809 1.589311 -0.430498
189.34375 2.040582 1.586025 -0.454557
190.2890625 1.770352 1.371165 -0.399187
191.1953125 1.9025640000000001 1.414122 -0.488442
192.04296875 1.933554 1.373566 -0.559988
192.90234375 1.93178 1.469216 -0.462564
193.76953125 1.899702 1.399702 -0.5
194.671875 1.869824 1.29983 -0.569994
195.6015625 1.877724 1.279642 -0.598082
196.53125 1.9349919999999998 1.286865 -0.648127
197.46484375 1.6431149999999999 1.120615 -0.5225
198.33203125 1.875651 1.297333 -0.578318
199.19140625 2.022701 1.427301 -0.5954
200.0546875 2.017223 1.458281 -0.558942
200.96875 2.009427 1.500571 -0.508856
201.88671875 1.859957 1.476246 -0.383711
202.78125 2.172047 1.747047 -0.425
203.62890625 2.209419 1.819419 -0.39
204.4453125 2.222187 1.851999 -0.370188
205.30859375 2.1270680000000004 2.137068 0.01
206.19140625 2.167967 1.738946 -0.429021
207.1015625 2.034141 1.351845 -0.682296
208.04296875 1.9570990000000001 1.526976 -0.430123
208.92578125 2.061593 1.626593 -0.435
209.82421875 2.029216 1.559587 -0.469629
210.703125 2.080021 1.607754 -0.472267
211.57421875 2.062128 1.533599 -0.528529
212.48046875 2.042631 1.529898 -0.512733
213.41796875 1.930892 1.55888 -0.372012
214.3359375 2.029077 1.594359 -0.434718
215.26953125 2.00387 1.589921 -0.413949
216.18359375 1.8601020000000001 1.511238 -0.348864
217.07421875 2.11665 1.80165 -0.315
217.984375 2.050446 1.591661 -0.458785
218.9296875 1.92793 1.528502 -0.399428
219.8828125 2.071563 1.666299 -0.405264
220.875 1.974953 1.605 -0.369953
221.8125 1.9033760000000002 1.548923 -0.354453
222.66796875 1.9336929999999999 1.594012 -0.339681
223.51171875 1.8542809999999998 1.506443 -0.347838
224.3671875 1.992434 1.697481 -0.294953
225.296875 1.9638140000000002 1.628845 -0.334969
226.25390625 1.902954 1.581633 -0.321321
227.19140625 1.856712 1.508182 -0.34853
228.08984375 1.854777 1.472777 -0.382
229.0078125 1.8456279999999998 1.422273 -0.423355
229.921875 1.847972 1.299498 -0.548474
230.8515625 1.782934 1.119019 -0.663915
231.7578125 1.90394 1.343981 -0.559959
232.7109375 1.842913 1.354246 -0.488667
233.66015625 1.745381 1.312813 -0.432568
234.51953125 2.004783 1.479783 -0.525
235.37109375 2.001685 1.37716 -0.624525
236.3125 1.939019 1.323984 -0.615035
237.26953125 1.880933 1.299936 -0.580997
238.19921875 1.854255 1.201174 -0.653081
239.078125 2.037173 1.532454 -0.504719
239.91796875 2.087827 1.372839 -0.714988
240.78515625 2.136363 1.669493 -0.46687
241.64453125 1.965874 1.739736 -0.226138
242.515625 1.9201089999999998 1.651201 -0.268908
243.484375 1.8610609999999999 1.653217 -0.207844
244.4453125 1.92885 1.529274 -0.399576
245.3828125 2.0386230000000003 1.573727 -0.464896
246.296875 2.029029 1.523606 -0.505423
247.21484375 2.006282 1.451819 -0.554463
248.1796875 1.9486189999999999 1.425798 -0.522821
249.16015625 1.8597229999999998 1.336469 -0.523254
250.16796875 2.021274 1.55148 -0.469794
251.10546875 2.176177 1.609671 -0.566506
252.046875 2.125643 1.585223 -0.54042
252.96875 2.117538 1.570646 -0.546892
253.87890625 1.987307 1.472358 -0.514949
254.83984375 1.826222 1.347813 -0.478409
255.81640625 2.0752740000000003 1.59441 -0.480864
256.796875 2.096615 1.581349 -0.515266
257.75390625 2.082122 1.556752 -0.52537
258.6953125 1.8418679999999998 1.500352 -0.341516
259.640625 1.848965 1.540184 -0.308781
260.6015625 1.861971 1.462375 -0.399596
261.546875 1.82539 1.308723 -0.516667
262.54296875 1.787776 1.204255 -0.583521
263.5234375 1.7576269999999998 1.116833 -0.640794
264.44140625 1.7619639999999999 1.215878 -0.546086
265.35546875 1.870368 1.360302 -0.510066
266.28515625 1.843106 1.398672 -0.444434
267.29296875 1.710784 1.315814 -0.39497
268.30078125 1.514481 1.124629 -0.389852
269.27734375 1.711262 1.222283 -0.488979
270.23046875 1.62365 1.218679 -0.404971
271.14453125 1.879465 1.384698 -0.494767
272.08203125 1.8063470000000001 1.32651 -0.479837
273.02734375 1.8236320000000001 1.358632 -0.465
274.01953125 1.804515 1.384713 -0.419802
275.03125 1.730375 1.355917 -0.374458
275.9921875 1.64086 1.326672 -0.314188
276.921875 1.596978 1.213033 -0.383945
277.8203125 1.799686 1.435462 -0.364224
278.77734375 1.857453 1.386676 -0.470777
279.78125 1.81877 1.313987 -0.504783
280.79296875 1.743386 1.234714 -0.508672
281.73828125 1.8303559999999999 1.367657 -0.462699
282.6953125 1.8523839999999998 1.322609 -0.529775
283.64453125 1.924841 1.404841 -0.52
284.59765625 1.848713 1.356287 -0.492426
285.625 1.651503 1.17 -0.481503
286.65625 1.569105 1.125 -0.444105
287.65234375 1.449421 1.073765 -0.375656
288.55859375 1.741484 1.511513 -0.229971
289.47265625 1.6919170000000001 1.186917 -0.505
290.41015625 1.7728959999999998 1.265334 -0.507562
291.33984375 1.6840140000000001 1.126014 -0.558
292.21484375 1.612543 1.290152 -0.322391
293.140625 1.8597519999999998 1.575667 -0.284085
294.03125 1.753593 1.56069 -0.192903
294.94921875 1.780925 1.506436 -0.274489
295.84375 1.737778 1.36589 -0.371888
296.78515625 1.855585 1.335585 -0.52
297.80078125 1.919364 1.391893 -0.527471
298.796875 2.003911 1.428956 -0.574955
299.76953125 1.924958 1.279958 -0.645
300.69921875 1.847692 1.278159 -0.569533
301.59375 2.104566 1.598981 -0.505585
302.55078125 2.117527 1.591279 -0.526248
303.5390625 2.053735 1.554012 -0.499723
304.5390625 1.968672 1.504309 -0.464363
305.546875 1.8868559999999999 1.37712 -0.509736
306.515625 1.8879780000000002 1.366062 -0.521916
307.47265625 1.848925 1.32 -0.528925
308.4609375 1.8235560000000002 1.368556 -0.455
309.46875 1.922544 1.5487 -0.373844
310.53125 1.933782 1.543262 -0.39052
311.5703125 1.871909 1.522033 -0.349876
312.55859375 1.804566 1.479566 -0.325
313.5546875 1.833727 1.444887 -0.38884
314.56640625 1.8434970000000002 1.371771 -0.471726
315.59765625 1.801373 1.341666 -0.459707
316.62109375 1.822197 1.412687 -0.40951
317.6484375 1.8620160000000001 1.278159 -0.583857
318.53125 2.1664839999999996 -0.589764 -2.756248
319.61328125 1.754979 1.287906 -0.467073
319.875 2.409994 -0.125 -2.534994
320.37109375 2.8167109999999997 0.63916 -2.177551
321.5 1.583908 1.875 0.291092
322.46875 1.620425 1.395425 -0.225
323.4296875 1.744984 1.154984 -0.59
324.35546875 1.7867009999999999 1.119799 -0.666902
325.265625 1.881735 0.937143 -0.944592
326.19921875 1.78238 1.267473 -0.514907
327.1640625 1.75466 1.482979 -0.271681
328.17578125 1.731765 1.487895 -0.24387
329.1953125 1.589219 1.40475 -0.184469
330.14453125 1.7574290000000001 1.444863 -0.312566
331.04296875 1.760376 1.280391 -0.479985
331.9765625 1.693277 1.198685 -0.494592
332.90234375 1.813571 1.586414 -0.227157
333.8046875 1.90625 1.269678 -0.636572
334.7265625 1.959219 1.349741 -0.609478
335.6171875 1.8935 1.346673 -0.546827
336.51953125 1.881554 1.424811 -0.456743
337.3828125 2.01136 1.73136 -0.28
338.22265625 2.038816 1.584999 -0.453817
339.140625 2.070414 1.572943 -0.497471
340.125 2.1550000000000002 1.635 -0.52
341.1171875 2.1652690000000003 1.65294 -0.512329
342.06640625 2.215478 1.757935 -0.457543
342.984375 2.128223 1.708366 -0.419857
343.953125 2.104883 1.70531 -0.399573
344.94140625 2.017568 1.597751 -0.419817
345.93359375 2.032572 1.605181 -0.427391
346.92578125 2.006909 1.596909 -0.41
347.8671875 1.946739 1.599819 -0.34692
348.78515625 2.039954 1.743717 -0.296237
349.69140625 2.078224 1.848899 -0.229325
350.62890625 2.091483 1.5 -0.591483
351.640625 2.0871 1.360723 -0.726377
352.64453125 2.061325 1.439935 -0.62139
353.60546875 2.064376 1.489827 -0.574549
354.54296875 2.026167 1.511486 -0.514681
355.46484375 2.020924 1.535924 -0.485
356.359375 2.050351 1.485351 -0.565
357.30859375 2.09588 1.502505 -0.593375
358.2890625 2.069434 1.474591 -0.594843
359.3125 2.08275 1.531529 -0.551221
360.2578125 1.945175 1.429159 -0.516016
361.12890625 1.763 1.378264 -0.384736
362.03125 1.8333139999999999 1.283537 -0.549777
362.9140625 1.9636939999999998 1.305877 -0.657817
363.85546875 2.031549 1.619843 -0.411706
364.7734375 2.011461 1.621461 -0.39
365.68359375 1.938329 1.574954 -0.363375
366.54296875 1.886395 1.476417 -0.409978
367.40625 1.730969 1.314425 -0.416544
368.265625 1.961419 1.543682 -0.417737
369.1953125 1.956845 1.480196 -0.476649
370.19921875 1.887913 1.407913 -0.48
371.24609375 1.902881 1.380281 -0.5226
372.26953125 1.810598 1.309837 -0.500761
373.234375 2.034453 1.534642 -0.499811
374.22265625 2.031448 1.489135 -0.542313
375.2890625 1.9752390000000002 1.509071 -0.466168
375.828125 1.906109 1.386147 -0.519962
377.01171875 2.1529629999999997 1.767358 -0.385605
378.01953125 2.026557 1.514604 -0.511953
378.98046875 2.012182 1.468475 -0.543707
379.95703125 1.9961170000000001 1.511351 -0.484766
380.93359375 1.880032 1.456731 -0.423301
381.96484375 1.929999 1.471388 -0.458611
383.015625 1.8266829999999998 1.37519 -0.451493
383.9765625 2.072173 1.662585 -0.409588
384.9453125 2.004549 1.672524 -0.332025
385.92578125 1.9280490000000001 1.658584 -0.269465
386.97265625 1.797788 1.513992 -0.283796
388.0234375 1.871996 1.449236 -0.42276
389.0625 1.907089 1.434559 -0.47253
390.08984375 1.772897 1.348009 -0.424888
391.0390625 1.923721 1.483721 -0.44
392.015625 2.016522 1.529418 -0.487104
393.0390625 1.957714 1.503744 -0.45397
394.08984375 1.848255 1.353476 -0.494779
395.140625 1.8666140000000002 1.322812 -0.543802
396.13671875 1.858177 1.241451 -0.616726
397.07421875 1.9673660000000002 1.392805 -0.574561
398.0703125 1.944559 1.330184 -0.614375
399.109375 1.9827219999999999 1.402722 -0.58
400.1640625 1.944197 1.449197 -0.495
401.21875 1.908331 1.485821 -0.42251
402.2421875 1.778659 1.336393 -0.442266
403.2109375 1.97644 1.594395 -0.382045
404.18359375 1.906011 1.478418 -0.427593
405.21484375 1.91528 1.393494 -0.521786
406.24609375 1.9143789999999998 1.454667 -0.459712
407.23046875 2.0696630000000003 1.399663 -0.67
408.22265625 1.987508 1.405188 -0.58232
409.20703125 1.84437 1.324993 -0.519377
410.1953125 2.030632 1.466822 -0.56381
411.25 2.069661 1.51 -0.559661
412.31640625 1.873483 1.382956 -0.490527
413.36328125 2.051538 1.587403 -0.464135
414.34765625 2.06843 1.483968 -0.584462
415.3359375 1.997671 1.395683 -0.601988
416.3359375 1.9422199999999998 1.404958 -0.537262
417.38671875 1.965904 1.461754 -0.50415
418.46484375 1.77289 1.318016 -0.454874
419.4765625 1.956442 1.576442 -0.38
420.4609375 1.991312 1.469169 -0.522143
421.46875 1.9212150000000001 1.497209 -0.424006
422.4765625 1.8185540000000002 1.484023 -0.334531
423.52734375 1.797639 1.452639 -0.345
424.61328125 1.830582 1.375637 -0.454945
425.67578125 1.7745060000000001 1.310678 -0.463828
426.66015625 1.908982 1.455956 -0.453026
427.6640625 1.9005990000000001 1.400169 -0.50043
428.73046875 1.843314 1.344646 -0.498668
429.78125 1.926077 1.486077 -0.44
430.8359375 1.970544 1.425594 -0.54495
431.87890625 1.908538 1.42599 -0.482548
432.87890625 1.84428 1.474286 -0.369994
433.8515625 1.974808 1.501043 -0.473765
434.875 1.976768 1.465 -0.511768
435.953125 1.907437 1.39782 -0.509617
437.0078125 1.972163 1.567509 -0.404654
437.9765625 2.009734 1.579922 -0.429812
438.96484375 1.9526459999999999 1.462646 -0.49
439.95703125 1.9527990000000002 1.545519 -0.40728
440.984375 1.8699210000000002 1.595136 -0.274785
441.9921875 1.941848 1.514418 -0.42743
443.0234375 1.9408690000000002 1.415869 -0.525
444.0703125 1.8383599999999998 1.348453 -0.489907
445.04296875 1.963851 1.483966 -0.479885
446.03515625 1.950694 1.366244 -0.58445
447.08203125 1.8134260000000002 1.287152 -0.526274
448.1484375 1.927593 1.483507 -0.444086
449.2109375 1.9557250000000002 1.43428 -0.521445
450.23828125 1.944935 1.3973 -0.547635
451.26171875 1.818371 1.334099 -0.484272
452.2734375 1.942076 1.442076 -0.5
453.33984375 1.887492 1.352689 -0.534803
454.4296875 1.843845 1.335525 -0.50832
455.4765625 1.9497140000000002 1.508366 -0.441348
456.48046875 1.949891 1.389984 -0.559907
457.4765625 1.951034 1.421472 -0.529562
458.48046875 1.909502 1.569971 -0.339531
459.5546875 1.88914 1.561191 -0.327949
460.64453125 1.903784 1.499699 -0.404085
461.671875 1.836304 1.450327 -0.385977
462.66015625 1.8839540000000001 1.321693 -0.562261
463.6640625 1.887605 1.284406 -0.603199
464.69921875 1.806357 1.268319 -0.538038
465.70703125 1.874511 1.345878 -0.528633
466.75 1.895 1.36 -0.535
467.74609375 1.937935 1.408306 -0.529629
468.6875 1.892274 1.397559 -0.494715
469.58984375 1.9931640000000002 1.503216 -0.489948
470.52734375 1.959534 1.327528 -0.632006
471.56640625 1.944614 1.314741 -0.629873
472.578125 2.0431369999999998 1.526011 -0.517126
473.55859375 1.981538 1.479491 -0.502047
474.5625 1.956874 1.467232 -0.489642
475.53125 2.043735 1.6897 -0.354035
476.4921875 2.030179 1.696418 -0.333761
477.50390625 1.889265 1.464265 -0.425
478.53125 1.81161 1.35161 -0.46
479.56640625 1.788243 1.346947 -0.441296
480.52734375 1.744116 1.446068 -0.298048
481.46875 1.785151 1.400274 -0.384877
482.5 1.7948629999999999 1.29 -0.504863
483.57421875 1.690284 1.19555 -0.494734
484.59375 1.8259409999999998 1.287909 -0.538032
485.64453125 1.781701 1.264978 -0.516723
486.64453125 1.7814699999999999 1.339667 -0.441803
487.62109375 1.785151 1.278486 -0.506665
488.6484375 1.7969270000000002 1.241927 -0.555
489.6796875 1.822198 1.303323 -0.518875
490.73046875 1.8876270000000002 1.334783 -0.552844
491.75390625 1.7683110000000002 1.238334 -0.529977
492.71484375 1.770765 1.305 -0.465765
493.6015625 1.916837 1.603535 -0.313302
494.52734375 1.8924530000000002 1.512453 -0.38
495.5234375 1.876856 1.441856 -0.435
496.53125 1.802373 1.394328 -0.408045
497.58203125 1.748646 1.413646 -0.335
498.58203125 1.691682 1.401929 -0.289753
499.54296875 1.845552 1.385637 -0.459915
500.58984375 1.783225 1.328225 -0.455
501.65625 1.7582559999999998 1.448214 -0.310042
502.70703125 1.962099 1.632482 -0.329617
503.7265625 1.950521 1.546195 -0.404326
504.6953125 1.859722 1.495278 -0.364444
505.671875 1.886266 1.439919 -0.446347
506.62890625 2.12599 1.72599 -0.4
507.58984375 2.022958 1.550913 -0.472045
508.53515625 2.121173 1.680627 -0.440546
509.51171875 2.047323 1.678783 -0.36854
510.46484375 2.003071 1.559033 -0.444038
511.3984375 2.020986 1.505986 -0.515
512.3515625 1.8380009999999998 1.313459 -0.524542
513.3515625 2.0374280000000002 1.629768 -0.40766
514.3203125 1.851239 1.541627 -0.309612
515.2578125 1.779699 1.507248 -0.272451
516.171875 1.836709 1.602006 -0.234703
517.08984375 1.835592 1.648383 -0.187209
518.02734375 1.916355 1.511355 -0.405
519.015625 1.99084 1.48084 -0.51
520.015625 1.988911 1.490957 -0.497954
521.02734375 2.011125 1.701125 -0.31
521.9296875 2.0514330000000003 1.630937 -0.420496
522.796875 2.159309 1.62395 -0.535359
523.69140625 2.118607 1.567533 -0.551074
524.609375 1.914065 1.36953 -0.544535
525.5859375 2.0241819999999997 1.369797 -0.654385
526.55859375 1.956341 1.497656 -0.458685
527.49609375 1.985082 1.471152 -0.51393
528.4296875 1.914027 1.300246 -0.613781
529.33984375 1.7684579999999999 1.238761 -0.529697
530.2265625 1.9561300000000001 1.457383 -0.498747
531.1796875 1.945635 1.49099 -0.454645
532.1640625 1.948084 1.489855 -0.458229
533.15234375 1.762546 1.327546 -0.435
534.0625 1.829973 1.540844 -0.289129
534.9609375 1.909936 1.564936 -0.345
535.8828125 1.860551 1.435551 -0.425
536.82421875 1.8378100000000002 1.333657 -0.504153
537.7890625 1.8448579999999999 1.339858 -0.505
538.74609375 1.720456 1.300456 -0.42
539.67578125 1.8757789999999999 1.431331 -0.444448
540.61328125 1.85873 1.461179 -0.397551
541.53515625 1.901265 1.457821 -0.443444
542.45703125 1.942874 1.558562 -0.384312
543.43359375 1.891625 1.462413 -0.429212
544.453125 1.894255 1.389329 -0.504926
545.45703125 1.812224 1.242388 -0.569836
546.39453125 1.984337 1.394778 -0.589559
547.34765625 2.010152 1.420152 -0.59
548.30859375 1.85248 1.366569 -0.485911
549.2578125 1.9519419999999998 1.544447 -0.407495
550.23046875 1.889343 1.509978 -0.379365
551.19921875 1.9582119999999998 1.485299 -0.472913
552.1640625 1.898227 1.404106 -0.494121
553.1015625 1.813953 1.373953 -0.44
554.046875 1.779539 1.369545 -0.409994
555.02734375 1.669747 1.214442 -0.455305
556.01953125 1.6970699999999999 1.28707 -0.41
557.01171875 1.716741 1.251538 -0.465203
557.96875 1.742868 1.232893 -0.509975
558.921875 1.735357 1.304444 -0.430913
559.859375 1.70276 1.43343 -0.26933
560.81640625 1.765554 1.453043 -0.312511
561.78125 1.896004 1.349408 -0.546596
562.76953125 1.9024299999999998 1.314857 -0.587573
563.77734375 1.8079269999999998 1.187927 -0.62
564.7421875 1.7635420000000002 1.237807 -0.525735
565.6875 1.688732 1.25881 -0.429922
566.65625 1.596575 1.235 -0.361575
567.62109375 1.859153 1.519986 -0.339167
568.578125 1.856833 1.384331 -0.472502
569.53125 1.759157 1.28497 -0.474187
570.45703125 1.736641 1.326937 -0.409704
571.37890625 1.8568569999999998 1.440581 -0.416276
572.3515625 1.8098750000000001 1.400813 -0.409062
573.3828125 1.7192349999999998 1.269289 -0.449946
574.40234375 1.8187600000000002 1.36376 -0.455
575.44140625 1.83004 1.268993 -0.561047
576.4453125 1.7562710000000001 1.196271 -0.56
577.4375 1.775215 1.31039 -0.464825
578.42578125 1.7858960000000002 1.310896 -0.475
579.5078125 1.7791709999999998 1.259207 -0.519964
580.59375 1.7144380000000001 1.154713 -0.559725
581.6015625 1.8579219999999999 1.403924 -0.453998
582.625 1.8363749999999999 1.325 -0.511375
583.6328125 1.8166000000000002 1.333924 -0.482676
584.64453125 1.6987780000000001 1.334799 -0.363979
585.6875 1.79678 1.309608 -0.487172
586.7734375 1.7428569999999999 1.278398 -0.464459
587.8359375 1.679843 1.23725 -0.442593
588.8203125 1.762393 1.370397 -0.391996
589.86328125 1.744752 1.254752 -0.49
590.90234375 1.726538 1.352445 -0.374093
591.92578125 1.8657020000000002 1.524245 -0.341457
592.94921875 1.899351 1.504708 -0.394643
593.92578125 1.879346 1.436568 -0.442778
594.8671875 1.8722729999999999 1.43804 -0.434233
595.8203125 1.971396 1.378078 -0.593318
596.796875 1.941081 1.423264 -0.517817
597.87109375 1.9519099999999998 1.432769 -0.519141
598.796875 1.834393 1.379399 -0.454994
599.9453125 1.9203 1.560401 -0.359899
600.93359375 1.941618 1.519025 -0.422593
601.91015625 1.911908 1.44908 -0.462828
602.8828125 1.913769 1.413769 -0.5
603.85546875 1.9395000000000002 1.434649 -0.504851
604.7734375 1.926603 1.446472 -0.480131
605.71875 1.898533 1.451389 -0.447144
606.640625 1.8297720000000002 1.408527 -0.421245
607.53125 1.977311 1.546653 -0.430658
608.515625 1.9393040000000001 1.520493 -0.418811
609.55859375 1.8260399999999999 1.479009 -0.347031
610.60546875 1.889034 1.634034 -0.255
611.6171875 1.876649 1.483649 -0.393
612.6328125 1.814605 1.424662 -0.389943
613.65234375 1.913751 1.483751 -0.43
614.66796875 1.9090250000000002 1.359134 -0.549891
615.7421875 1.85326 1.383962 -0.469298
616.76953125 2.084895 1.564895 -0.52
617.74609375 2.019887 1.517875 -0.502012
618.69140625 2.098125 1.504624 -0.593501
619.62109375 2.068174 1.549154 -0.51902
620.6015625 1.899366 1.349366 -0.55
621.61328125 1.798708 1.191724 -0.606984
622.59765625 1.872154 1.399858 -0.472296
623.5703125 1.8887209999999999 1.449986 -0.438735
624.515625 1.873787 1.360484 -0.513303
625.47265625 1.680275 1.328674 -0.351601
626.4296875 1.826784 1.367319 -0.459465
627.46875 1.771965 1.377353 -0.394612
628.515625 1.731866 1.452159 -0.279707
629.5390625 1.760587 1.268829 -0.491758
630.54296875 1.773527 1.278561 -0.494966
631.52734375 1.691657 1.211657 -0.48
632.51171875 1.7433299999999998 1.198486 -0.544844
633.5703125 1.761505 1.191606 -0.569899
634.625 1.683711 1.115 -0.568711
635.625 1.750745 1.305 -0.445745
636.640625 1.8139 1.229556 -0.584344
637.63671875 1.729231 1.167275 -0.561956
638.609375 1.7855789999999998 1.360604 -0.424975
639.64453125 1.788764 1.209679 -0.579085
640.72265625 1.733169 1.189077 -0.544092
641.75390625 1.696421 1.226633 -0.469788
642.703125 1.811006 1.309118 -0.501888
643.703125 1.801871 1.33035 -0.471521
644.73046875 1.7683010000000001 1.328527 -0.439774
645.76171875 1.71522 1.381218 -0.334002
646.8125 1.8207010000000001 1.320271 -0.50043
647.8515625 1.8138239999999999 1.299582 -0.514242
648.8671875 1.748597 1.391691 -0.356906
649.828125 1.812315 1.354341 -0.457974
650.85546875 1.80972 1.30472 -0.505
651.95703125 1.712221 1.207536 -0.504685
653.0078125 1.791951 1.339694 -0.452257
654.03125 1.8278309999999998 1.29832 -0.529511
655.03125 1.807669 1.271094 -0.536575
656.03515625 1.816793 1.437735 -0.379058
657.0625 1.900397 1.355397 -0.545
658.15234375 1.851884 1.262798 -0.589086
659.234375 1.804141 1.480406 -0.323735
660.21875 1.979545 1.330089 -0.649456
661.18359375 2.029133 1.409032 -0.620101
662.16796875 1.866128 1.356147 -0.509981
663.1484375 2.026554 1.626918 -0.399636
664.1875 2.034472 1.551942 -0.48253
665.2265625 1.981916 1.557425 -0.424491
666.1875 1.869573 1.558606 -0.310967
667.15234375 1.9948409999999999 1.574841 -0.42
668.15234375 1.97311 1.47311 -0.5
669.1796875 1.842002 1.328388 -0.513614
670.22265625 1.912037 1.43766 -0.474377
671.28515625 2.039291 1.514493 -0.524798
672.31640625 1.895678 1.346943 -0.548735
673.2890625 1.9050310000000001 1.484601 -0.42043
674.3046875 2.008185 1.563927 -0.444258
675.3828125 1.963339 1.478823 -0.484516
676.46484375 1.860343 1.4007 -0.459643
677.50390625 1.951379 1.416385 -0.534994
678.51953125 1.9449649999999998 1.459965 -0.485
679.55078125 1.817577 1.37126 -0.446317
680.5390625 1.8344839999999998 1.458859 -0.375625
681.59375 1.831614 1.474677 -0.356937
682.6875 1.7845499999999999 1.384574 -0.399976
683.71875 1.731407 1.332875 -0.398532
684.6875 1.804456 1.414643 -0.389813
685.67578125 1.7684630000000001 1.453619 -0.314844
686.73046875 1.7165849999999998 1.329964 -0.386621
687.76953125 1.8079040000000002 1.384918 -0.422986
688.81640625 1.826775 1.264344 -0.562431
689.859375 1.7922699999999998 1.262446 -0.529824
690.8515625 1.820372 1.391523 -0.428849
691.7890625 1.894406 1.401725 -0.492681
692.79296875 1.888039 1.368918 -0.519121
693.8359375 1.762576 1.357576 -0.405
694.84375 1.913672 1.416137 -0.497535
695.8515625 1.9098199999999999 1.346523 -0.563297
696.80859375 1.831004 1.308358 -0.522646
697.78515625 1.9002750000000002 1.467489 -0.432786
698.75 1.967852 1.525 -0.442852
699.7734375 1.8995689999999998 1.495534 -0.404035
700.828125 1.816368 1.369647 -0.446721
701.83203125 1.839771 1.438987 -0.400784
702.82421875 1.850232 1.458023 -0.392209
703.8125 1.877322 1.417344 -0.459978
704.84375 1.775717 1.350921 -0.424796
705.89453125 1.8829470000000001 1.429829 -0.453118
706.9453125 1.88015 1.33675 -0.5434
707.9765625 1.8035640000000002 1.288655 -0.514909
708.94140625 1.9493969999999998 1.448246 -0.501151
709.95703125 1.895833 1.406303 -0.48953
711.00390625 1.875964 1.385675 -0.490289
712.05859375 1.830316 1.389904 -0.440412
713.14453125 1.904473 1.304675 -0.599798
714.1875 1.8457249999999998 1.255747 -0.589978
715.16015625 1.806931 1.288595 -0.518336
716.171875 1.936535 1.374445 -0.56209
717.23828125 1.811542 1.346542 -0.465
718.29296875 1.858755 1.499546 -0.359209
719.32421875 1.9175929999999999 1.451828 -0.465765
720.34375 1.925169 1.480885 -0.444284
721.33984375 1.838634 1.628926 -0.209708
722.28125 1.820934 1.501449 -0.319485
723.265625 1.7581170000000002 1.389755 -0.368362
724.30859375 1.847061 1.34849 -0.498571
725.34765625 1.7248729999999999 1.284873 -0.44
726.32421875 1.7931 1.275757 -0.517343
727.296875 1.7964310000000001 1.206437 -0.589994
728.29296875 1.862119 1.40121 -0.460909
729.30078125 1.840733 1.223007 -0.617726
730.3359375 1.837507 1.218936 -0.618571
731.37890625 1.8751559999999998 1.432462 -0.442694
732.34765625 1.865828 1.422528 -0.4433
733.3359375 1.885408 1.533533 -0.351875
734.3203125 1.844612 1.47 -0.374612
735.31640625 1.89929 1.54974 -0.34955
736.37890625 1.877122 1.42915 -0.447972
737.4140625 1.786076 1.503273 -0.282803
738.37890625 1.8851449999999998 1.539775 -0.34537
739.3515625 1.822899 1.45821 -0.364689
740.3671875 1.757294 1.439817 -0.317477
741.3828125 1.876169 1.63123 -0.244939
742.41015625 1.886956 1.575 -0.311956
743.43359375 1.832581 1.430876 -0.401705
744.4375 1.830288 1.345449 -0.484839
745.40625 1.731958 1.322175 -0.409783
746.3671875 1.795007 1.318288 -0.476719
747.41796875 1.820096 1.270968 -0.549128
748.47265625 1.719859 1.250539 -0.46932
749.48046875 1.879746 1.354724 -0.525022
750.47265625 1.817587 1.279285 -0.538302
751.484375 1.7874439999999998 1.282444 -0.505
752.4609375 1.849317 1.349317 -0.5
753.49609375 1.8486120000000001 1.32244 -0.526172
754.5625 1.799127 1.301772 -0.497355
755.5703125 1.8681390000000002 1.576623 -0.291516
756.5546875 1.912344 1.517693 -0.394651
757.5390625 1.8464669999999999 1.493553 -0.352914
758.54296875 1.768527 1.588568 -0.179959
759.57421875 1.788605 1.725537 -0.063068
760.61328125 1.737814 1.506919 -0.230895
761.63671875 1.73557 1.292478 -0.443092
762.6015625 1.77231 1.227512 -0.544798
763.59375 1.814122 1.153427 -0.660695
764.61328125 1.770411 1.140747 -0.629664
765.61328125 1.925698 1.36079 -0.564908
766.66796875 1.879329 1.296853 -0.582476
767.71484375 1.8752110000000002 1.334065 -0.541146
768.6796875 1.9209710000000002 1.464077 -0.456894
769.6328125 1.89696 1.373686 -0.523274
770.64453125 1.857366 1.272366 -0.585
771.71484375 1.7885689999999999 1.267069 -0.5215
772.72265625 1.939366 1.519366 -0.42
773.71484375 1.914796 1.445169 -0.469627
774.73828125 1.839616 1.429784 -0.409832
775.70703125 1.8641539999999999 1.556374 -0.30778
776.67578125 1.833642 1.509634 -0.324008
777.7265625 1.827321 1.47286 -0.354461
778.8125 1.74471 1.37471 -0.37
779.81640625 1.875882 1.449155 -0.426727
780.80078125 1.855378 1.374722 -0.480656
781.8125 1.806591 1.251591 -0.555
782.8359375 1.819778 1.334833 -0.484945
783.86328125 1.886394 1.406575 -0.479819
784.92578125 1.829658 1.401932 -0.427726
785.953125 1.761182 1.311766 -0.449416
786.93359375 1.835618 1.395321 -0.440297
787.9375 1.815735 1.298283 -0.517452
788.94921875 1.812506 1.235698 -0.576808
790.015625 1.902469 1.393645 -0.508824
791.046875 1.9040409999999999 1.411347 -0.492694
792.0703125 1.820367 1.401021 -0.419346
793.0546875 1.744487 1.3775 -0.366987
794.0234375 1.858677 1.513677 -0.345
795.05859375 1.870998 1.482748 -0.38825
796.10546875 1.769794 1.395 -0.374794
797.125 1.879292 1.535 -0.344292
798.125 1.868828 1.42 -0.448828
799.109375 1.7710970000000001 1.290132 -0.480965
800.0859375 1.8411 1.348913 -0.492187
801.08984375 1.8664070000000001 1.328225 -0.538182
802.1796875 1.802889 1.25535 -0.547539
803.1875 1.9251900000000002 1.410465 -0.514725
804.18359375 1.9149979999999998 1.447245 -0.467753
805.1875 1.830057 1.395194 -0.434863
806.1484375 1.87113 1.39113 -0.48
807.1484375 1.8790149999999999 1.324015 -0.555
808.203125 1.8374460000000001 1.395361 -0.442085
809.21484375 1.8882880000000002 1.543522 -0.344766
810.19921875 1.880528 1.439912 -0.440616
811.1796875 1.900663 1.477308 -0.423355
812.1484375 1.84682 1.60682 -0.24
813.16015625 1.904369 1.610094 -0.294275
814.2109375 1.8555199999999998 1.503645 -0.351875
815.2578125 1.7713210000000001 1.416384 -0.354937
816.23046875 1.9065560000000001 1.579935 -0.326621
817.20703125 1.8544019999999999 1.391298 -0.463104
818.19921875 1.809056 1.20555 -0.603506
819.1875 1.748501 1.228667 -0.519834
820.19140625 1.900805 1.464685 -0.43612
821.21484375 1.909858 1.418072 -0.491786
822.1875 1.896798 1.316261 -0.580537
823.15234375 1.8817009999999998 1.43779 -0.443911
824.12890625 1.9238179999999998 1.48257 -0.441248
825.19140625 1.883176 1.548201 -0.334975
826.234375 1.830024 1.639275 -0.190749
827.2421875 1.926478 1.403843 -0.522635
828.28515625 1.902344 1.405775 -0.496569
829.26953125 1.839994 1.47087 -0.369124
830.25390625 1.858268 1.438268 -0.42
831.296875 1.7082060000000001 1.368219 -0.339987
832.2890625 1.783036 1.398749 -0.384287
833.30078125 1.7493480000000001 1.25971 -0.489638
834.234375 1.6948050000000001 1.249805 -0.445
835.10546875 1.75145 1.209944 -0.541506
836.0234375 1.589683 1.049683 -0.54
836.9453125 1.819705 1.420998 -0.398707
837.93359375 1.814265 1.344671 -0.469594
838.95703125 1.768361 1.259528 -0.508833
839.98046875 1.648466 1.244965 -0.403501
840.95703125 1.790017 1.465538 -0.324479
841.9453125 1.7838599999999998 1.327848 -0.456012
842.9765625 1.7564920000000002 1.257184 -0.499308
844.05859375 1.7196230000000001 1.324623 -0.395
845.10546875 1.785837 1.354607 -0.43123
846.140625 1.725887 1.323267 -0.40262
847.15625 1.681252 1.332371 -0.348881
848.16015625 1.728372 1.630161 -0.098211
849.17578125 1.722307 1.422643 -0.299664
850.22265625 1.712839 1.314594 -0.398245
851.3046875 1.651511 1.207773 -0.443738
852.30859375 1.69081 1.199552 -0.491258
853.30078125 1.696577 1.252477 -0.4441
854.2890625 1.6644489999999998 1.288681 -0.375768
855.296875 1.766114 1.142128 -0.623986
856.28125 1.560604 -0.932298 -2.492902
857.32421875 1.843724 1.440685 -0.403039
858.2734375 1.840699 1.280699 -0.56
859.23828125 1.714205 1.223309 -0.490896
860.1875 1.790956 1.351 -0.439956
861.1875 1.8046280000000001 1.309754 -0.494874
862.23828125 1.8051409999999999 1.273221 -0.53192
863.2890625 1.7057660000000001 1.289598 -0.416168
864.2578125 1.8393840000000001 1.49269 -0.346694
865.2109375 1.88108 1.524035 -0.357045
866.17578125 1.7045910000000002 1.449591 -0.255
867.140625 1.794662 1.371375 -0.423287
868.16015625 1.839331 1.264594 -0.574737
869.1796875 1.7466720000000002 1.165326 -0.581346
870.1328125 1.7821220000000002 1.127204 -0.654918
871.08984375 1.7149839999999998 0.955552 -0.759432
872.0625 1.7528700000000002 1.158193 -0.594677
873.015625 1.802134 1.302573 -0.499561
874.02734375 1.785704 1.465704 -0.32
874.95703125 1.836518 1.510504 -0.326014
875.84375 1.8953540000000002 1.388624 -0.50673
876.69921875 1.8825980000000002 1.308202 -0.574396
877.5625 1.8267769999999999 1.2971 -0.529677
878.42578125 1.815748 1.186788 -0.62896
879.34375 1.844044 1.299677 -0.544367
880.28125 1.7233 1.2033 -0.52
881.19921875 1.8803779999999999 1.431344 -0.449034
882.17578125 1.882183 1.377925 -0.504258
883.1328125 1.879484 1.429819 -0.449665
884.10546875 1.7780230000000001 1.339752 -0.438271
885.09765625 1.814008 1.446417 -0.367591
886.16015625 1.828913 1.450903 -0.37801
887.21875 1.815518 1.308177 -0.507341
888.22265625 1.730502 1.262318 -0.468184
889.18359375 1.8541159999999999 1.336354 -0.517762
890.18359375 1.843257 1.324783 -0.518474
891.21484375 1.8596030000000001 1.363755 -0.495848
892.2734375 1.7230560000000001 1.228056 -0.495
893.2890625 1.813121 1.333724 -0.479397
894.30078125 1.865493 1.349164 -0.516329
895.27734375 1.8867150000000001 1.431715 -0.455
896.2421875 1.714977 1.342516 -0.372461
897.26171875 1.819386 1.391063 -0.428323
898.30859375 1.904308 1.524743 -0.379565
899.3359375 1.8359329999999998 1.471167 -0.364766
900.30859375 1.727821 1.514855 -0.212966
901.26171875 1.857275 1.59794 -0.259335
902.26171875 1.854108 1.525334 -0.328774
903.28125 1.8478379999999999 1.383317 -0.464521
904.296875 1.801296 1.434644 -0.366652
905.30859375 1.904905 1.469905 -0.435
906.26953125 1.857305 1.39926 -0.458045
907.140625 1.880419 1.476118 -0.404301
908.01171875 1.863234 1.448879 -0.414355
908.89453125 1.807839 1.37305 -0.434789
909.875 1.84 1.415 -0.425
910.875 1.812368 1.355 -0.457368
911.8515625 1.7088240000000001 1.378824 -0.33
912.82421875 1.813282 1.34722 -0.466062
913.8125 1.801189 1.246345 -0.554844
914.828125 1.848026 1.289338 -0.558688
915.890625 1.752157 1.32745 -0.424707
916.9140625 1.954383 1.544383 -0.41
917.95703125 1.876342 1.471905 -0.404437
918.95703125 1.822978 1.417978 -0.405
919.9921875 1.779981 1.402628 -0.377353
921.03515625 1.8072720000000002 1.404319 -0.402953
922.0859375 1.8124660000000001 1.513872 -0.298594
923.109375 1.827379 1.387578 -0.439801
924.12890625 1.8032190000000001 1.308243 -0.494976
925.13671875 1.806057 1.342149 -0.463908
926.125 1.747139 1.25 -0.497139
927.05859375 1.863809 1.353512 -0.510297
928.078125 1.817513 1.32504 -0.492473
929.046875 1.86723 1.502257 -0.364973
929.95703125 1.792665 1.304993 -0.487672
930.81640625 2.0132589999999997 1.648259 -0.365
931.66015625 1.964773 1.46062 -0.504153
932.5234375 2.124476 1.704476 -0.42
933.3828125 2.046901 1.747203 -0.299698
934.2890625 1.7834469999999998 1.314323 -0.469124
935.1875 1.726172 1.05622 -0.669952
936.09375 1.731549 1.118018 -0.613531
936.96875 1.6837079999999998 1.202187 -0.481521
937.83984375 1.700084 1.20257 -0.497514
938.75 1.771797 1.37 -0.401797
939.71875 1.899251 1.331799 -0.567452
940.71875 1.861974 1.3225 -0.539474
941.703125 1.791712 1.247065 -0.544647
942.66796875 1.7652 1.250723 -0.514477
943.67578125 1.618917 1.184253 -0.434664
944.640625 1.785512 1.355716 -0.429796
945.6484375 1.725 1.3 -0.425
946.62109375 1.7639580000000001 1.289408 -0.47455
947.5390625 1.661844 1.273902 -0.387942
948.4453125 1.7434640000000001 1.254569 -0.488895
949.3671875 1.7768650000000001 1.331673 -0.445192
950.33984375 1.7724659999999999 1.297818 -0.474648
951.40234375 1.74408 1.228126 -0.515954
952.46484375 1.7288679999999998 1.229337 -0.499531
953.51953125 1.727849 1.264935 -0.462914
954.5390625 1.773374 1.274187 -0.499187
955.57421875 1.718613 1.201683 -0.51693
956.6015625 1.7043249999999999 1.223472 -0.480853
957.625 1.729562 1.25 -0.479562
958.67578125 1.768424 1.205144 -0.56328
959.68359375 1.7821729999999998 1.223539 -0.558634
960.62890625 1.671367 1.151373 -0.519994
961.5390625 1.760541 1.311771 -0.44877
962.48828125 1.801785 1.245148 -0.556637
963.49609375 1.761798 1.223263 -0.538535
964.45703125 1.890349 1.481362 -0.408987
965.3515625 1.8804750000000001 1.403745 -0.47673
966.265625 1.90061 1.351504 -0.549106
967.19140625 1.9134759999999997 1.363649 -0.549827
968.109375 1.864382 1.344471 -0.519911
969.078125 1.8725829999999999 1.33462 -0.537963
970.07421875 1.878176 1.399081 -0.479095
971.08984375 1.874126 1.414337 -0.459789
972.02734375 1.807585 1.349453 -0.458132
972.8828125 2.105509 1.671292 -0.434217
973.71875 2.209116 1.649327 -0.559789
974.55859375 2.09404 1.538969 -0.555071
975.41015625 2.101973 1.532551 -0.569422
976.26171875 2.083781 1.481916 -0.601865
977.16015625 1.9505350000000001 1.477124 -0.473411
978.0546875 2.016432 1.461128 -0.555304
979.0 2.004019 1.505 -0.499019
979.95703125 1.9642819999999999 1.469336 -0.494946
980.97265625 1.924227 1.447109 -0.477118
982.03515625 1.875819 1.362991 -0.512828
983.05078125 1.827575 1.367575 -0.46
984.02734375 1.835 1.34 -0.495
984.94140625 1.848226 1.338782 -0.509444
985.85546875 1.8218969999999999 1.289761 -0.532136
986.75390625 1.7724579999999999 1.337464 -0.434994
987.703125 1.923426 1.509973 -0.413453
988.6953125 1.859343 1.489343 -0.37
989.69921875 1.8507689999999999 1.401198 -0.449571
990.68359375 1.8545249999999998 1.301651 -0.552874
991.6484375 1.860085 1.255085 -0.605
992.6640625 1.8655939999999998 1.285594 -0.58
993.734375 1.8523200000000002 1.318896 -0.533424
994.80078125 1.844148 1.3578 -0.486348
995.82421875 1.820719 1.395757 -0.424962
996.8359375 1.868169 1.46928 -0.398889
997.83203125 1.8417329999999998 1.447388 -0.394345
998.828125 1.838107 1.433107 -0.405
999.8828125 1.854428 1.397216 -0.457212
1000.92578125 1.787723 1.341678 -0.446045
1001.94140625 1.710055 1.278539 -0.431516
1002.86328125 1.9310559999999999 1.533456 -0.3976
1003.77734375 1.937043 1.466003 -0.47104
1004.76953125 1.7038639999999998 1.379068 -0.324796
1005.71484375 1.881309 1.404434 -0.476875
1006.6875 1.796351 1.289842 -0.506509
1007.62109375 1.96614 1.467926 -0.498214
1008.46484375 2.187416 1.662802 -0.524614
1009.29296875 2.128151 1.583202 -0.544949
1010.1171875 2.092448 1.53524 -0.557208
1010.9375 2.0634230000000002 1.473519 -0.589904
1011.8515625 2.011443 1.43691 -0.574533
1012.828125 1.9694420000000001 1.409442 -0.56
1013.7578125 1.9409100000000001 1.478107 -0.462803
1014.63671875 1.946749 1.469896 -0.476853
1015.50390625 1.806522 1.381565 -0.424957
1016.421875 1.958091 1.415292 -0.542799
1017.4296875 1.9014190000000002 1.451761 -0.449658
1018.48046875 1.7739409999999998 1.342148 -0.431793
1019.54296875 1.8104969999999998 1.375622 -0.434875
1020.58984375 1.796466 1.4217 -0.374766
1021.61328125 1.803836 1.446201 -0.357635
1022.65625 1.7690800000000002 1.376022 -0.393058
1023.74609375 1.734714 1.322839 -0.411875
1024.84375 1.750578 1.284781 -0.465797
1025.87890625 1.7383790000000001 1.263395 -0.474984
1026.8203125 2.0212630000000003 1.491263 -0.53
1027.8125 1.93857 1.407174 -0.531396
1028.8046875 1.9044210000000001 1.389817 -0.514604
1029.796875 1.887795 1.404321 -0.483474
1030.8125 1.988746 1.465272 -0.523474
1031.8046875 1.98692 1.43689 -0.55003
1032.78515625 1.918034 1.385204 -0.53283
1033.7421875 1.8412250000000001 1.366225 -0.475
1034.72265625 1.851336 1.390641 -0.460695
1035.76953125 1.734658 1.329919 -0.404739
1036.76953125 1.8616 1.442359 -0.419241
1037.7578125 1.883655 1.494426 -0.389229
1038.7265625 1.8214419999999998 1.441442 -0.38
1039.71875 1.820258 1.46401 -0.356248
1040.72265625 1.8091400000000002 1.41914 -0.39
1041.75390625 1.8252650000000001 1.360659 -0.464606
1042.8125 1.708372 1.258721 -0.449651
1043.8125 1.818619 1.428667 -0.389952
1044.78125 1.865718 1.455718 -0.41
1045.7578125 1.872329 1.419465 -0.452864
1046.765625 1.766423 1.312702 -0.453721
1047.7890625 1.897708 1.439346 -0.458362
1048.79296875 1.9327839999999998 1.40299 -0.529794
1049.7890625 1.86934 1.382768 -0.486572
1050.7890625 1.8231199999999999 1.364803 -0.458317
1051.73046875 1.850318 1.414054 -0.436264
1052.69921875 1.911761 1.413707 -0.498054
1053.734375 1.874272 1.389272 -0.485
1054.77734375 1.766251 1.403742 -0.362509
1055.7578125 1.897365 1.534501 -0.362864
1056.703125 1.9204759999999998 1.413905 -0.506571
1057.65234375 1.960009 1.44091 -0.519099
1058.66015625 1.764075 1.370099 -0.393976
1059.62109375 2.073084 1.638722 -0.434362
1060.5390625 1.972877 1.419732 -0.553145
1061.5 1.935 1.48 -0.455
1062.41015625 1.872242 1.425011 -0.447231
1063.3203125 1.914546 1.499934 -0.414612
1064.22265625 1.977843 1.514598 -0.463245
1065.1875 1.898056 1.423056 -0.475
1066.23046875 1.7945760000000002 1.364681 -0.429895
1067.2109375 1.920556 1.414739 -0.505817
1068.18359375 1.940863 1.372665 -0.568198
1069.1484375 1.8564829999999999 1.331483 -0.525
1070.12109375 1.792961 1.3501 -0.442861
1071.125 1.891301 1.44 -0.451301
1072.1640625 1.8747420000000001 1.429742 -0.445
1073.2109375 1.799601 1.323976 -0.475625
1074.20703125 1.865497 1.335497 -0.53
1075.18359375 1.8480880000000002 1.293373 -0.554715
1076.16796875 1.788245 1.290237 -0.498008
1077.12890625 1.875901 1.319412 -0.556489
1078.1484375 1.8748740000000002 1.28333 -0.591544
1079.09375 1.9493649999999998 1.37319 -0.576175
1079.98828125 1.660571 1.186908 -0.473663
1080.8515625 1.8608310000000001 1.475762 -0.385069
1081.75390625 1.963206 1.533213 -0.429993
1082.6875 1.91038 1.440402 -0.469978
1083.65625 1.903623 1.398827 -0.504796
1084.625 2.0264670000000002 1.465 -0.561467
1085.6171875 2.029768 1.492291 -0.537477
1086.59375 1.978087 1.534929 -0.443158
1087.5625 1.853618 1.443667 -0.409951
1088.5390625 1.9320689999999998 1.454095 -0.477974
1089.59375 1.9341780000000002 1.465205 -0.468973
1090.62890625 1.832472 1.432472 -0.4
1091.609375 1.9860900000000001 1.59756 -0.38853
1092.5546875 1.975606 1.52595 -0.449656
1093.53515625 2.003065 1.549493 -0.453572
1094.5234375 1.879933 1.474933 -0.405
1095.52734375 1.947195 1.511099 -0.436096
1096.58984375 1.921014 1.491084 -0.42993
1097.578125 1.9358650000000002 1.558904 -0.376961
1098.4921875 2.007415 1.609879 -0.397536
1099.4453125 1.976594 1.551594 -0.425
1100.41796875 1.89324 1.478587 -0.414653
1101.45703125 1.877678 1.426166 -0.451512
1102.48828125 1.894423 1.471632 -0.422791
1103.51953125 1.826074 1.399622 -0.426452
1104.50390625 1.945444 1.575485 -0.369959
1105.45703125 1.923448 1.499023 -0.424425
1106.42578125 1.931278 1.438568 -0.49271
1107.4453125 1.816932 1.367427 -0.449505
1108.45703125 1.9231120000000002 1.514061 -0.409051
1109.47265625 1.966315 1.511315 -0.455
1110.453125 1.9161639999999998 1.4183 -0.497864
1111.421875 1.7283469999999999 1.298347 -0.43
1112.359375 1.9256980000000001 1.385909 -0.539789
1113.3359375 1.944267 1.424682 -0.519585
1114.296875 1.8688850000000001 1.403764 -0.465121
1115.24609375 1.8969589999999998 1.452249 -0.44471
1116.1875 1.94853 1.478868 -0.469662
1117.15625 1.958005 1.504947 -0.453058
1118.1484375 1.88087 1.43087 -0.45
1119.15625 1.8798 1.494041 -0.385759
1120.2265625 1.8725260000000001 1.453696 -0.41883
1121.27734375 1.933932 1.49786 -0.436072
1122.3046875 1.804849 1.38 -0.424849
1123.27734375 1.936116 1.42411 -0.512006
1124.30078125 1.946898 1.374388 -0.57251
1125.35546875 1.954358 1.449853 -0.504505
1126.390625 1.891724 1.492862 -0.398862
1127.45703125 1.957718 1.457718 -0.5
1128.46875 1.962409 1.428235 -0.534174
1129.45703125 1.874447 1.412474 -0.461973
1130.43359375 1.921297 1.426985 -0.494312
1131.49609375 1.9602430000000002 1.448806 -0.511437
1132.57421875 1.857935 1.403705 -0.45423
1133.578125 1.9672990000000001 1.52522 -0.442079
1134.58203125 1.996997 1.48738 -0.509617
1135.57421875 1.856503 1.441714 -0.414789
1136.5390625 1.9426109999999999 1.49972 -0.442891
1137.578125 1.923571 1.463593 -0.459978
1138.63671875 1.8473060000000001 1.352306 -0.495
1139.66015625 1.906776 1.376776 -0.53
1140.63671875 1.9805869999999999 1.404218 -0.576369
1141.609375 1.883257 1.363317 -0.51994
1142.5859375 2.000656 1.494859 -0.505797
1143.62890625 1.998928 1.472784 -0.526144
1144.6640625 1.928405 1.459277 -0.469128
1145.6640625 1.988983 1.548983 -0.44
1146.64453125 2.027014 1.524606 -0.502408
1147.63671875 1.889252 1.467425 -0.421827
1148.60546875 1.9824869999999999 1.559958 -0.422529
1149.6171875 2.031177 1.493515 -0.537662
1150.703125 1.944944 1.463882 -0.481062
1151.70703125 1.995747 1.590852 -0.404895
1152.66796875 2.007931 1.538041 -0.46989
1153.65625 1.914315 1.478281 -0.436034
1154.6328125 1.9459359999999999 1.494354 -0.451582
1155.66796875 1.9955690000000001 1.388557 -0.607012
1156.69140625 1.996384 1.392566 -0.603818
1157.69140625 2.079382 1.499436 -0.579946
1158.67578125 2.025255 1.546781 -0.478474
1159.6328125 1.952445 1.502188 -0.450257
1160.59765625 2.0073440000000002 1.597344 -0.41
1161.6171875 1.995945 1.548283 -0.447662
1162.671875 1.987682 1.532688 -0.454994
1163.65234375 2.034845 1.559845 -0.475
1164.62109375 1.993815 1.524711 -0.469104
1165.61328125 1.907289 1.417426 -0.489863
1166.58203125 1.985341 1.435913 -0.549428
1167.61328125 1.906115 1.388938 -0.517177
1168.609375 1.979092 1.468016 -0.511076
1169.625 1.8982450000000002 1.445 -0.453245
1170.609375 1.891123 1.45618 -0.434943
1171.5546875 1.91733 1.369456 -0.547874
1172.53515625 1.908674 1.349758 -0.558916
1173.55859375 1.9955509999999999 1.399613 -0.595938
1174.60546875 1.9680140000000002 1.414646 -0.553368
1175.59765625 1.9437639999999998 1.439236 -0.504528
1176.53515625 2.036927 1.507832 -0.529095
1177.47265625 1.9969579999999998 1.491958 -0.505
1178.41015625 1.954038 1.456059 -0.497979
1179.33203125 1.972761 1.458561 -0.5142
1180.2578125 1.8232789999999999 1.358293 -0.464986
1181.21875 1.982582 1.520863 -0.461719
1182.171875 1.956799 1.507935 -0.448864
1183.109375 1.9118650000000001 1.476922 -0.434943
1184.0703125 1.91351 1.543727 -0.369783
1185.0546875 2.01374 1.565267 -0.448473
1186.12109375 1.8952969999999998 1.481156 -0.414141
1187.16015625 1.787657 1.394403 -0.393254
1188.1484375 1.897437 1.442437 -0.455
1189.14453125 1.925887 1.36477 -0.561117
1190.1015625 1.974265 1.385035 -0.58923
1191.09765625 1.99549 1.388064 -0.607426
1192.14453125 1.934995 1.349995 -0.585
1193.203125 1.857249 1.31782 -0.539429
1194.1875 1.9724249999999999 1.427679 -0.544746
1195.15625 1.9223409999999999 1.34819 -0.574151
1196.17578125 1.881199 1.343651 -0.537548
1197.171875 2.00615 1.54115 -0.465
1198.203125 2.03407 1.54 -0.49407
1199.23046875 1.952763 1.599819 -0.352944
1200.1875 2.026323 1.596345 -0.429978
1201.15234375 2.046322 1.577208 -0.469114
1202.09765625 1.87344 1.451511 -0.421929
1203.02734375 1.9711249999999998 1.659231 -0.311894
1204.03515625 1.9481540000000002 1.485 -0.463154
1205.0390625 1.9595319999999998 1.414532 -0.545
1206.0078125 1.802959 1.26798 -0.534979
1206.9375 1.925937 1.386145 -0.539792
1207.91796875 1.907634 1.357714 -0.54992
1208.93359375 1.873207 1.349906 -0.523301
1209.95703125 1.905324 1.427872 -0.477452
1210.98828125 1.942474 1.433113 -0.509361
1212.02734375 1.928184 1.42655 -0.501634
1212.984375 1.881102 1.366559 -0.514543
1213.9375 1.964836 1.41 -0.554836
1214.953125 1.9319520000000001 1.459221 -0.472731
1216.01953125 1.77379 1.369722 -0.404068
1217.03515625 2.021547 1.602836 -0.418711
1218.00390625 2.070912 1.521989 -0.548923
1218.96484375 1.964235 1.474597 -0.489638
1219.9296875 1.8427930000000001 1.447793 -0.395
1220.90234375 1.779159 1.424159 -0.355
1221.87890625 1.797617 1.398843 -0.398774
1222.8671875 1.899856 1.400992 -0.498864
1223.83984375 1.941923 1.327007 -0.614916
1224.7890625 1.9012539999999998 1.354496 -0.546758
1225.703125 1.9919689999999999 1.457118 -0.534851
1226.67578125 1.839303 1.401935 -0.437368
1227.6484375 1.9135209999999998 1.399816 -0.513705
1228.640625 1.863185 1.365768 -0.497417
1229.58203125 2.007849 1.504019 -0.50383
1230.46484375 2.072867 1.557536 -0.515331
1231.35546875 2.009829 1.534829 -0.475
1232.23828125 1.9921149999999999 1.592056 -0.400059
1233.16015625 2.095944 1.606849 -0.489095
1234.16015625 2.131383 1.667341 -0.464042
1235.125 1.863245 1.475 -0.388245
1236.0390625 1.981823 1.588889 -0.392934
1236.95703125 1.949857 1.535628 -0.414229
1237.890625 1.8152320000000002 1.460449 -0.354783
1238.875 1.766255 1.39 -0.376255
1239.85546875 1.855563 1.329686 -0.525877
1240.8671875 1.920951 1.301143 -0.619808
1241.87109375 1.83207 1.235 -0.59707
1242.828125 1.8786969999999998 1.319156 -0.559541
1243.76953125 1.874324 1.307728 -0.566596
1244.75390625 1.8579189999999999 1.372919 -0.485
1245.7265625 2.0283759999999997 1.488376 -0.54
1246.73828125 2.02734 1.492626 -0.534714
1247.72265625 1.978539 1.44411 -0.534429
1248.6484375 1.8394540000000001 1.289454 -0.55
1249.6171875 1.859003 1.323284 -0.535719
1250.5859375 1.7971599999999999 1.293524 -0.503636
1251.5390625 1.994679 1.654679 -0.34
1252.5234375 1.883424 1.389704 -0.49372
1253.48046875 2.049106 1.704957 -0.344149
1254.4375 2.011204 1.590451 -0.420753
1255.38671875 1.91212 1.519317 -0.392803
1256.3359375 1.8195839999999999 1.456251 -0.363333
1257.33984375 1.933138 1.562341 -0.370797
1258.328125 2.019718 1.55529 -0.464428
1259.3125 2.030382 1.505382 -0.525
1260.26171875 1.991275 1.465767 -0.525508
1261.19140625 1.9833090000000002 1.418333 -0.564976
1262.15625 1.960213 1.417155 -0.543058
1263.10546875 1.9648240000000001 1.409913 -0.554911
1264.12109375 2.0225299999999997 1.44407 -0.57846
1265.140625 1.921848 1.413314 -0.508534
1266.11328125 2.113365 1.52864 -0.584725
1267.03515625 1.9610500000000002 1.396811 -0.564239
1267.96875 1.926493 1.406544 -0.519949
1268.9296875 1.835815 1.278784 -0.557031
1269.9296875 1.743169 1.335033 -0.408136
1270.8828125 1.848713 1.488762 -0.359951
1271.83203125 1.832538 1.442647 -0.389891
1272.8046875 1.787211 1.383407 -0.403804
1273.734375 1.8266779999999998 1.466678 -0.36
1274.68359375 1.856995 1.399288 -0.457707
1275.6953125 1.813571 1.39114 -0.422431
1276.66796875 1.8969150000000001 1.406986 -0.489929
1277.6640625 1.932293 1.449351 -0.482942
1278.625 1.8130160000000002 1.465 -0.348016
1279.51953125 2.002971 1.594913 -0.408058
1280.4921875 2.01892 1.52892 -0.49
1281.46875 2.031289 1.476406 -0.554883
1282.42578125 1.961516 1.458861 -0.502655
1283.3828125 2.0643029999999998 1.477994 -0.586309
1284.3203125 2.023898 1.517832 -0.506066
1285.25 1.978505 1.535 -0.443505
1286.17578125 2.009994 1.511714 -0.49828
1287.1640625 2.032363 1.572363 -0.46
1288.21875 1.939476 1.58 -0.359476
1289.20703125 1.944751 1.595351 -0.3494
1290.18359375 1.960133 1.543086 -0.417047
1291.109375 2.001569 1.606655 -0.394914
1292.0703125 2.056768 1.481861 -0.574907
1293.05859375 2.075325 1.517075 -0.55825
1294.06640625 2.038246 1.528246 -0.51
1295.05078125 1.9769519999999998 1.458707 -0.518245
1295.98828125 1.9457360000000001 1.460947 -0.484789
1296.88671875 2.008867 1.501045 -0.507822
1297.796875 1.995705 1.465439 -0.530266
1298.7578125 1.8568349999999998 1.476835 -0.38
1299.73046875 2.116291 1.634725 -0.481566
1300.734375 1.9918879999999999 1.48352 -0.508368
1301.69140625 1.9458630000000001 1.547406 -0.398457
1302.5859375 1.9125670000000001 1.598996 -0.313571
1303.52734375 1.982503 1.553963 -0.42854
1304.48046875 1.977619 1.469965 -0.507654
1305.44921875 1.913994 1.392186 -0.521808
1306.46484375 1.871597 1.333264 -0.538333
1307.4453125 1.831729 1.325607 -0.506122
1308.41796875 1.931512 1.33154 -0.599972
1309.36328125 1.8573879999999998 1.287388 -0.57
1310.3125 1.861541 1.366974 -0.494567
1311.3203125 2.0495200000000002 1.464836 -0.584684
1312.32421875 2.028124 1.56856 -0.459564
1313.32421875 1.879839 1.500291 -0.379548
1314.30078125 1.877389 1.440299 -0.43709
1315.28125 1.837318 1.297757 -0.539561
1316.265625 1.8170140000000001 1.283878 -0.533136
1317.2109375 1.904645 1.484754 -0.419891
1318.2109375 2.01498 1.39998 -0.615
1319.21484375 1.9146459999999998 1.292646 -0.622
1320.16796875 1.739429 1.253012 -0.486417
1321.08203125 1.84958 1.334864 -0.514716
1322.0234375 1.891718 1.376718 -0.515
1323.03125 1.78406 1.33906 -0.445
1324.03125 1.91433 1.41433 -0.5
1325.0546875 1.877859 1.340038 -0.537821
1326.0234375 1.90572 1.40572 -0.5
1326.9765625 1.8882430000000001 1.323445 -0.564798
1327.88671875 1.8799540000000001 1.258043 -0.621911
1328.84765625 2.03533 1.284491 -0.750839
1329.8515625 1.8800910000000002 1.237178 -0.642913
1330.875 1.8050000000000002 1.28 -0.525
1331.8359375 1.905424 1.330547 -0.574877
1332.796875 1.842686 1.287707 -0.554979
1333.77734375 1.852366 1.388826 -0.46354
1334.76953125 1.7918129999999999 1.352132 -0.439681
1335.7578125 1.9521060000000001 1.477181 -0.474925
1336.80078125 1.848229 1.403738 -0.444491
1337.80859375 1.814089 1.458934 -0.355155
1338.7421875 1.955968 1.669154 -0.286814
1339.6796875 1.97364 1.6248 -0.34884
1340.62890625 1.9222629999999998 1.482279 -0.439984
1341.65625 1.7285249999999999 1.227766 -0.500759
1342.61328125 1.948886 1.249529 -0.699357
1343.58203125 1.953618 1.214863 -0.738755
1344.52734375 1.968421 1.324344 -0.644077
1345.4453125 1.844581 1.245428 -0.599153
1346.39453125 1.787611 1.267611 -0.52
1347.34765625 1.9691260000000002 1.420201 -0.548925
1348.34765625 1.882237 1.397714 -0.484523
1349.359375 2.0010969999999997 1.556123 -0.444974
1350.34375 1.925826 1.467905 -0.457921
1351.31640625 1.9103189999999999 1.456651 -0.453668
1352.3203125 1.830933 1.401034 -0.429899
1353.3671875 1.789532 1.355532 -0.434
1354.43359375 1.7733379999999999 1.396432 -0.376906
1355.42578125 1.8908090000000002 1.671056 -0.219753
1356.3984375 1.9819339999999999 1.595535 -0.386399
1357.37109375 1.876664 1.468023 -0.408641
1358.34375 1.809402 1.329755 -0.479647
1359.33203125 1.76471 1.210084 -0.554626
1360.328125 1.9194360000000001 1.281881 -0.637555
1361.33984375 1.7774510000000001 1.117451 -0.66
1362.30859375 1.822193 1.212732 -0.609461
1363.2265625 1.916449 1.376449 -0.54
1364.16796875 1.874876 1.344942 -0.529934
1365.15625 1.825138 1.282221 -0.542917
1366.1484375 1.743386 1.238386 -0.505
1367.12109375 1.6633719999999999 1.169268 -0.494104
1368.0390625 1.792694 1.445594 -0.3471
1368.94140625 1.8858709999999999 1.332164 -0.553707
1369.8515625 1.8009570000000001 1.291338 -0.509619
1370.7734375 1.718448 1.405773 -0.312675
1371.72265625 1.860364 1.426532 -0.433832
1372.703125 1.9087809999999998 1.554233 -0.354548
1373.640625 1.844138 1.522871 -0.321267
1374.55078125 1.848715 1.473715 -0.375
1375.46484375 1.825584 1.370876 -0.454708
1376.3984375 1.804716 1.399716 -0.405
1377.3671875 1.9470329999999998 1.396375 -0.550658
1378.37109375 1.919582 1.309988 -0.609594
1379.37109375 1.838886 1.24961 -0.589276
1380.34375 1.7770099999999998 1.233159 -0.543851
1381.23046875 1.828656 1.219921 -0.608735
1382.1328125 1.91815 1.396703 -0.521447
1383.05859375 1.829437 1.429875 -0.399562
1384.0 1.916255 1.365 -0.551255
1384.92578125 1.843927 1.284715 -0.559212
1385.80078125 1.895049 1.365183 -0.529866
1386.63671875 1.819487 1.452687 -0.3668
1387.5234375 1.9324780000000001 1.634325 -0.298153
1388.38671875 1.923481 1.588271 -0.33521
1389.26953125 1.983449 1.548624 -0.434825
1390.171875 1.887386 1.577399 -0.309987
1391.08203125 1.835944 1.628874 -0.20707
1391.98828125 1.7942520000000002 1.433591 -0.360661
1392.87890625 1.926713 1.271774 -0.654939
1393.78125 1.823211 1.248824 -0.574387
1394.6640625 1.9577579999999999 1.352758 -0.605
1395.62890625 1.983603 1.377858 -0.605745
1396.58203125 1.903881 1.332436 -0.571445
1397.515625 1.821447 1.320783 -0.500664
1398.38671875 2.095908 1.636553 -0.459355
1399.23046875 2.138392 1.619881 -0.518511
1400.1171875 2.020702 1.564241 -0.456461
1401.04296875 1.991698 1.481725 -0.509973
1402.00390625 1.898726 1.395446 -0.50328
1403.01953125 1.895617 1.437618 -0.457999
1403.9921875 1.807098 1.398846 -0.408252
1404.91015625 1.7962850000000001 1.391285 -0.405
1405.79296875 2.022193 1.682193 -0.34
1406.71875 1.9062770000000002 1.362281 -0.543996
1407.68359375 1.89098 1.441726 -0.449254
1408.640625 1.7005430000000001 1.395969 -0.304574
1409.56640625 1.76582 1.359853 -0.405967
1410.53125 1.7999859999999999 1.398356 -0.40163
1411.48046875 1.8483079999999998 1.339821 -0.508487
1412.4453125 1.822365 1.21746 -0.604905
1413.46875 1.813188 1.139337 -0.673851
1414.52734375 1.830445 1.180445 -0.65
1415.57421875 1.820629 1.231562 -0.589067
1416.53125 1.952597 1.305963 -0.646634
1417.5 1.914364 1.315 -0.599364
1418.5078125 1.8385799999999999 1.297076 -0.541504
1419.54296875 1.7998480000000001 1.234873 -0.564975
1420.5859375 1.769771 1.224831 -0.54494
1421.58203125 1.908471 1.534257 -0.374214
1422.5625 1.888987 1.604276 -0.284711
1423.51953125 1.833989 1.539978 -0.294011
1424.50390625 1.719379 1.414643 -0.304736
1425.52734375 1.718563 1.353563 -0.365
1426.54296875 1.8243280000000002 1.622602 -0.201726
1427.5234375 1.8379489999999998 1.427949 -0.41
1428.515625 1.792602 1.338216 -0.454386
1429.4765625 1.783694 1.383784 -0.39991
1430.45703125 1.8547470000000001 1.333587 -0.52116
1431.4765625 1.9383569999999999 1.454375 -0.483982
1432.5078125 1.9333289999999999 1.443401 -0.489928
1433.5625 1.862924 1.397373 -0.465551
1434.5546875 1.7727819999999999 1.303291 -0.469491
1435.52734375 1.691897 1.222792 -0.469105
1436.484375 1.908571 1.483435 -0.425136
1437.5078125 2.070792 1.605798 -0.464994
1438.546875 2.029648 1.569648 -0.46
1439.5390625 1.96994 1.503986 -0.465954
1440.5 1.88307 1.42 -0.46307
1441.4765625 1.857785 1.473535 -0.38425
1442.44921875 1.881573 1.511448 -0.370125
1443.44921875 1.8022909999999999 1.524328 -0.277963
1444.4765625 1.825844 1.48267 -0.343174
1445.51171875 1.852891 1.402774 -0.450117
1446.484375 1.805108 1.305267 -0.499841
1447.4375 1.875332 1.3605 -0.514832
1448.44140625 1.836055 1.3305 -0.505555
1449.4765625 1.835479 1.388198 -0.447281
1450.4765625 2.018371 1.48947 -0.528901
1451.4921875 1.76005 1.319894 -0.440156
1452.421875 2.001259 1.416259 -0.585
1453.38671875 1.9770189999999999 1.366658 -0.610361
1454.33984375 1.886715 1.38234 -0.504375
1455.31640625 1.692561 1.332561 -0.36
1456.28125 1.843011 1.353902 -0.489109
1457.26953125 1.909288 1.384754 -0.524534
1458.234375 1.851097 1.381197 -0.4699
1459.203125 1.788386 1.369384 -0.419002
1460.1484375 1.8995130000000002 1.471599 -0.427914
1461.16796875 1.8980800000000002 1.449877 -0.448203
1462.21875 1.837433 1.425289 -0.412144
1463.2421875 1.780915 1.411384 -0.369531
1464.2421875 1.892357 1.423716 -0.468641
1465.23046875 1.9168439999999998 1.424945 -0.491899
1466.1796875 2.018904 1.751361 -0.267543
1467.10546875 2.1547899999999998 1.739874 -0.414916
1468.0703125 2.159341 1.590606 -0.568735
1469.08984375 2.0512740000000003 1.523274 -0.528
1470.0625 2.025696 1.475696 -0.55
1471.046875 2.03564 1.581707 -0.453933
1472.0625 1.906669 1.445273 -0.461396
1473.08203125 1.9232049999999998 1.463839 -0.459366
1474.1328125 1.948201 1.473255 -0.474946
1475.1796875 1.920477 1.436191 -0.484286
1476.19140625 1.9202370000000002 1.477726 -0.442511
1477.15625 1.970399 1.587298 -0.383101
1477.81640625 2.0256499999999997 1.509124 -0.516526
1479.08984375 1.879645 1.436855 -0.44279
1480.17578125 1.806366 1.285 -0.521366
1481.20703125 1.7974580000000002 1.197569 -0.599889
1482.21484375 1.854404 1.289521 -0.564883
1483.203125 1.8693870000000001 1.367585 -0.501802
1484.20703125 1.825017 1.345065 -0.479952
1485.23828125 1.825415 1.325626 -0.499789
1486.265625 1.669621 1.24119 -0.428431
1487.2734375 1.881461 1.431461 -0.45
1488.24609375 1.8973 1.397434 -0.499866
1489.2109375 1.896582 1.403804 -0.492778
1490.22265625 1.797104 1.288859 -0.508245
1491.30859375 1.838835 1.363835 -0.475
1492.41796875 1.833268 1.313353 -0.519915
1493.48828125 1.838231 1.300371 -0.53786
1494.5546875 1.801088 1.282165 -0.518923
1495.5546875 1.723303 1.244732 -0.478571
1496.51953125 1.947599 1.339819 -0.60778
1497.5625 1.862146 1.312289 -0.549857
1498.625 1.842795 1.365 -0.477795
1499.65234375 1.7943959999999999 1.386445 -0.407951
1500.6015625 1.970532 1.462061 -0.508471
1501.578125 1.960972 1.452332 -0.50864
1502.59765625 1.873064 1.409108 -0.463956
1503.62109375 1.7335690000000001 1.339293 -0.394276
1504.625 1.8810700000000002 1.35 -0.53107
1505.64453125 1.919653 1.399653 -0.52
1506.65625 1.896776 1.391776 -0.505
1507.609375 1.797364 1.397569 -0.399795
1508.5703125 1.893802 1.411075 -0.482727
1509.62890625 1.9181030000000001 1.440341 -0.477762
1510.68359375 1.818909 1.448909 -0.37
1511.67578125 1.876396 1.511968 -0.364428
1512.65234375 1.955641 1.435641 -0.52
1513.65234375 1.922914 1.392914 -0.53
1514.6796875 1.842015 1.299095 -0.54292
1515.7109375 1.833013 1.260594 -0.572419
1516.76171875 1.83337 1.29337 -0.54
1517.8125 1.823383 1.358644 -0.464739
1518.765625 1.997859 1.432859 -0.565
1519.70703125 1.965865 1.380865 -0.585
1520.70703125 1.8942070000000002 1.380519 -0.513688
1521.765625 1.831254 1.333651 -0.497603
1522.8046875 1.869584 1.370326 -0.499258
1523.81640625 1.8952970000000002 1.416562 -0.478735
1524.83984375 1.870574 1.385574 -0.485
1525.84375 1.772947 1.295298 -0.477649
1526.8359375 1.863096 1.371429 -0.491667
1527.91015625 1.857513 1.415916 -0.441597
1528.9765625 1.804847 1.328246 -0.476601
1529.9921875 1.815585 1.321418 -0.494167
1530.94921875 1.8819970000000001 1.353577 -0.52842
1531.8984375 1.885543 1.280543 -0.605
1532.89453125 1.847823 1.294688 -0.553135
1533.8984375 1.8659620000000001 1.331927 -0.534035
1534.91796875 1.868913 1.404714 -0.464199
1535.91796875 1.714022 1.269042 -0.44498
1536.86328125 1.870816 1.350816 -0.52
1537.84375 1.891492 1.304217 -0.587275
1538.8515625 1.784911 1.314911 -0.47
1539.875 1.8696450000000002 1.475 -0.394645
1540.8984375 1.882866 1.407866 -0.475
1541.91796875 1.88233 1.412364 -0.469966
1542.8828125 1.8014670000000002 1.401556 -0.399911
1543.8125 1.9269500000000002 1.477232 -0.449718
1544.82421875 1.897847 1.468257 -0.42959
1545.859375 1.732643 1.282703 -0.44994
1546.8671875 1.8818899999999998 1.387551 -0.494339
1547.86328125 1.8787829999999999 1.254529 -0.624254
1548.86328125 1.880361 1.281038 -0.599323
1549.83984375 1.7804609999999998 1.23593 -0.544531
1550.82421875 1.886442 1.382069 -0.504373
1551.87109375 1.875852 1.368879 -0.506973
1552.92578125 1.7677450000000001 1.288645 -0.4791
1553.90234375 1.864512 1.459845 -0.404667
1554.85546875 1.872001 1.374782 -0.497219
1555.8671875 1.8872900000000001 1.392255 -0.495035
1556.859375 1.809496 1.27458 -0.534916
1557.875 1.902288 1.39 -0.512288
1558.9140625 1.9552230000000002 1.454717 -0.500506
1559.890625 1.872946 1.348609 -0.524337
1560.78515625 1.7045080000000001 1.297827 -0.406681
1561.63671875 1.842942 1.453634 -0.389308
1562.54296875 1.880437 1.470519 -0.409918
1563.5625 1.8501629999999998 1.420211 -0.429952
1564.59765625 1.808042 1.290706 -0.517336
1565.5859375 1.8380779999999999 1.254424 -0.583654
1566.57421875 1.860243 1.306186 -0.554057
1567.58203125 1.745634 1.255762 -0.489872
1568.5703125 1.872536 1.477536 -0.395
1569.5859375 1.88498 1.40998 -0.475
1570.65625 1.805556 1.405991 -0.399565
1571.71484375 1.709458 1.284578 -0.42488
1572.6875 1.7868400000000002 1.314615 -0.472225
1573.68359375 1.860932 1.377682 -0.48325
1574.7109375 1.8091869999999999 1.399187 -0.41
1575.76171875 1.787794 1.474212 -0.313582
1576.79296875 1.825402 1.409972 -0.41543
1577.8203125 1.826794 1.425278 -0.401516
1578.84375 1.747452 1.415 -0.332452
1579.80859375 1.8012810000000001 1.432017 -0.369264
1580.7890625 1.827865 1.324773 -0.503092
1581.84375 1.8405079999999998 1.373789 -0.466719
1582.8984375 1.8169089999999999 1.396909 -0.42
1583.88671875 1.8731239999999998 1.368124 -0.505
1584.859375 1.838081 1.357525 -0.480556
1585.859375 1.8067339999999998 1.344515 -0.462219
1586.8671875 1.835544 1.503532 -0.332012
1587.86328125 1.803916 1.344143 -0.459773
1588.89453125 1.9219300000000001 1.390865 -0.531065
1589.91015625 1.8801169999999998 1.432624 -0.447493
1590.88671875 1.864445 1.537687 -0.326758
1591.828125 1.862975 1.466942 -0.396033
1592.81640625 1.922644 1.507707 -0.414937
1593.890625 1.7776379999999998 1.413814 -0.363824
1594.921875 1.844532 1.549538 -0.294994
1595.91015625 1.939915 1.541102 -0.398813
1596.88671875 1.856001 1.516001 -0.34
1597.82421875 1.815734 1.56224 -0.253494
1598.76953125 1.938039 1.504912 -0.433127
1599.75 1.9852679999999998 1.505 -0.480268
1600.765625 1.925491 1.467188 -0.458303
1601.78125 1.900016 1.481893 -0.418123
1602.73046875 1.9368539999999999 1.52457 -0.412284
1603.69921875 1.92255 1.478129 -0.444421
1604.70703125 1.863899 1.469061 -0.394838
1605.76953125 1.817391 1.419983 -0.397408
1606.8359375 1.819803 1.424063 -0.39574
1607.86328125 1.776925 1.358306 -0.418619
1608.8671875 1.7910300000000001 1.350618 -0.440412
1609.859375 1.7019510000000002 1.311951 -0.39
1610.8203125 1.8532380000000002 1.447694 -0.405544
1611.84765625 1.8029069999999998 1.336326 -0.466581
1612.91015625 1.7708849999999998 1.317413 -0.453472
1613.94921875 1.767309 1.328861 -0.438448
1614.94140625 1.7695189999999998 1.255512 -0.514007
1615.93359375 1.7733349999999999 1.228076 -0.545259
1616.96875 1.712326 1.139677 -0.572649
1618.015625 1.841448 1.278675 -0.562773
1619.0546875 1.809111 1.347205 -0.461906
1620.08203125 1.730511 1.285622 -0.444889
1621.0703125 1.8018319999999999 1.307602 -0.49423
1622.08203125 1.868646 1.345542 -0.523104
1623.07421875 1.747086 1.31459 -0.432496
1624.11328125 1.857044 1.402907 -0.454137
1625.16796875 1.847308 1.389105 -0.458203
1626.15625 1.782082 1.388356 -0.393726
1627.109375 1.854674 1.424674 -0.43
1628.07421875 1.864568 1.3865 -0.478068
1629.109375 1.7782969999999998 1.388297 -0.39
1630.14453125 1.789359 1.424877 -0.364482
1631.1640625 1.772027 1.343724 -0.428303
1632.19140625 1.699906 1.249906 -0.45
1633.12109375 1.792742 1.251487 -0.541255
1634.078125 1.834654 1.298387 -0.536267
1635.078125 1.844392 1.343776 -0.500616
1636.12890625 1.7286 1.339151 -0.389449
1637.140625 1.815654 1.388144 -0.42751
1638.12890625 1.8618679999999999 1.342336 -0.519532
1639.109375 1.8144209999999998 1.279218 -0.535203
1640.09765625 1.779177 1.261968 -0.517209
1641.078125 1.8755920000000001 1.364649 -0.510943
1642.10546875 1.8158100000000001 1.359957 -0.455853
1643.13671875 1.7692359999999998 1.416688 -0.352548
1644.08203125 1.847707 1.383262 -0.464445
1645.0 1.9148370000000001 1.445 -0.469837
1645.921875 1.8801400000000001 1.449688 -0.430452
1646.8359375 1.749531 1.529798 -0.219733
1647.7890625 1.8690039999999999 1.409598 -0.459406
1648.7265625 1.8422709999999998 1.226195 -0.616076
1649.65625 1.844088 1.214335 -0.629753
1650.59765625 1.727805 1.132805 -0.595
1651.52734375 1.833688 1.285594 -0.548094
1652.51171875 1.837864 1.390371 -0.447493
1653.5078125 1.9211369999999999 1.411204 -0.509933
1654.54296875 1.869055 1.264091 -0.604964
1655.59375 1.845448 1.295 -0.550448
1656.57421875 1.80782 1.249203 -0.558617
1657.546875 1.856152 1.326152 -0.53
1658.55078125 1.799553 1.309553 -0.49
1659.625 1.785 1.315 -0.47
1660.65625 1.806284 1.320543 -0.485741
1661.6796875 1.828191 1.321229 -0.506962
1662.69921875 1.7564849999999999 1.411954 -0.344531
1663.640625 1.884274 1.481249 -0.403025
1664.6015625 1.7435640000000001 1.293655 -0.449909
1665.625 1.734112 1.21 -0.524112
1666.63671875 1.813951 1.309727 -0.504224
1667.62890625 1.8085200000000001 1.193526 -0.614994
1668.58984375 1.7615729999999998 1.179528 -0.582045
1669.55859375 1.782032 1.264502 -0.51753
1670.5390625 1.834424 1.321709 -0.512715
1671.55859375 1.869778 1.302087 -0.567691
1672.5703125 1.8694810000000002 1.422832 -0.446649
1673.5625 1.92859 1.431683 -0.496907
1674.54296875 1.871886 1.376937 -0.494949
1675.4765625 1.8283870000000002 1.424762 -0.403625
1676.40234375 1.982678 1.421901 -0.560777
1677.3984375 1.89438 1.269666 -0.624714
1678.41015625 1.872999 1.383446 -0.489553
1679.36328125 1.9469159999999999 1.524281 -0.422635
1680.29296875 1.839123 1.419456 -0.419667
1681.2421875 1.763862 1.315221 -0.448641
1682.16796875 1.901885 1.397013 -0.504872
1683.15234375 1.961036 1.316036 -0.645
1684.1640625 1.862076 1.229238 -0.632838
1685.203125 1.783506 1.273506 -0.51
1686.15625 1.93248 1.339269 -0.593211
1687.0859375 1.933484 1.33864 -0.594844
1688.01171875 1.82239 1.245709 -0.576681
1688.9296875 1.85732 1.252639 -0.604681
1689.87890625 1.844763 1.239769 -0.604994
1690.859375 1.8035290000000002 1.243613 -0.559916
1691.82421875 1.751442 1.317385 -0.434057
1692.765625 1.8391449999999998 1.309624 -0.529521
1693.74609375 1.8754810000000002 1.35078 -0.524701
1694.75390625 1.775059 1.285524 -0.489535
1695.828125 1.761485 1.279229 -0.482256
1696.88671875 1.7599230000000001 1.291628 -0.468295
1697.94921875 1.7119149999999999 1.312396 -0.399519
1698.9296875 1.741344 1.404438 -0.336906
1699.90234375 1.822641 1.310795 -0.511846
1700.94140625 1.878944 1.409061 -0.469883
1701.96484375 2.04479 1.506165 -0.538625
1702.9609375 1.9730560000000001 1.447468 -0.525588
1703.94921875 1.939268 1.395 -0.544268
1704.92578125 1.869189 1.284253 -0.584936
1705.90625 1.914611 1.307994 -0.606617
1706.9140625 1.767031 1.253832 -0.513199
1707.921875 1.782236 1.237264 -0.544972
1708.96875 1.842954 1.283587 -0.559367
1709.96484375 1.789005 1.237209 -0.551796
1710.92578125 1.794136 1.264136 -0.53
1711.91015625 1.8275800000000002 1.263322 -0.564258
1712.9296875 1.834276 1.314276 -0.52
1713.984375 1.673108 1.234708 -0.4384
1714.9765625 1.846023 1.339016 -0.507007
1716.0078125 1.8533400000000002 1.31851 -0.53483
1716.99609375 1.8174579999999998 1.302927 -0.514531
1717.96484375 1.7379319999999998 1.298088 -0.439844
1718.953125 1.920413 1.373389 -0.547024
1719.99609375 1.8978190000000001 1.381335 -0.516484
1721.0625 1.84262 1.279189 -0.563431
1722.046875 1.911942 1.381942 -0.53
1723.00390625 1.958259 1.318281 -0.639978
1724.015625 1.912903 1.30533 -0.607573
1725.02734375 1.866889 1.374444 -0.492445
1726.05078125 1.939579 1.50324 -0.436339
1727.08203125 1.937587 1.437587 -0.5
1728.11328125 1.838984 1.334165 -0.504819
1729.05078125 1.9072330000000002 1.434741 -0.472492
1729.9921875 2.03122 1.426119 -0.605101
1731.0 1.853068 1.385 -0.468068
1732.01953125 1.847544 1.371388 -0.476156
1732.97265625 1.908674 1.388674 -0.52
1733.92578125 1.9928439999999998 1.4617 -0.531144
1734.86328125 1.856783 1.381783 -0.475
1735.8046875 2.030097 1.652575 -0.377522
1736.7421875 2.0069879999999998 1.500602 -0.506386
1737.75 1.9640870000000001 1.445 -0.519087
1738.8046875 1.888959 1.390038 -0.498921
1739.80859375 1.9063470000000002 1.38718 -0.519167
1740.7578125 1.9356369999999998 1.411833 -0.523804
1741.7265625 1.922336 1.423976 -0.49836
1742.703125 1.728638 1.38784 -0.340798
1743.6796875 1.892412 1.383939 -0.508473
1744.66796875 1.8619890000000001 1.430228 -0.431761
1745.6484375 1.7321550000000001 1.319395 -0.41276
1746.62109375 1.8183859999999998 1.446203 -0.372183
1747.58203125 1.8565070000000001 1.375742 -0.480765
1748.56640625 1.8916979999999999 1.389155 -0.502543
1749.6171875 1.8144399999999998 1.331805 -0.482635
1750.67578125 1.8552490000000001 1.340249 -0.515
1751.734375 1.79053 1.285625 -0.504905
1752.7265625 1.747951 1.253584 -0.494367
1753.72265625 1.74363 1.294931 -0.448699
1754.70703125 1.883656 1.354009 -0.529647
1755.73046875 1.9098410000000001 1.319841 -0.59
1756.7890625 1.910322 1.308596 -0.601726
1757.80859375 1.851985 1.299954 -0.552031
1758.80859375 1.8775680000000001 1.399906 -0.477662
1759.79296875 1.853565 1.418658 -0.434907
1760.80078125 1.833494 1.398657 -0.434837
1761.8828125 1.737693 1.332693 -0.405
1762.91015625 1.84712 1.402322 -0.444798
1763.91015625 1.798685 1.409342 -0.389343
1764.90234375 1.832782 1.416795 -0.415987
1765.91015625 1.75989 1.291245 -0.468645
1766.94140625 1.760145 1.234954 -0.525191
1768.00390625 1.712617 1.222623 -0.489994
1769.04296875 1.853118 1.465437 -0.387681
1770.04296875 1.8923139999999998 1.43851 -0.453804
1770.984375 1.8426550000000002 1.397823 -0.444832
1771.93359375 1.856859 1.381859 -0.475
1772.88671875 1.867973 1.36603 -0.501943
1773.85546875 1.857568 1.374835 -0.482733
1774.76953125 1.840142 1.302352 -0.53779
1775.703125 1.7977750000000001 1.284743 -0.513032
1776.6484375 1.860672 1.350672 -0.51
1777.625 1.790054 1.365 -0.425054
1778.57421875 1.951677 1.479247 -0.47243
1779.578125 1.8910779999999998 1.441342 -0.449736
1780.62109375 1.912311 1.525246 -0.387065
1781.65234375 1.773372 1.408043 -0.365329
1782.6015625 1.9157119999999999 1.471723 -0.443989
1783.53125 1.921617 1.44743 -0.474187
1784.54296875 1.8921670000000002 1.402514 -0.489653
1785.5859375 1.850311 1.423644 -0.426667
1786.6015625 1.853068 1.444766 -0.408302
1787.61328125 1.939419 1.472544 -0.466875
1788.609375 1.9267910000000001 1.491851 -0.43494
1789.62890625 1.858472 1.428496 -0.429976
1790.6328125 1.849094 1.428581 -0.420513
1791.69921875 1.847522 1.458931 -0.388591
1792.76171875 1.8630520000000002 1.52878 -0.334272
1793.74609375 1.9292960000000001 1.559581 -0.369715
1794.71484375 1.884542 1.514845 -0.369697
1795.6953125 1.86235 1.493072 -0.369278
1796.72265625 1.8935909999999998 1.492109 -0.401482
1797.76171875 1.868028 1.505771 -0.362257
1798.80078125 1.729447 1.369592 -0.359855
1799.81640625 1.859544 1.434544 -0.425
1800.80859375 1.8607529999999999 1.432003 -0.42875
1801.796875 1.781762 1.346381 -0.435381
1802.78515625 1.877278 1.448495 -0.428783
1803.80859375 1.948909 1.473909 -0.475
