462212 
130 
332 
472 
590 
828 
960 
1102 
1310 
1446 
1576 
1807 
1934 
2065 
2264 
2407 
2543 
2751 
2889 
3013 
3234 
3363 
3494 
3683 
3824 
3941 
4182 
4321 
4466 
4666 
4805 
4915 
5086 
5214 
5346 
5499 
5642 
5781 
5897 
6054 
6193 
6333 
6444 
6598 
6724 
6850 
6968 
7123 
7263 
7399 
7516 
7661 
7792 
7921 
8036 
8185 
8306 
8442 
8555 
8716 
8856 
9005 
9157 
9303 
9429 
9578 
9709 
9837 
9976 
10120 
10262 
10381 
10544 
10680 
10807 
10961 
11101 
11239 
11389 
11537 
11659 
11847 
12005 
12134 
12299 
12443 
12574 
12729 
12867 
13005 
13157 
13305 
13448 
13559 
13736 
13882 
14003 
14153 
14285 
14413 
14527 
14722 
14872 
14989 
15177 
15320 
15435 
15596 
15738 
15871 
15977 
16157 
16304 
16427 
16616 
16764 
16895 
17056 
17200 
17332 
17450 
17663 
17801 
17925 
18130 
18274 
18381 
18563 
18705 
18829 
18991 
19129 
19266 
19470 
19638 
19782 
19901 
20122 
20254 
20370 
20584 
20721 
20850 
21021 
21165 
21310 
21456 
21605 
21742 
21857 
22078 
22202 
22337 
22531 
22681 
22792 
22969 
23111 
23244 
23402 
23547 
23681 
23825 
23978 
24124 
24248 
24454 
24596 
24708 
24892 
25035 
25145 
25326 
25475 
25601 
25763 
25909 
26044 
26159 
26331 
26469 
26605 
26734 
26874 
27030 
27148 
27390 
27519 
27638 
27854 
27984 
28105 
28283 
28437 
28557 
28795 
28937 
29065 
29311 
29433 
29557 
29787 
29915 
30048 
30259 
30402 
30519 
30739 
30875 
31002 
31211 
31335 
31456 
31659 
31806 
31925 
32148 
32284 
32407 
32595 
32739 
32846 
33048 
33192 
33309 
33515 
33656 
33767 
33957 
34101 
34209 
34387 
34532 
34650 
34846 
35002 
35119 
35298 
35447 
35568 
35773 
35909 
36018 
36260 
36395 
36527 
36759 
36893 
37017 
37201 
37344 
37447 
37660 
37805 
37934 
38129 
38271 
38382 
38572 
38718 
38833 
39003 
39158 
39285 
39504 
39656 
39771 
40000 
40128 
40249 
40473 
40598 
40725 
40915 
41069 
41181 
41396 
41540 
41658 
41856 
41990 
42093 
42302 
42450 
42565 
42761 
42904 
43016 
43197 
43346 
43470 
43654 
43806 
43917 
44146 
44304 
44415 
44609 
44755 
44864 
45047 
45188 
45318 
45485 
45635 
45775 
45893 
46106 
46248 
46358 
46529 
46662 
46787 
46934 
47076 
47218 
47337 
47484 
47615 
47752 
47863 
48031 
48164 
48295 
48438 
48587 
48732 
48848 
49040 
49190 
49296 
49494 
49632 
49735 
49929 
50079 
50191 
50393 
50533 
50645 
50839 
50981 
51088 
51278 
51412 
51527 
51724 
51876 
51988 
52166 
52310 
52437 
52604 
52744 
52864 
53180 
53293 
54175 
54316 
54451 
54596 
54711 
54915 
55063 
55170 
55361 
55506 
55615 
55785 
55915 
56052 
56196 
56352 
56493 
56613 
56828 
56962 
57072 
57251 
57391 
57511 
57665 
57808 
57949 
58063 
58224 
58355 
58494 
58604 
58760 
58889 
59014 
59124 
59294 
59441 
59582 
59723 
59859 
60002 
60111 
60300 
60441 
60545 
60718 
60863 
61008 
61155 
61303 
61448 
61559 
61772 
61900 
62013 
62202 
62347 
62462 
62642 
62786 
62908 
63073 
63226 
63361 
63537 
63673 
63781 
63985 
64136 
64248 
64436 
64581 
64695 
64858 
65002 
65147 
65299 
65448 
65593 
65720 
65924 
66062 
66177 
66369 
66507 
66609 
66778 
66925 
67055 
67215 
67354 
67489 
67605 
67798 
67939 
68045 
68219 
68363 
68488 
68661 
68815 
68956 
69075 
69295 
69424 
69538 
69750 
69884 
70011 
70208 
70354 
70462 
70640 
70786 
70906 
71073 
71215 
71331 
71503 
71658 
71786 
71987 
72131 
72238 
72429 
72576 
72684 
72868 
73011 
73128 
73298 
73440 
73583 
73696 
73896 
74037 
74142 
74321 
74469 
74603 
74772 
74921 
75061 
75176 
75400 
75533 
75646 
75836 
75973 
76081 
76263 
76413 
76563 
76713 
76868 
77001 
77120 
77331 
77459 
77581 
77811 
77950 
78071 
78256 
78407 
78518 
78693 
78835 
78946 
79141 
79296 
79408 
79616 
79762 
79871 
80059 
80205 
80319 
80486 
80629 
80755 
80944 
81095 
81230 
81405 
81557 
81679 
81849 
81990 
82130 
82297 
82459 
82600 
82770 
82922 
83076 
83233 
83388 
83496 
83680 
83834 
83967 
84147 
84292 
84433 
84577 
84720 
84855 
84966 
85158 
85309 
85420 
85612 
85757 
85883 
86038 
86172 
86305 
86413 
86569 
86703 
86841 
86977 
87131 
87270 
87408 
87517 
87692 
87835 
87959 
88109 
88237 
88377 
88489 
88661 
88806 
88946 
89058 
89224 
89358 
89490 
89624 
89727 
89814 
89922 
90021 
90168 
90255 
90441 
90553 
90705 
90835 
90968 
91079 
91225 
91360 
91503 
91621 
91801 
91942 
92073 
92208 
92342 
92473 
92596 
92737 
92867 
93001 
93120 
93270 
93407 
93546 
93660 
93811 
93933 
94061 
94173 
94303 
94428 
94558 
94693 
94826 
94964 
95102 
95251 
95390 
95523 
95654 
95780 
95910 
96047 
96189 
96304 
96497 
96649 
96767 
96945 
97089 
97215 
97405 
97555 
97680 
97891 
98053 
98158 
98396 
98725 
98868 
99004 
99118 
99333 
99487 
99614 
99786 
99937 
100074 
100189 
100396 
100704 
100854 
101008 
101123 
101325 
101618 
101760 
101902 
102009 
102203 
102362 
102509 
102629 
102850 
103000 
103112 
103328 
103469 
103569 
103771 
103921 
104072 
104191 
104397 
104547 
104672 
104845 
105002 
105136 
105263 
105497 
105642 
105762 
105978 
106128 
106236 
106424 
106562 
106704 
106875 
107031 
107174 
107309 
107560 
107686 
107889 
108048 
108180 
108311 
108551 
108696 
108836 
109045 
109187 
109298 
109510 
109644 
109760 
110000 
110141 
110277 
110492 
110642 
110762 
110966 
111108 
111207 
111415 
111577 
111690 
111926 
112073 
112181 
112400 
112546 
112655 
112867 
113014 
113129 
113371 
113515 
113640 
113864 
114004 
114115 
114337 
114484 
114609 
114837 
114983 
115098 
115306 
115455 
115562 
115781 
115915 
116036 
116278 
116426 
116550 
116757 
116900 
117011 
117215 
117354 
117465 
117651 
117800 
117949 
118105 
118272 
118410 
118553 
118787 
118912 
119043 
119314 
119454 
119589 
119823 
119959 
120087 
120323 
120448 
120576 
120826 
120962 
121105 
121346 
121479 
121608 
121835 
121967 
122093 
122330 
122469 
122598 
122835 
122970 
123103 
123338 
123462 
123597 
123819 
123969 
124095 
124305 
124445 
124564 
124790 
124923 
125045 
125284 
125420 
125556 
125780 
125918 
126042 
126257 
126387 
126508 
126743 
126881 
127017 
127259 
127388 
127515 
127733 
127867 
127986 
128206 
128342 
128474 
128733 
128868 
128993 
129236 
129363 
129489 
129745 
129879 
130010 
130273 
130403 
130530 
130771 
130901 
131021 
131242 
131380 
131517 
131761 
131894 
132017 
132240 
132372 
132490 
132712 
132846 
132972 
133224 
133366 
133490 
133710 
133840 
133957 
134164 
134296 
134418 
134669 
134807 
134926 
135169 
135305 
135425 
135648 
135774 
135896 
136108 
136258 
136375 
136594 
136733 
136849 
137086 
137218 
137332 
137567 
137706 
137827 
138053 
138191 
138316 
138543 
138673 
138792 
139014 
139157 
139279 
139489 
139628 
139744 
139921 
140063 
140185 
140332 
140461 
140606 
140723 
140970 
141106 
141229 
141469 
141598 
141717 
141919 
142060 
142179 
142417 
142553 
142679 
142927 
143056 
143173 
143407 
143533 
143656 
143887 
144032 
144156 
144361 
144500 
144614 
144836 
144966 
145083 
145311 
145453 
145580 
145792 
145936 
146051 
146264 
146395 
146511 
146751 
146890 
147019 
147242 
147380 
147499 
147712 
147851 
147968 
148164 
148307 
148429 
148655 
148798 
148912 
149147 
149279 
149405 
149610 
149750 
149870 
150093 
150236 
150363 
150582 
150720 
150837 
151044 
151174 
151291 
151523 
151668 
151793 
152003 
152143 
152264 
152485 
152619 
152728 
152949 
153091 
153224 
153433 
153577 
153689 
153883 
154026 
154138 
154348 
154494 
154613 
154832 
154974 
155087 
155301 
155439 
155550 
155749 
155890 
156012 
156232 
156379 
156492 
156691 
156835 
156941 
157145 
157281 
157392 
157595 
157744 
157859 
158054 
158202 
158316 
158512 
158653 
158766 
158968 
159108 
159234 
159436 
159580 
159755 
159959 
160087 
160202 
160427 
160562 
160687 
160873 
161014 
161151 
161286 
161419 
161548 
161678 
161813 
161939 
162078 
162218 
162368 
162523 
162666 
162788 
162994 
163137 
163247 
163429 
163578 
163696 
163895 
164046 
164174 
164338 
164488 
164630 
164745 
164951 
165085 
165225 
165396 
165548 
165695 
165836 
165979 
166124 
166233 
166421 
166569 
166689 
166892 
167050 
167160 
167383 
167530 
167643 
167835 
167977 
168080 
168269 
168427 
168562 
168766 
168909 
169026 
169262 
169397 
169513 
169724 
169864 
169990 
170197 
170346 
170462 
170663 
170805 
170912 
171114 
171255 
171380 
171594 
171738 
171854 
172044 
172193 
172300 
172500 
172635 
172747 
172967 
173113 
173243 
173449 
173585 
173699 
173909 
174042 
174156 
174374 
174515 
174642 
174849 
174993 
175113 
175318 
175451 
175567 
175761 
175903 
176022 
176223 
176373 
176484 
176675 
176824 
176936 
177128 
177265 
177371 
177569 
177723 
177837 
178065 
178203 
178322 
178522 
178661 
178769 
178968 
179122 
179233 
179452 
179591 
179707 
179932 
180066 
180183 
180381 
180523 
180652 
180879 
181024 
181143 
181355 
181494 
181608 
181816 
181954 
182069 
182297 
182442 
182572 
182801 
182939 
183064 
183267 
183400 
183516 
183759 
183902 
184036 
184256 
184399 
184525 
184727 
184870 
184972 
185193 
185342 
185463 
185688 
185833 
185949 
186157 
186301 
186415 
186623 
186774 
186888 
187113 
187258 
187376 
187592 
187734 
187846 
188062 
188203 
188336 
188584 
188719 
188847 
189061 
189200 
189316 
189532 
189671 
189791 
190037 
190181 
190308 
190529 
190666 
190782 
190999 
191134 
191253 
191482 
191632 
191745 
191968 
192116 
192232 
192456 
192588 
192703 
192928 
193080 
193200 
193431 
193570 
193687 
193919 
194057 
194175 
194401 
194545 
194670 
194898 
195039 
195181 
195382 
195517 
195635 
195839 
195992 
196108 
196322 
196468 
196598 
196811 
196945 
197073 
197274 
197416 
197532 
197759 
197907 
198046 
198249 
198381 
198504 
198710 
198845 
198966 
199204 
199341 
199469 
199706 
199840 
199964 
200166 
200296 
200411 
200626 
200776 
200896 
201132 
201264 
201389 
201618 
201749 
201861 
202073 
202220 
202342 
202556 
202700 
202815 
203024 
203158 
203272 
203491 
203632 
203758 
203971 
204118 
204229 
204434 
204579 
204688 
204904 
205036 
205164 
205413 
205552 
205674 
205877 
206017 
206126 
206331 
206469 
206585 
206815 
206953 
207082 
207301 
207440 
207553 
207756 
207892 
208000 
208212 
208363 
208482 
208690 
208829 
208942 
209163 
209296 
209413 
209621 
209761 
209884 
210099 
210246 
210359 
210570 
210704 
210819 
211033 
211167 
211294 
211508 
211651 
211769 
211983 
212124 
212243 
212460 
212585 
212708 
212940 
213084 
213207 
213414 
213554 
213670 
213882 
214020 
214133 
214334 
214484 
214601 
214800 
214951 
215064 
215281 
215418 
215537 
215744 
215891 
216013 
216228 
216375 
216486 
216719 
216856 
216976 
217172 
217314 
217431 
217665 
217811 
217940 
218172 
218303 
218431 
218649 
218782 
218900 
219125 
219271 
219392 
219622 
219764 
219885 
220096 
220231 
220345 
220579 
220726 
220849 
221071 
221213 
221332 
221549 
221689 
221797 
222005 
222156 
222278 
222501 
222646 
222761 
222955 
223104 
223209 
223397 
223559 
223686 
223891 
224045 
224165 
224408 
224552 
224664 
224892 
225028 
225154 
225346 
225495 
225634 
225770 
225908 
226053 
226203 
226345 
226488 
226638 
226748 
226976 
227131 
227239 
227417 
227556 
227689 
227804 
227990 
228146 
228287 
228446 
228594 
228741 
228853 
229024 
229164 
229301 
229418 
229580 
229735 
229895 
230015 
230252 
230387 
230509 
230718 
230865 
230977 
231160 
231312 
231462 
231582 
231673 
231806 
231960 
232074 
232265 
232411 
232523 
232719 
232878 
233017 
233204 
233357 
233499 
233619 
233831 
233978 
234078 
234288 
234447 
234558 
234777 
234933 
235058 
235229 
235385 
235522 
235724 
235895 
236041 
236203 
236430 
236570 
236706 
236943 
237076 
237198 
237422 
237579 
237706 
237917 
238072 
238182 
238328 
238585 
238709 
238900 
239062 
239210 
239354 
239590 
239728 
239918 
240077 
240211 
240353 
240598 
240740 
240874 
241117 
241256 
241449 
241604 
241741 
241861 
242086 
242240 
242362 
242625 
242759 
242964 
243122 
243267 
243388 
243591 
243750 
243872 
244060 
244211 
244358 
244470 
244652 
244797 
244949 
245130 
245302 
245447 
245583 
245830 
245962 
246089 
246336 
246464 
246590 
246806 
246968 
247084 
247312 
247447 
247574 
247818 
247945 
248083 
248333 
248472 
248606 
248855 
248989 
249184 
249347 
249475 
249682 
249863 
250009 
250224 
250393 
250537 
250745 
250889 
251005 
251266 
251402 
251556 
251761 
251920 
252059 
252187 
252411 
252540 
252688 
252960 
253095 
253311 
253474 
253627 
253803 
253965 
254090 
254324 
254483 
254608 
254863 
254997 
255127 
255325 
255472 
255586 
255808 
255953 
256094 
256330 
256470 
256648 
256811 
256944 
257145 
257313 
257456 
257672 
257844 
257976 
258178 
258343 
258478 
258651 
258794 
258943 
259084 
259274 
259444 
259572 
259800 
259961 
260076 
260199 
260324 
260485 
260651 
260767 
260911 
261022 
261190 
261341 
261470 
261698 
261828 
261965 
262214 
262358 
262538 
262695 
262842 
262964 
263202 
263332 
263467 
263691 
263841 
264007 
264189 
264345 
264482 
264681 
264837 
264978 
265193 
265368 
265507 
265720 
265898 
266031 
266233 
266385 
266522 
266721 
266893 
267040 
267231 
267400 
267533 
267755 
267911 
268031 
268149 
268280 
268444 
268606 
268718 
268881 
269000 
269152 
269299 
269417 
269637 
269789 
269922 
270144 
270282 
270421 
270582 
270727 
270869 
271000 
271199 
271358 
271512 
271756 
271888 
272078 
272236 
272372 
272522 
272729 
272901 
273042 
273256 
273436 
273573 
273797 
273953 
274069 
274201 
274320 
274469 
274642 
274755 
275040 
275179 
275373 
275530 
275666 
275854 
276036 
276176 
276413 
276588 
276701 
276824 
276947 
277109 
277257 
277456 
277630 
277773 
277998 
278173 
278309 
278535 
278698 
278816 
278943 
279076 
279263 
279413 
279611 
279777 
279913 
280126 
280290 
280432 
280633 
280810 
280954 
281180 
281346 
281478 
281686 
281844 
281989 
282203 
282377 
282514 
282726 
282898 
283030 
283232 
283392 
283535 
283743 
283913 
284058 
284243 
284408 
284540 
284758 
284920 
285061 
285285 
285460 
285593 
285720 
285980 
286111 
286288 
286439 
286588 
286795 
286969 
287104 
287327 
287488 
287598 
287729 
287852 
288039 
288173 
288425 
288579 
288779 
288947 
289083 
289270 
289428 
289565 
289796 
289970 
290108 
290318 
290491 
290624 
290814 
290971 
291112 
291309 
291483 
291632 
291826 
291985 
292120 
292316 
292468 
292607 
292784 
292953 
293099 
293298 
293466 
293602 
293797 
293953 
294086 
294288 
294456 
294600 
294785 
294950 
295084 
295290 
295456 
295581 
295788 
295958 
296105 
296292 
296456 
296591 
296789 
296948 
297078 
297291 
297459 
297603 
297800 
297964 
298103 
298299 
298453 
298583 
298782 
298956 
299099 
299294 
299458 
299592 
299804 
299969 
300102 
300278 
300437 
300583 
300748 
300903 
301051 
301192 
301329 
301462 
301596 
301727 
301861 
301997 
302129 
302260 
302389 
302515 
302636 
302762 
302882 
303002 
303118 
303231 
303346 
303468 
303596 
303725 
303847 
303969 
304082 
304205 
304327 
304446 
304568 
304693 
304814 
304960 
305102 
305237 
305398 
305531 
305677 
305777 
305938 
306070 
306204 
306332 
306472 
306615 
306749 
306909 
307050 
307172 
307324 
307463 
307594 
307726 
307851 
307954 
308137 
308275 
308416 
308555 
308686 
308818 
308950 
309083 
309220 
309352 
309480 
309620 
309764 
309907 
310042 
310190 
310335 
310480 
310623 
310774 
310895 
311050 
311201 
311348 
311498 
312090 
312232 
312377 
312508 
312653 
312774 
312963 
313114 
313234 
313394 
313530 
313662 
313801 
313933 
314068 
314209 
314310 
314529 
314669 
314790 
314991 
315125 
315280 
315421 
315552 
315677 
315862 
316011 
316165 
316305 
316448 
316567 
316729 
316872 
317005 
317138 
317276 
317418 
317562 
317701 
317843 
317987 
318127 
318264 
318400 
318539 
318684 
318812 
319031 
319163 
319337 
319488 
319623 
319801 
319961 
320092 
320262 
320421 
320588 
320760 
320916 
321048 
321239 
321401 
321526 
321715 
321871 
322009 
322192 
322352 
322496 
322659 
322808 
322913 
323108 
323247 
323385 
323542 
323696 
323848 
323991 
324161 
324317 
324429 
324559 
324753 
324881 
325034 
325179 
325318 
325978 
326100 
326245 
326379 
326514 
326662 
326814 
326947 
327149 
327306 
327442 
327614 
327755 
327886 
328042 
328201 
328349 
328522 
328674 
328809 
328977 
329120 
329260 
329410 
329563 
329705 
329921 
330096 
330225 
330428 
330573 
330705 
330858 
331000 
331148 
331300 
331442 
331582 
331714 
331855 
332000 
332141 
332279 
332411 
332560 
332723 
332868 
333039 
333197 
333340 
333508 
333659 
333803 
333945 
334086 
334227 
334374 
334522 
334666 
334809 
334949 
335090 
335234 
335365 
335550 
335723 
335872 
335987 
336237 
336388 
336530 
336673 
336816 
336947 
337156 
337294 
337519 
337681 
337795 
338008 
338141 
338305 
338446 
338575 
338769 
338922 
339078 
339231 
339392 
339518 
339632 
339849 
339975 
340122 
340261 
340400 
340541 
340682 
340817 
340951 
341104 
341270 
341402 
341608 
341737 
341909 
342058 
342196 
342370 
342533 
342663 
342874 
343006 
343172 
343322 
343460 
343634 
343797 
343927 
344127 
344280 
344397 
344535 
344732 
344859 
345039 
345204 
345335 
345526 
345668 
345798 
345969 
346118 
346238 
346447 
346591 
346768 
346920 
347061 
347203 
347339 
347467 
347596 
347722 
347843 
347974 
348109 
348249 
348390 
348537 
348669 
348830 
348971 
349108 
349242 
349370 
349511 
349653 
349809 
349959 
350109 
350225 
350420 
350569 
350694 
350875 
351026 
351158 
351373 
351519 
351713 
351866 
352002 
352166 
352314 
352440 
352600 
352771 
352909 
353146 
353282 
353484 
353644 
353776 
353910 
354127 
355482 
355623 
355725 
355827 
355991 
356130 
356304 
356461 
356599 
356769 
356911 
357040 
357226 
357389 
357532 
357708 
357865 
357998 
358219 
358366 
358515 
358690 
358851 
358986 
359182 
359341 
359477 
359690 
359851 
359971 
360098 
360321 
360463 
360636 
360784 
360931 
361044 
361224 
361366 
361499 
361648 
361793 
361939 
362070 
362241 
362390 
362523 
362672 
362815 
362958 
363076 
363258 
363415 
363553 
363762 
363928 
364076 
364211 
364402 
364534 
364693 
364846 
364990 
365179 
365337 
365474 
365636 
365788 
365932 
366086 
366224 
366369 
366495 
366717 
366856 
367066 
367225 
367362 
367531 
367682 
367816 
367986 
368135 
368284 
368435 
368587 
368734 
368871 
369081 
369212 
369368 
369519 
369670 
369832 
369992 
370129 
370296 
370449 
370580 
370771 
370920 
371055 
371241 
371409 
371546 
371749 
371903 
372032 
372158 
372338 
372474 
372629 
372795 
372941 
373126 
373272 
373414 
373571 
373713 
373848 
373985 
374134 
374281 
374413 
374578 
374733 
374865 
375072 
375218 
375333 
375541 
375680 
375853 
376002 
376146 
376273 
376440 
376594 
376714 
376905 
377042 
377170 
377368 
377524 
377636 
377814 
377962 
378098 
378248 
378411 
378540 
378728 
378898 
379039 
379256 
379417 
379546 
379687 
379880 
380006 
380162 
380308 
380447 
380585 
380720 
380859 
381002 
381173 
381343 
381471 
381682 
381818 
382025 
382195 
382340 
382492 
382632 
382771 
382918 
383068 
383197 
383384 
383539 
383677 
383846 
383999 
384138 
384303 
384446 
384583 
384729 
384877 
385030 
385144 
385340 
385484 
385600 
385777 
385922 
386038 
386209 
386352 
386475 
386670 
386827 
386948 
387152 
387305 
387411 
387622 
387753 
387912 
388062 
388209 
388327 
388524 
388670 
388784 
388962 
389097 
389218 
389364 
389509 
389656 
389785 
389950 
390088 
390235 
390383 
390528 
390669 
390800 
390943 
391086 
391249 
391400 
391544 
391656 
391817 
391949 
392082 
392230 
392372 
392522 
392632 
392841 
392991 
393134 
393272 
393416 
393548 
393717 
393854 
393993 
394144 
394365 
394497 
394688 
394837 
394973 
395130 
395282 
395415 
395623 
395782 
395923 
396084 
396257 
396398 
396565 
396705 
396840 
396953 
397128 
397286 
397431 
397592 
397734 
397882 
398035 
398200 
398354 
398482 
398655 
398825 
398971 
399166 
399317 
399456 
399640 
399804 
399941 
400114 
400278 
400419 
400637 
400802 
400938 
401144 
401300 
401431 
401627 
401803 
401943 
402147 
402318 
402454 
402655 
402819 
402953 
403145 
403305 
403445 
403663 
403826 
403964 
404164 
404328 
404458 
404652 
404829 
404964 
405182 
405360 
405498 
405717 
405878 
406008 
406210 
406374 
406516 
406734 
406904 
407038 
407237 
407411 
407542 
407763 
407911 
408120 
408297 
408436 
408639 
408809 
408939 
409138 
409300 
409435 
409651 
409818 
409958 
410176 
410340 
410474 
410604 
410848 
410981 
411194 
411360 
411500 
411700 
411861 
411992 
412207 
412374 
412500 
412634 
412751 
412930 
413104 
413215 
413349 
413468 
413641 
413777 
413982 
414166 
414305 
414549 
414695 
414822 
415078 
415206 
415415 
415580 
415728 
415940 
416120 
416249 
416472 
416617 
416756 
417027 
417157 
417388 
417550 
417661 
417921 
418050 
418248 
418402 
418536 
418724 
418904 
419042 
419286 
419426 
419638 
419809 
419927 
420048 
420169 
420345 
420489 
420720 
420889 
421000 
421130 
421258 
421432 
421557 
421785 
421949 
422079 
422334 
422469 
422673 
422828 
422962 
423133 
423292 
423441 
423654 
423820 
423954 
424161 
424335 
424467 
424665 
424830 
424970 
425186 
425354 
425496 
425687 
425860 
425989 
426190 
426351 
426496 
426662 
426819 
426967 
427141 
427297 
427439 
427610 
427761 
427901 
428136 
428300 
428414 
428667 
428801 
429022 
429166 
429289 
429531 
429664 
429896 
430049 
430168 
430411 
430537 
430740 
430899 
431042 
431191 
431447 
431573 
431798 
431947 
432083 
432354 
432535 
432718 
432891 
433028 
433137 
433269 
433465 
433598 
433843 
433980 
434214 
434364 
434504 
434783 
434917 
435057 
435300 
435425 
435626 
435796 
435938 
436151 
436314 
436433 
436563 
436687 
436856 
436981 
437208 
437357 
437610 
437755 
437887 
438162 
438289 
438532 
438682 
438883 
439074 
439211 
439432 
439596 
439710 
439834 
439949 
440111 
440254 
440502 
440659 
440776 
441043 
441175 
441397 
441546 
441654 
441917 
442051 
442273 
442441 
442569 
442712 
442939 
443064 
443281 
443450 
443569 
443706 
443975 
444112 
444226 
444470 
444594 
444780 
444953 
445101 
445299 
445467 
445600 
445824 
445967 
446094 
446349 
446485 
446712 
446868 
446993 
447235 
447363 
447559 
447706 
447855 
448020 
448252 
448397 
448523 
448788 
448917 
449148 
449284 
449419 
449678 
449816 
450030 
450188 
450321 
450453 
450688 
450810 
451018 
451185 
451334 
451479 
451724 
451856 
452054 
452214 
452342 
452486 
452753 
452888 
453092 
453261 
453394 
453536 
453772 
453897 
454131 
454281 
454481 
454649 
454788 
454991 
455156 
455292 
455425 
455693 
455829 
456042 
456206 
456325 
456454 
456571 
456720 
456854 
457017 
457231 
457403 
457548 
457752 
457921 
458056 
458267 
458427 
458561 
458763 
458930 
459071 
459247 
459413 
459548 
459750 
459909 
460045 
460280 
460436 
460556 
460812 
460940 
461159 
461305 
461418 
461645 
461783 
462000 
462164 
