103 
357 
592 
849 
1147 
1394 
1643 
1908 
2168 
2410 
2646 
2914 
3180 
3418 
3671 
3914 
4145 
4370 
4609 
4865 
5094 
5319 
5561 
5809 
6046 
6268 
6505 
6743 
6987 
7212 
7449 
7689 
7924 
8147 
8372 
8602 
8827 
9045 
9295 
9534 
9755 
10007 
10278 
10519 
10791 
11082 
11341 
11592 
11861 
12128 
12380 
12637 
12904 
13157 
13403 
13654 
13903 
14127 
14355 
14594 
14833 
15046 
15269 
15514 
15753 
16002 
16258 
16500 
16729 
16964 
17223 
17457 
17707 
17969 
18235 
18486 
18743 
18999 
19237 
19461 
19693 
19925 
20152 
20372 
20601 
20861 
21089 
21323 
21573 
21815 
22054 
22304 
22578 
22821 
23064 
23310 
23558 
23790 
24032 
24280 
24529 
24755 
25017 
25263 
25493 
25754 
26021 
26246 
26478 
26749 
27018 
27248 
27509 
27790 
28031 
28272 
28530 
28790 
29018 
29255 
29509 
29744 
29959 
30185 
30430 
30661 
30888 
31136 
31388 
31616 
31861 
32123 
32361 
32600 
32873 
33131 
33357 
33578 
33812 
34034 
34258 
34493 
34733 
34968 
35215 
35468 
35703 
35931 
36194 
36449 
36682 
36928 
37190 
37423 
37644 
37879 
38113 
38327 
38547 
38784 
39018 
39238 
39474 
39757 
40009 
40247 
40510 
40756 
40976 
41219 
41503 
41749 
41991 
42249 
42500 
42720 
42960 
43208 
43455 
43678 
43916 
44179 
44416 
44632 
44883 
45154 
45390 
45633 
45902 
46157 
46379 
46601 
46824 
47048 
47261 
47486 
47732 
47964 
48202 
48508 
48771 
49037 
49308 
49579 
49834 
50101 
50364 
50615 
50881 
51144 
51406 
51656 
51912 
52170 
52415 
52666 
52920 
53178 
53416 
53655 
53914 
54171 
54407 
54649 
54910 
55162 
55391 
55620 
55855 
56077 
56302 
56525 
56756 
56980 
57223 
57477 
57728 
57956 
58195 
58423 
58639 
58863 
59089 
59300 
59513 
59737 
59951 
60157 
60371 
60592 
60811 
61055 
61310 
61556 
61825 
62082 
62321 
62570 
62803 
63019 
63232 
63460 
63714 
63960 
64205 
64486 
64771 
65031 
65293 
65564 
65817 
66047 
66306 
66572 
66814 
67039 
67296 
67551 
67780 
68016 
68263 
68492 
68709 
68951 
69215 
69449 
69704 
69970 
70195 
70415 
70654 
70887 
71106 
71333 
71571 
71802 
72051 
72331 
72583 
72818 
73073 
73343 
73588 
73830 
74084 
74322 
74548 
74789 
75063 
75335 
75584 
75828 
76069 
76291 
76516 
76735 
76974 
77207 
77443 
77701 
77964 
78204 
78463 
78738 
79001 
79238 
79490 
79765 
80014 
80245 
80486 
80738 
80972 
81199 
81441 
81679 
81907 
82144 
82386 
82618 
82852 
83110 
83374 
83606 
83847 
84120 
84352 
84586 
84829 
85081 
85309 
85545 
85791 
86045 
86271 
86519 
86772 
86999 
87218 
87456 
87707 
87935 
88163 
88435 
88703 
88936 
89178 
89421 
89657 
89871 
90109 
90391 
90635 
90860 
91107 
91367 
91590 
91815 
92063 
92307 
92524 
92751 
92997 
93224 
93438 
93669 
93914 
94144 
94361 
94598 
94864 
95120 
95352 
95626 
95889 
96123 
96365 
96627 
96861 
97075 
97308 
97561 
97786 
98008 
98265 
98537 
98772 
99018 
99303 
99547 
99769 
100022 
100295 
100533 
100749 
101000 
101262 
101516 
101756 
102020 
102303 
102554 
102784 
103039 
103285 
103511 
103730 
103970 
104215 
104439 
104668 
104920 
105189 
105430 
105695 
105968 
106205 
106428 
106657 
106891 
107109 
107333 
107571 
107814 
108034 
108255 
108492 
108732 
108948 
109189 
109454 
109710 
109945 
110185 
110422 
110642 
110856 
111089 
111341 
111569 
111786 
112018 
112239 
112449 
112663 
112913 
113162 
113392 
113670 
113949 
114184 
114425 
114680 
114917 
115141 
115367 
115607 
115840 
116054 
116272 
116509 
116730 
116952 
117186 
117452 
117705 
117929 
118157 
118394 
118619 
118835 
119045 
119251 
119464 
119683 
119899 
120119 
120333 
120648 
120945 
121205 
121465 
121731 
122001 
122256 
122523 
122789 
123049 
123302 
123561 
123815 
124043 
124283 
124556 
124807 
125040 
125303 
125564 
125797 
126025 
126275 
126526 
126772 
126996 
127247 
127511 
127780 
128011 
128241 
128478 
128718 
128935 
129158 
129406 
129659 
129885 
130125 
130391 
130643 
130862 
131105 
131373 
131612 
131837 
132076 
132313 
132530 
132753 
132987 
133215 
133436 
133668 
133916 
134165 
134393 
134644 
134930 
135185 
135435 
135685 
135929 
136154 
136392 
136645 
136882 
137115 
137349 
137605 
137848 
138098 
138350 
138595 
138826 
139067 
139304 
139537 
139761 
139987 
140225 
140458 
140680 
140919 
141166 
141420 
141652 
141895 
142156 
142393 
142621 
142856 
143080 
143305 
143543 
143798 
144037 
144280 
144548 
144790 
145016 
145256 
145502 
145740 
145969 
146217 
146468 
146688 
146922 
147160 
147387 
147606 
147841 
148107 
148341 
148559 
148823 
149092 
149325 
149551 
149801 
150047 
150270 
150498 
150737 
150966 
151179 
151399 
151637 
151870 
152083 
152309 
152558 
152785 
152997 
153220 
153452 
153674 
153885 
154102 
154364 
154594 
154807 
155039 
155276 
155502 
155714 
155941 
156199 
156438 
156654 
156881 
157128 
157350 
157563 
157806 
158064 
158289 
158503 
158731 
159003 
159243 
159491 
159763 
160011 
160228 
160474 
160726 
160960 
161180 
161411 
161666 
161892 
162110 
162337 
162559 
162778 
162997 
163235 
163459 
163683 
163898 
164107 
164314 
164546 
164781 
164995 
165211 
165451 
165677 
165891 
166120 
166369 
166602 
166818 
167052 
167314 
167549 
167766 
168019 
168282 
168515 
168735 
168988 
169233 
169453 
169682 
169933 
170173 
170391 
170621 
170875 
171103 
171319 
171553 
171799 
172031 
172245 
172467 
172724 
172956 
173173 
173410 
173644 
173865 
174075 
174299 
174545 
174768 
174976 
175203 
175424 
175645 
175849 
176071 
176302 
176520 
176731 
176959 
177204 
177431 
177649 
177892 
178151 
178380 
178619 
178861 
179103 
179329 
179552 
179804 
180061 
180285 
180547 
180819 
181057 
181284 
181514 
181767 
181990 
182228 
182516 
182790 
183030 
183272 
183533 
183760 
183977 
184200 
184427 
184649 
184880 
185115 
185349 
185580 
185828 
186107 
186356 
186595 
186827 
187049 
187271 
187497 
187716 
187939 
188151 
188372 
188606 
188834 
189053 
189277 
189495 
189704 
189913 
190141 
190390 
190614 
190862 
191165 
191421 
191671 
191934 
192186 
192411 
192649 
192907 
193144 
193361 
193606 
193883 
194133 
194360 
194607 
194870 
195108 
195336 
195578 
195842 
196075 
196302 
196550 
196797 
197018 
197258 
197514 
197757 
197981 
198217 
198465 
198681 
198889 
199104 
199328 
199541 
199748 
199970 
200208 
200425 
200631 
200856 
201094 
201319 
201530 
201765 
202034 
202260 
202492 
202730 
202959 
203174 
203396 
203622 
203848 
204062 
204276 
204521 
204750 
204971 
205197 
205433 
205664 
205880 
206138 
206418 
206672 
206920 
207170 
207424 
207649 
207879 
208131 
208385 
208620 
208869 
209141 
209392 
209619 
209867 
210118 
210360 
210579 
210805 
211055 
211283 
211497 
211727 
211978 
212228 
212451 
212692 
212942 
213165 
213384 
213614 
213851 
214077 
214302 
214536 
214781 
215005 
215236 
215519 
215788 
216028 
216264 
216503 
216740 
216956 
217198 
217453 
217701 
217922 
218151 
218396 
218649 
218868 
219099 
219337 
219579 
219798 
220019 
220264 
220497 
220708 
220938 
221175 
221405 
221620 
221834 
222055 
222279 
222486 
222699 
222931 
223182 
223408 
223664 
223983 
224245 
224513 
224786 
225054 
225301 
225557 
225822 
226063 
226297 
226546 
226794 
227018 
227245 
227504 
227753 
227977 
228231 
228499 
228748 
228968 
229211 
229489 
229729 
229961 
230221 
230473 
230700 
230912 
231154 
231392 
231608 
231820 
232037 
232258 
232469 
232677 
232904 
233181 
233416 
233683 
233972 
234235 
234463 
234708 
234981 
235206 
235429 
235667 
235903 
236122 
236356 
236604 
236844 
237063 
237291 
237524 
237752 
237976 
238212 
238489 
238729 
238954 
239188 
239427 
239655 
239873 
240122 
240380 
240608 
240826 
241072 
241324 
241557 
241778 
242037 
242316 
242548 
242770 
242997 
243218 
243439 
243664 
243918 
244171 
244393 
244641 
244938 
245194 
245433 
245699 
245969 
246197 
246427 
246661 
246906 
247129 
247364 
247610 
247863 
248087 
248318 
248589 
248862 
249093 
249326 
249564 
249787 
249994 
250223 
250455 
250681 
250888 
251116 
251354 
251588 
251801 
252035 
252287 
252538 
252758 
252994 
253244 
253463 
253672 
253889 
254108 
254326 
254532 
254744 
254958 
255174 
255381 
255593 
255819 
256049 
256267 
256492 
256731 
256969 
257191 
257431 
257722 
257974 
258214 
258462 
258697 
258912 
259141 
259395 
259620 
259843 
260071 
260314 
260542 
260759 
260986 
261226 
261451 
261669 
261892 
262124 
262369 
262592 
262816 
263047 
263275 
263493 
263720 
263950 
264183 
264404 
264656 
264901 
265137 
265365 
265595 
265828 
266073 
266293 
266524 
266771 
267047 
267291 
267546 
267816 
268054 
268270 
268498 
268742 
268982 
269206 
269424 
269647 
269867 
270077 
270297 
270521 
270742 
270955 
271177 
271417 
271651 
271865 
272084 
272313 
272534 
272748 
272966 
273181 
273395 
273607 
273812 
274033 
274243 
274473 
274708 
274960 
275209 
275471 
275781 
276038 
276271 
276494 
276708 
276927 
277149 
277372 
277601 
277820 
278071 
278388 
278659 
278951 
279232 
279498 
279762 
280022 
280255 
280481 
280709 
280926 
281141 
281372 
281611 
281844 
282104 
282385 
282627 
282869 
283150 
283394 
283628 
283864 
284099 
284327 
284561 
284798 
285026 
285246 
285498 
285743 
285976 
286206 
286459 
286729 
286964 
287207 
287449 
287673 
287897 
288150 
288424 
288692 
288926 
289173 
289427 
289659 
289885 
290111 
290348 
290572 
290797 
291046 
291294 
291516 
291750 
291981 
292214 
292426 
292647 
292867 
293097 
293320 
293545 
293781 
294016 
294241 
294474 
294707 
294928 
295145 
295383 
295626 
295843 
296056 
296269 
296505 
296720 
296927 
297149 
297360 
297560 
297768 
297970 
298187 
298391 
298594 
298812 
299032 
299246 
299462 
299707 
299942 
300166 
300389 
300618 
300842 
301062 
301286 
301530 
301758 
301992 
302232 
302485 
302707 
302928 
303159 
303378 
303604 
303869 
304106 
304352 
304637 
304897 
305130 
305381 
305650 
305885 
306105 
306331 
306557 
306768 
306978 
307202 
307442 
307664 
307883 
308121 
308362 
308575 
308794 
309014 
309235 
309445 
309664 
309923 
310171 
310395 
310643 
310903 
311135 
311351 
311580 
311822 
312040 
312250 
312482 
312732 
312965 
313185 
313447 
313743 
313991 
314222 
314453 
314684 
314905 
315115 
315348 
315595 
315842 
316067 
316322 
316605 
316844 
317080 
317321 
317561 
317773 
317982 
318189 
318393 
318596 
318791 
319004 
319230 
319447 
319684 
319967 
320236 
320478 
320756 
321041 
321289 
321544 
321804 
322035 
322249 
322463 
322700 
322910 
323122 
323340 
323573 
323788 
323997 
324205 
324441 
324657 
324864 
325076 
325299 
325528 
325743 
325965 
326204 
326434 
326643 
326848 
327057 
327263 
327475 
327683 
327890 
328107 
328322 
328544 
328761 
328976 
329196 
329415 
329640 
329856 
330067 
330273 
330472 
330669 
330868 
331067 
331260 
331449 
331642 
331837 
332026 
332210 
332397 
332585 
332776 
332973 
333160 
333348 
333543 
333734 
333925 
334113 
334310 
334509 
334709 
334904 
335115 
335366 
335643 
335926 
336193 
336463 
336706 
336948 
337204 
337447 
337678 
337893 
338115 
338346 
338584 
338800 
339031 
339277 
339506 
339722 
339938 
340167 
340390 
340592 
340797 
341011 
341221 
341422 
341636 
341857 
342066 
342281 
342505 
342734 
342954 
343220 
343502 
343745 
343996 
344261 
344525 
344759 
344983 
345205 
345446 
345673 
345890 
346111 
346347 
346582 
346806 
347050 
347317 
347555 
347780 
347996 
348218 
348431 
348651 
348892 
349119 
349341 
349576 
349834 
350081 
350301 
350530 
350774 
350993 
351212 
351438 
351670 
351897 
352139 
352437 
352706 
352971 
353225 
353466 
353699 
353923 
354135 
354345 
354559 
354780 
354993 
355201 
355435 
355676 
355894 
356112 
356339 
356577 
356795 
357002 
357217 
357435 
357640 
357842 
358051 
358268 
358480 
358685 
358901 
359136 
359354 
359565 
359789 
360008 
360221 
360441 
360664 
360886 
361100 
361330 
361553 
361775 
362019 
362335 
362601 
362885 
363151 
363420 
363696 
363963 
364225 
364471 
364739 
365008 
365250 
365516 
365779 
366016 
366238 
366467 
366678 
366881 
367093 
367320 
367533 
367737 
367947 
368152 
368357 
368556 
368750 
368946 
369144 
369356 
369562 
369763 
369975 
370212 
370422 
370644 
370902 
371179 
371410 
371654 
371908 
372151 
372367 
372590 
372832 
373105 
373367 
373592 
373831 
374122 
374393 
374637 
374877 
375120 
375365 
375591 
375806 
376030 
376278 
376520 
376749 
376994 
377302 
377568 
377826 
378081 
378329 
378562 
378781 
378999 
379228 
379441 
379671 
379906 
380174 
380427 
380716 
381002 
381266 
381549 
381821 
382074 
382341 
382590 
382838 
383064 
383286 
383499 
383711 
383946 
384201 
384428 
384683 
384918 
385131 
385345 
385573 
385833 
386049 
386263 
386521 
386773 
387018 
387314 
387597 
387845 
388084 
388336 
388556 
388767 
388989 
389201 
389415 
389646 
389879 
390112 
390326 
390549 
390782 
391011 
391227 
391472 
391689 
391898 
392106 
392311 
392513 
392723 
392927 
393163 
393406 
393630 
393858 
394162 
394448 
394703 
394976 
395248 
395498 
395770 
396035 
396291 
396571 
396865 
397123 
397409 
397684 
397943 
398225 
398492 
398747 
399013 
399282 
399527 
399761 
399997 
400218 
400432 
400647 
400872 
401101 
401312 
401524 
401742 
401961 
402174 
402381 
402582 
402786 
402995 
403199 
403408 
403633 
403847 
404065 
404291 
404535 
404782 
405004 
405239 
405490 
405797 
406048 
406267 
406503 
406729 
406954 
407174 
407383 
407616 
407855 
408085 
408307 
408526 
408756 
409003 
409227 
409448 
409678 
409906 
410136 
410349 
410555 
410764 
410975 
411182 
411389 
411601 
411821 
412045 
412261 
412484 
412809 
413111 
413400 
413664 
413943 
414212 
414472 
414741 
414999 
415246 
415512 
415784 
416039 
416309 
416568 
416813 
417051 
417295 
417522 
417755 
418064 
418323 
418628 
418893 
419172 
419447 
419729 
420012 
420266 
420496 
420705 
420898 
421093 
421284 
421471 
421650 
421832 
422015 
422198 
422387 
422567 
422758 
422962 
423170 
423365 
423560 
423771 
423990 
424206 
424409 
424615 
424843 
425074 
425297 
425513 
425742 
426077 
426341 
426627 
426946 
427235 
427507 
427799 
428065 
428321 
428611 
428883 
429133 
429416 
429722 
429992 
430301 
430582 
430854 
431142 
431405 
431677 
431952 
432206 
432459 
432730 
432985 
433235 
433513 
433819 
434114 
434386 
434661 
434951 
435206 
435435 
435683 
435979 
436260 
436552 
436824 
437101 
437357 
437624 
437883 
438122 
438331 
438558 
438799 
439011 
439222 
439445 
439665 
439873 
440088 
440303 
440515 
440717 
440916 
441127 
441344 
441561 
441759 
441962 
442169 
442382 
442594 
442796 
443013 
443233 
443444 
443661 
443865 
444077 
444285 
444497 
444712 
444926 
445138 
445358 
445578 
445792 
446006 
446217 
446431 
446656 
446864 
447069 
447285 
447503 
447721 
447933 
448144 
448368 
448598 
448816 
449023 
449248 
449487 
449728 
449964 
450286 
450574 
450841 
451133 
451400 
451678 
451958 
452219 
452477 
452737 
452987 
453263 
453535 
453788 
454070 
454323 
454569 
454835 
455108 
455358 
455646 
455905 
456175 
456444 
456689 
456947 
457205 
457448 
457669 
457885 
458097 
458304 
458506 
458722 
458931 
459136 
459343 
459543 
459746 
459956 
460156 
460358 
460556 
460746 
460930 
461124 
461324 
461539 
461754 
461960 
