3.97265625 3.138343 1.358696 -1.779647
4.81640625 2.2627129999999998 1.374755 -0.887958
5.62890625 3.313643 1.253643 -2.06
6.4375 3.399569 1.339121 -2.060448
7.28125 3.46624 1.428544 -2.037696
8.109375 3.4111320000000003 1.462378 -1.948754
8.96484375 3.42837 1.456397 -1.971973
9.82421875 3.435089 1.455371 -1.979718
10.69140625 3.317127 1.453111 -1.864016
11.515625 3.440873 1.500359 -1.940514
12.30078125 3.441893 1.435066 -2.006827
13.08984375 3.27489 1.308746 -1.966144
13.9296875 3.20862 1.249133 -1.959487
14.80078125 3.218012 1.301508 -1.916504
15.7109375 3.247343 1.413023 -1.83432
16.5546875 3.243159 1.332798 -1.910361
17.37109375 3.3605799999999997 1.270786 -2.089794
18.171875 3.4282779999999997 1.224201 -2.204077
19.015625 3.241976 1.323068 -1.918908
19.83984375 3.189773 1.41996 -1.769813
20.70703125 3.173831 1.485159 -1.688672
21.57421875 3.1829780000000003 1.431259 -1.751719
22.41796875 3.241584 1.36504 -1.876544
23.26171875 3.150997 1.327559 -1.823438
24.0703125 3.117438 1.227785 -1.889653
24.85546875 3.209751 1.224204 -1.985547
25.6875 3.2693079999999997 1.189074 -2.080234
26.5234375 3.1923120000000003 1.154589 -2.037723
27.43359375 2.948831 0.870147 -2.078684
28.2890625 3.348832 1.153832 -2.195
29.12109375 3.215053 1.071169 -2.143884
29.9140625 3.2207280000000003 0.945597 -2.275131
30.7265625 3.219664 0.895264 -2.3244
31.53515625 3.1198129999999997 1.018773 -2.10104
32.40234375 3.0589319999999995 1.028932 -2.03
33.3046875 3.159641 1.16843 -1.991211
34.1484375 3.1338489999999997 1.088341 -2.045508
34.984375 3.110797 1.095797 -2.015
35.80078125 3.103505 1.129447 -1.974058
36.59375 3.342471 1.223182 -2.119289
37.4296875 3.236603 1.093719 -2.142884
38.04296875 1.774774 0.404774 -1.37
38.91015625 3.01978 1.35192 -1.66786
39.77734375 3.2079329999999997 1.346646 -1.861287
40.6328125 3.14816 1.269019 -1.879141
41.46875 2.9184089999999996 1.088504 -1.829905
42.26171875 3.199772 0.994906 -2.204866
43.046875 3.1246340000000004 0.944634 -2.18
43.87109375 3.197461 1.165858 -2.031603
44.765625 3.16201 1.19201 -1.97
45.6484375 3.096393 1.256393 -1.84
46.46875 3.011252 1.288571 -1.722681
47.3046875 3.083079 1.253079 -1.83
48.10546875 3.133892 1.34951 -1.784382
48.90234375 3.052503 1.353398 -1.699105
49.76171875 3.217961 1.379264 -1.838697
50.60546875 3.1468670000000003 1.257786 -1.889081
51.46484375 3.101572 1.180806 -1.920766
52.328125 3.193251 1.153298 -2.039953
53.16796875 3.210882 1.140882 -2.07
53.9765625 3.0968850000000003 1.113385 -1.9835
54.765625 3.083525 1.073668 -2.009857
55.578125 3.146028 0.996028 -2.15
56.43359375 3.188217 1.176456 -2.011761
57.31640625 3.211755 1.324695 -1.88706
58.1796875 3.249887 1.302377 -1.94751
59.015625 3.111832 1.241875 -1.869957
59.82421875 3.140275 1.24071 -1.899565
60.6015625 3.2840809999999996 1.229233 -2.054848
61.453125 3.286919 1.288024 -1.998895
62.3203125 3.261281 1.276449 -1.984832
63.20703125 3.428885 1.323885 -2.105
64.0625 3.2909249999999997 1.265925 -2.025
64.91015625 3.2595089999999995 1.196661 -2.062848
65.72265625 3.417808 1.19786 -2.219948
66.53125 3.301492 1.127516 -2.173976
67.36328125 3.227333 1.201773 -2.02556
68.1875 3.349896 1.315243 -2.034653
69.046875 3.2598339999999997 1.064834 -2.195
69.91796875 3.191845 1.029402 -2.162443
70.7734375 3.250463 1.182782 -2.067681
71.6015625 2.834514 1.27766 -1.556854
72.3828125 2.865931 1.401585 -1.464346
73.1953125 3.219391 1.405329 -1.814062
74.01953125 3.3932539999999998 1.454768 -1.938486
74.890625 3.354886 1.404886 -1.95
75.76953125 3.220642 1.354536 -1.866106
76.6171875 3.051154 1.277836 -1.773318
77.42578125 3.0511660000000003 1.368563 -1.682603
78.23828125 3.1951669999999996 1.597886 -1.597281
79.06640625 2.745712 1.462585 -1.283127
79.91796875 1.8118340000000002 1.674716 -0.137118
80.4921875 2.797431 2.229011 -0.56842
81.37890625 1.634077 1.654614 0.020537
82.05078125 2.7691660000000002 2.270254 -0.498912
82.91015625 3.076477 1.671477 -1.405
83.73828125 3.148931 1.479755 -1.669176
84.53515625 3.050293 1.268535 -1.781758
85.3515625 3.191184 1.270387 -1.920797
86.16796875 1.746493 1.297093 -0.4494
86.78515625 2.801219 1.964993 -0.836226
87.70703125 1.769962 1.552762 -0.2172
88.3984375 2.791282 1.976282 -0.815
89.2421875 1.8794460000000002 1.486936 -0.39251
89.90234375 2.922218 2.038069 -0.884149
90.73046875 1.879343 1.724696 -0.154647
91.3828125 2.8162 2.252763 -0.563437
92.25 3.120101 1.645 -1.475101
93.140625 3.150867 1.390596 -1.760271
93.98828125 3.1210449999999996 1.317038 -1.804007
94.82421875 2.992954 1.323631 -1.669323
95.65625 3.0119040000000004 1.374435 -1.637469
96.453125 3.122614 1.433395 -1.689219
97.265625 3.148766 1.424081 -1.724685
98.078125 3.1043950000000002 1.299563 -1.804832
98.91796875 3.106614 1.307427 -1.799187
99.77734375 3.084726 1.471693 -1.613033
100.640625 3.1879920000000004 1.408543 -1.779449
101.47265625 3.233711 1.529344 -1.704367
102.26953125 3.174715 1.489715 -1.685
103.0546875 3.141917 1.432038 -1.709879
103.8671875 3.2055439999999997 1.530544 -1.675
104.765625 3.248107 1.524973 -1.723134
105.64453125 3.2648770000000003 1.604877 -1.66
106.4765625 3.1756789999999997 1.597137 -1.578542
107.3125 3.227964 1.6091 -1.618864
108.1171875 3.295613 1.582833 -1.71278
108.921875 3.263211 1.315446 -1.947765
109.76953125 3.126357 1.309557 -1.8168
110.62109375 3.147808 1.457903 -1.689905
111.49609375 3.1193739999999996 1.400062 -1.719312
112.34765625 3.194128 1.379183 -1.814945
113.05859375 2.930155 2.024945 -0.90521
113.89453125 1.86247 1.554767 -0.307703
114.703125 3.279859 1.509919 -1.76994
115.5078125 3.247434 1.312813 -1.934621
116.36328125 3.174753 1.154753 -2.02
117.23828125 3.16524 1.221865 -1.943375
118.1015625 3.1843440000000003 1.334398 -1.849946
118.95703125 3.178407 1.456382 -1.722025
119.76953125 3.122941 1.257998 -1.864943
120.55078125 3.038234 1.356969 -1.681265
121.38671875 3.070774 1.340525 -1.730249
122.28515625 3.0459899999999998 1.33599 -1.71
123.203125 3.103637 1.304193 -1.799444
124.05859375 3.013635 1.274736 -1.738899
124.90625 3.0629030000000004 1.235 -1.827903
125.7109375 3.110319 1.263582 -1.846737
126.51953125 3.139929 1.219768 -1.920161
127.3828125 3.150403 1.22575 -1.924653
128.25 3.1484259999999997 1.255 -1.893426
129.12109375 3.049454 1.254509 -1.794945
129.99609375 2.925392 1.297074 -1.628318
130.8515625 3.0470990000000002 1.252303 -1.794796
131.6796875 3.0924490000000002 1.278503 -1.813946
132.44921875 3.220832 1.335263 -1.885569
133.25 3.1266030000000002 1.395 -1.731603
134.08203125 3.083538 1.314622 -1.768916
134.95703125 3.2218980000000004 1.266898 -1.955
135.84375 3.0657389999999998 1.221096 -1.844643
136.6953125 3.0849830000000003 1.170172 -1.914811
137.50390625 3.17139 1.07639 -2.095
138.30859375 3.084378 1.009403 -2.074975
139.1484375 3.0609450000000002 1.140784 -1.920161
139.9921875 3.176287 1.110732 -2.065555
140.85546875 3.2229989999999997 1.203817 -2.019182
141.71484375 3.187101 1.133461 -2.05364
142.5546875 3.2420980000000004 1.232445 -2.009653
143.3984375 3.259155 1.209366 -2.049789
144.21484375 3.190967 1.099237 -2.09173
145.01171875 3.237222 1.014751 -2.222471
145.84765625 3.2119029999999995 1.125757 -2.086146
146.7109375 3.178467 1.174779 -2.003688
147.6015625 3.2987830000000002 1.312637 -1.986146
148.44921875 3.305052 1.33124 -1.973812
149.26953125 3.174494 1.139046 -2.035448
150.0625 3.195954 1.130976 -2.064978
150.8671875 3.085823 1.1213 -1.964523
151.6875 3.106917 1.08373 -2.023187
152.578125 2.9458130000000002 0.796466 -2.149347
153.45703125 3.2529760000000003 1.078698 -2.174278
154.296875 3.3074120000000002 1.135496 -2.171916
155.13671875 3.254293 1.054891 -2.199402
155.9609375 3.157324 0.979591 -2.177733
156.76171875 3.087256 1.069184 -2.018072
157.5859375 3.199812 1.079812 -2.12
158.41796875 3.138979 1.014445 -2.124534
159.29296875 2.785699 1.058853 -1.726846
160.171875 1.729285 1.464285 -0.265
160.734375 2.4299999999999997 1.785 -0.645
161.5859375 1.723503 1.4327 -0.290803
162.33984375 1.659318 1.267754 -0.391564
163.14453125 2.594008 1.324793 -1.269215
163.99609375 3.243916 1.069309 -2.174607
164.890625 3.2505100000000002 0.909597 -2.340913
165.7734375 3.111896 0.757775 -2.354121
166.609375 3.067851 0.890179 -2.177672
167.4375 3.045298 1.125298 -1.92
168.23046875 3.08534 1.369507 -1.715833
169.0390625 3.124529 1.474529 -1.65
169.8984375 3.156687 1.398269 -1.758418
170.75390625 3.166336 1.356715 -1.809621
171.60546875 3.193813 1.404672 -1.789141
172.46875 3.232767 1.332818 -1.899949
173.3125 3.14069 1.18575 -1.95494
174.109375 3.1134380000000004 1.146171 -1.967267
174.9140625 3.163932 1.23988 -1.924052
175.73046875 2.6943770000000002 1.179832 -1.514545
176.58203125 3.059513 1.184023 -1.87549
177.484375 3.086827 1.116827 -1.97
178.33984375 2.624789 0.980054 -1.644735
179.171875 3.10893 1.116237 -1.992693
179.98046875 1.715538 1.199679 -0.515859
180.76171875 1.900488 1.655572 -0.244916
181.5625 1.673281 1.054 -0.619281
182.11328125 2.378068 1.844272 -0.533796
183.03515625 2.941347 1.306347 -1.635
183.88671875 3.121147 1.117855 -2.003292
184.74609375 2.998078 1.00819 -1.989888
185.5546875 3.242585 1.018414 -2.224171
186.3671875 2.1712550000000004 1.064453 -1.106802
187.10546875 1.629316 0.939949 -0.689367
187.81640625 1.721232 1.000851 -0.720381
188.33984375 1.74537 1.348198 -0.397172
189.22265625 3.0062499999999996 1.381875 -1.624375
190.09375 3.067612 1.147736 -1.919876
190.9375 3.146948 1.167357 -1.979591
191.7578125 3.035435 1.080435 -1.955
192.53515625 3.140116 0.986733 -2.153383
193.34765625 3.031932 0.947345 -2.084587
194.16796875 3.0469090000000003 1.022963 -2.023946
195.03515625 3.1480129999999997 1.103013 -2.045
195.91015625 3.1571879999999997 1.180383 -1.976805
196.76171875 3.107261 1.182813 -1.924448
197.56640625 3.150963 1.20844 -1.942523
198.37109375 3.068898 1.027044 -2.041854
199.19921875 3.0475820000000002 1.033306 -2.014276
200.03125 3.210106 1.095106 -2.115
200.88671875 3.042644 1.04864 -1.994004
201.74609375 2.982675 1.077763 -1.904912
202.58203125 3.026007 1.093788 -1.932219
203.421875 2.494638 1.061689 -1.432949
204.23828125 3.16988 1.043455 -2.126425
205.0234375 1.574501 1.029729 -0.544772
205.83984375 2.1975350000000002 1.137886 -1.059649
206.6484375 1.523326 1.018326 -0.505
207.25390625 2.327504 1.709739 -0.617765
208.18359375 1.418342 1.46467 0.046328
209.00390625 1.660137 1.620579 -0.039558
209.8046875 1.749564 1.550106 -0.199458
210.3359375 2.219514 1.555 -0.664514
211.16015625 2.532562 1.068028 -1.464534
211.9921875 2.3133150000000002 0.798745 -1.51457
212.8984375 2.316858 0.606858 -1.71
213.75390625 2.78743 0.775 -2.01243
214.58984375 3.023929 0.973439 -2.05049
215.421875 3.18357 0.964781 -2.218789
216.24609375 3.122333 0.95091 -2.171423
217.05078125 2.363498 1.010139 -1.353359
217.87109375 3.0864260000000003 1.026426 -2.06
218.71875 3.073229 1.088684 -1.984545
219.5859375 3.0829630000000003 1.04381 -2.039153
220.44921875 3.154063 0.97417 -2.179893
221.28515625 3.03383 0.93646 -2.09737
222.0859375 3.058123 0.978123 -2.08
222.8984375 3.0981989999999997 0.997286 -2.100913
223.703125 3.158434 0.966155 -2.192279
224.5859375 2.900334 0.820107 -2.080227
225.48046875 3.0450559999999998 0.930229 -2.114827
226.32421875 3.0735339999999995 1.056522 -2.017012
227.15625 3.179423 1.165924 -2.013499
227.9765625 3.2183200000000003 1.033612 -2.184708
228.76953125 2.916811 0.979975 -1.936836
229.60546875 3.1198170000000003 1.029945 -2.089872
230.484375 3.144653 1.074653 -2.07
231.37109375 3.165179 0.991394 -2.173785
232.2109375 3.1413279999999997 0.999395 -2.141933
233.0625 2.985418 0.892692 -2.092726
233.88671875 3.18501 1.002474 -2.182536
234.7109375 3.223158 1.114328 -2.10883
235.52734375 3.11938 1.129451 -1.989929
236.38671875 2.158409 1.733634 -0.424775
236.9609375 2.7305800000000002 1.814877 -0.915703
237.859375 2.412566 1.314643 -1.097923
238.578125 2.849519 2.009519 -0.84
239.43359375 2.387999 2.258124 -0.129875
240.234375 3.0863199999999997 1.486655 -1.599665
241.03515625 3.166422 1.486655 -1.679767
241.89453125 3.158494 1.244995 -1.913499
242.79296875 3.1334210000000002 1.218421 -1.915
243.6640625 3.17918 1.18418 -1.995
244.51171875 3.25873 1.215429 -2.043301
245.34765625 3.0981 1.127639 -1.970461
246.15234375 3.0427340000000003 1.072291 -1.970443
246.96875 3.236723 1.265456 -1.971267
247.796875 3.284017 1.26425 -2.019767
248.65625 3.330148 1.271071 -2.059077
249.5234375 3.2949669999999998 0.931806 -2.363161
250.39453125 3.341689 0.737568 -2.604121
251.2265625 3.2058470000000003 0.906235 -2.299612
252.0390625 3.159415 1.049012 -2.110403
252.83203125 3.099758 1.114104 -1.985654
253.671875 3.07591 1.232294 -1.843616
254.53125 2.923839 1.043565 -1.880274
255.421875 3.091193 1.266251 -1.824942
256.28125 3.083847 1.269308 -1.814539
257.1171875 3.086325 1.306536 -1.779789
257.91015625 2.113169 1.271059 -0.84211
258.7265625 2.148818 1.80152 -0.347298
259.26171875 2.971684 2.340783 -0.630901
260.12890625 2.981052 1.693786 -1.287266
260.80859375 2.908769 2.289382 -0.619387
261.70703125 1.913904 1.766462 -0.147442
262.50390625 1.676349 1.25963 -0.416719
263.296875 1.667248 1.193804 -0.473444
264.0859375 1.694402 1.276101 -0.418301
264.89453125 2.159522 2.154966 -0.004556
265.6328125 1.685983 1.442202 -0.243781
266.140625 1.739198 1.115117 -0.624081
267.04296875 2.82031 1.730624 -1.089686
267.92578125 2.995174 1.755218 -1.239956
268.78125 2.986711 1.545714 -1.440997
269.58984375 3.0433019999999997 1.473712 -1.56959
270.375 3.097266 1.43 -1.667266
271.1796875 3.005146 1.280187 -1.724959
272.02734375 2.998946 1.304163 -1.694783
272.9453125 3.066674 1.257139 -1.809535
273.81640625 2.89893 1.164465 -1.734465
274.64453125 2.925148 1.315304 -1.609844
275.48046875 2.949413 1.424897 -1.524516
276.3046875 2.925605 1.443002 -1.482603
277.12109375 2.94071 1.455798 -1.484912
277.94140625 3.020641 1.47149 -1.549151
278.8125 2.9219340000000003 1.387455 -1.534479
279.68359375 2.923196 1.40821 -1.514986
280.5546875 2.9192549999999997 1.459298 -1.459957
281.40234375 2.9688790000000003 1.518879 -1.45
282.203125 3.012504 1.65222 -1.360284
282.99609375 2.89568 1.547356 -1.348324
283.8203125 2.9997030000000002 1.397484 -1.602219
284.73046875 3.039593 1.509593 -1.53
285.62890625 2.894775 1.415 -1.479775
286.46484375 2.901239 1.481239 -1.42
287.28515625 2.943459 1.493459 -1.45
288.09375 2.998459 1.508583 -1.489876
288.90234375 2.915577 1.430655 -1.484922
289.74609375 2.9255 1.430568 -1.494932
290.625 2.852679 1.385 -1.467679
291.49609375 2.896758 1.57697 -1.319788
292.34765625 2.9548129999999997 1.601219 -1.353594
293.203125 2.209512 1.650238 -0.559274
293.80078125 2.931404 2.349548 -0.581856
294.6171875 2.964579 1.807172 -1.157407
295.30078125 2.998344 2.36673 -0.631614
296.1640625 3.063537 1.683537 -1.38
296.83984375 2.793066 2.161947 -0.631119
297.75 2.3726789999999998 2.26 -0.112679
298.60546875 1.826472 1.564367 -0.262105
299.20703125 1.975985 1.231899 -0.744086
300.05859375 3.2014430000000003 1.601443 -1.6
300.8359375 3.154374 1.359374 -1.795
301.68359375 2.929104 1.196147 -1.732957
302.5625 3.120136 1.155917 -1.964219
303.4375 3.198166 1.212746 -1.98542
304.2578125 3.059419 1.307428 -1.751991
305.09765625 2.942942 1.28527 -1.657672
305.8984375 3.104255 1.280908 -1.823347
306.69921875 3.079681 1.204681 -1.875
307.51171875 3.044325 1.204325 -1.84
308.34375 3.122459 1.257878 -1.864581
309.19140625 3.0517070000000004 1.214695 -1.837012
310.0625 2.994227 1.184375 -1.809852
310.90234375 3.1449049999999996 1.257102 -1.887803
311.74609375 1.756356 1.463996 -0.29236
312.5234375 2.174725 1.739579 -0.435146
313.015625 2.753274 1.833274 -0.92
313.87109375 3.021159 1.401335 -1.619824
314.6015625 2.8424709999999997 2.027471 -0.815
315.50390625 1.8593330000000001 1.749333 -0.11
316.34375 2.237898 1.828188 -0.40971
317.17578125 2.375376 2.379683 0.004307
317.96484375 1.9116659999999999 1.761941 -0.149725
318.78515625 3.10282 1.654625 -1.448195
319.6171875 3.206165 1.539158 -1.667007
320.47265625 3.206045 1.45917 -1.746875
321.34375 3.161629 1.366762 -1.794867
322.19921875 3.153397 1.2898 -1.863597
323.0234375 3.1723239999999997 1.287324 -1.885
323.84765625 3.038831 1.148775 -1.890056
324.65234375 3.145896 1.176709 -1.969187
325.4765625 3.2951500000000005 1.129704 -2.165446
326.3125 3.284012 1.109687 -2.174325
327.19140625 3.111077 1.114065 -1.997012
328.0625 3.123734 1.049311 -2.074423
328.9140625 3.239327 0.979327 -2.26
329.7109375 3.205406 0.933167 -2.272239
330.5 3.22853 0.905 -2.32353
331.30859375 3.1748390000000004 0.946547 -2.228292
332.16015625 3.173908 0.968908 -2.205
333.0859375 3.0050100000000004 0.70001 -2.305
333.9453125 3.198173 0.989423 -2.20875
334.77734375 3.1921790000000003 0.878156 -2.314023
335.59765625 3.227475 0.897861 -2.329614
336.421875 3.091237 0.858085 -2.233152
337.23828125 3.053326 0.808907 -2.244419
338.078125 3.234341 0.929393 -2.304948
338.9453125 2.9628349999999997 0.77696 -2.185875
339.8125 2.9783869999999997 0.876552 -2.101835
340.66015625 3.085187 0.930187 -2.155
341.49609375 3.174945 1.081587 -2.093358
342.2890625 3.114758 1.164758 -1.95
343.10546875 3.0213710000000003 1.181371 -1.84
343.92578125 3.1066089999999997 1.28277 -1.823839
344.83203125 3.031878 1.107142 -1.924736
345.73828125 3.03693 1.14193 -1.895
346.58984375 3.032452 1.074104 -1.958348
347.40234375 3.051093 1.008412 -2.042681
348.2109375 2.9395160000000002 0.894832 -2.044684
349.0 1.486526 0.92 -0.566526
349.58984375 2.303198 1.433198 -0.87
350.52734375 2.223613 1.124407 -1.099206
351.37109375 2.367897 1.67 -0.697897
352.23046875 3.063129 1.286084 -1.777045
353.07421875 3.0855189999999997 1.105945 -1.979574
353.8984375 3.01777 1.027776 -1.989994
354.6953125 3.147068 0.917068 -2.23
355.515625 3.038994 0.858994 -2.18
356.359375 2.807347 1.067401 -1.739946
357.24609375 3.016988 1.07879 -1.938198
358.1171875 2.9117070000000003 0.981736 -1.929971
358.96484375 2.817723 1.243883 -1.57384
359.76953125 2.889798 1.474827 -1.414971
360.55859375 2.978721 1.619092 -1.359629
361.36328125 2.9498879999999996 1.590747 -1.359141
362.25 2.9548550000000002 1.57 -1.384855
363.1640625 2.9166179999999997 1.572816 -1.343802
364.0234375 2.925217 1.561799 -1.363418
364.87109375 2.962355 1.581109 -1.381246
365.6875 3.059131 1.615127 -1.444004
366.48046875 3.129513 1.574513 -1.555
367.31640625 3.152725 1.563393 -1.589332
368.18359375 3.236723 1.64246 -1.594263
369.06640625 2.9921800000000003 1.58958 -1.4026
369.921875 3.0410510000000004 1.586923 -1.454128
370.79296875 2.950038 1.431615 -1.518423
371.609375 3.089467 1.249951 -1.839516
372.4140625 3.1016589999999997 1.178713 -1.922946
373.2109375 3.052205 1.249736 -1.802469
374.0546875 2.992183 1.362966 -1.629217
374.8046875 2.766888 2.066888 -0.7
375.71484375 3.129354 1.616963 -1.512391
376.4609375 2.948385 1.93 -1.018385
376.92578125 1.664634 0.63232 -1.032314
377.75390625 3.010243 1.553239 -1.457004
378.54296875 3.037485 1.512485 -1.525
379.3984375 3.050611 1.450611 -1.6
380.265625 3.0879019999999997 1.546621 -1.541281
381.17578125 3.205784 1.476449 -1.729335
382.03515625 3.2309989999999997 1.375999 -1.855
382.8828125 3.0749370000000003 1.260718 -1.814219
383.6953125 3.0821389999999997 1.122902 -1.959237
384.5 3.2275929999999997 1.24 -1.987593
385.3203125 3.120787 1.195787 -1.925
386.171875 3.083322 1.238322 -1.845
387.06640625 3.228414 1.323259 -1.905155
387.58203125 1.701241 0.143668 -1.557573
388.515625 2.985107 1.360107 -1.625
389.35546875 3.229679 1.359733 -1.869946
390.1484375 3.220962 1.240962 -1.98
390.94921875 3.1901919999999997 1.170333 -2.019859
391.77734375 3.21845 1.03293 -2.18552
392.66796875 3.200178 0.925219 -2.274959
393.671875 3.182181 0.918457 -2.263724
394.52734375 3.2265569999999997 1.137285 -2.089272
395.33203125 3.11281 1.259883 -1.852927
396.14453125 3.179171 1.366444 -1.812727
396.9921875 3.2712130000000004 1.35668 -1.914533
397.84765625 3.0781780000000003 1.038235 -2.039943
398.734375 2.865573 1.116538 -1.749035
399.62890625 3.0049770000000002 1.415263 -1.589714
400.46484375 2.902369 1.423793 -1.478576
401.3125 2.889411 1.330951 -1.55846
402.125 2.858368 1.43 -1.428368
402.9296875 2.94284 1.719139 -1.223701
403.74609375 3.054102 1.779747 -1.274355
404.6171875 3.003358 1.561483 -1.441875
405.5546875 2.969639 1.486748 -1.482891
406.40625 3.099078 1.734078 -1.365
407.22265625 3.001295 1.716423 -1.284872
408.01953125 3.022215 1.599984 -1.422231
408.8125 3.034731 1.47476 -1.559971
409.671875 1.849861 1.675 -0.174861
410.23828125 2.738193 2.242684 -0.495509
411.15625 1.836362 1.626362 -0.21
411.859375 2.737393 2.292838 -0.444555
412.71484375 2.97817 1.523741 -1.454429
413.46484375 2.705132 2.101984 -0.603148
414.296875 3.028381 1.512116 -1.516265
414.98828125 2.667936 1.996245 -0.671691
415.44921875 2.377269 1.839108 -0.538161
416.33203125 1.5196070000000002 1.532194 0.012587
417.21875 1.917778 1.827778 -0.09
418.1015625 1.823774 1.8 -0.023774
418.93359375 3.048918 1.483933 -1.564985
419.73828125 3.092193 1.309161 -1.783032
420.53125 3.0781929999999997 1.128193 -1.95
421.33203125 3.1475489999999997 1.358881 -1.788668
422.1796875 3.028231 1.243887 -1.784344
423.10546875 2.902644 1.074572 -1.828072
423.98046875 3.174401 1.289676 -1.884725
424.80859375 3.0994140000000003 1.274464 -1.82495
425.63671875 3.021027 1.192554 -1.828473
426.4296875 3.043412 1.114154 -1.929258
427.234375 3.244989 1.179223 -2.065766
428.09375 3.093554 1.231621 -1.861933
428.96875 3.136856 1.172279 -1.964577
429.8125 3.196094 1.046725 -2.149369
430.671875 1.808438 1.385751 -0.422687
431.12109375 1.820853 0.606601 -1.214252
432.38671875 3.154783 1.384783 -1.77
433.19140625 3.2522349999999998 1.333312 -1.918923
434.01171875 3.180026 1.244755 -1.935271
434.87890625 2.895557 0.897097 -1.99846
435.578125 2.653245 1.694807 -0.958438
436.453125 1.4250639999999999 1.27772 -0.147344
437.30078125 1.8743850000000002 1.456379 -0.418006
438.01171875 1.8231549999999999 0.723683 -1.099472
438.76953125 1.8079960000000002 1.034987 -0.773009
439.55078125 1.774915 1.365733 -0.409182
440.421875 1.639767 1.612914 -0.026853
441.31640625 3.219586 1.440036 -1.77955
442.16015625 3.1726219999999996 1.147622 -2.025
443.0078125 3.123711 1.138711 -1.985
443.6484375 2.808473 1.847369 -0.961104
444.4765625 3.24302 1.438391 -1.804629
445.31640625 2.96047 1.06047 -1.9
446.15234375 3.150559 1.27602 -1.874539
447.0234375 3.175367 1.201514 -1.973853
447.8984375 3.102513 1.174185 -1.928328
448.76171875 3.235755 1.292058 -1.943697
449.58984375 3.138398 1.243398 -1.895
450.25390625 2.997999 2.031034 -0.966965
451.0703125 2.623141 1.479607 -1.143534
451.91015625 1.972188 1.35915 -0.613038
452.796875 3.057912 1.521154 -1.536758
453.6953125 3.114038 1.411438 -1.7026
454.390625 2.945452 2.134406 -0.811046
455.24609375 1.961494 1.761538 -0.199956
456.0390625 3.188439 1.828439 -1.36
456.875 3.19706 1.7 -1.49706
457.73046875 3.168957 1.504939 -1.664018
458.4296875 2.66861 2.025 -0.64361
458.8671875 2.841665 2.017561 -0.824104
459.75390625 1.759131 1.424376 -0.334755
460.5390625 1.674592 1.235 -0.439592
461.34765625 1.771366 1.396366 -0.375
462.125 1.6590909999999999 1.555 -0.104091
462.96484375 1.521598 1.714129 0.192531
463.56640625 2.583749 2.009708 -0.574041
464.4296875 2.871553 1.383175 -1.488378
465.32421875 2.878317 1.142488 -1.735829
466.19921875 2.999844 1.005546 -1.994298
467.04296875 3.037661 1.042661 -1.995
467.703125 2.855303 1.90598 -0.949323
468.51953125 3.143001 1.587735 -1.555266
469.33984375 2.996974 1.506414 -1.49056
470.19140625 3.11846 1.309955 -1.808505
470.9453125 2.788872 1.725344 -1.063528
471.86328125 1.961849 1.094501 -0.867348
472.69921875 3.018746 1.343746 -1.675
473.515625 2.458163 1.466642 -0.991521
474.34375 1.97945 1.451048 -0.528402
475.125 1.7146489999999999 1.015 -0.699649
475.98828125 2.469648 2.345304 -0.124344
476.81640625 1.7249999999999999 1.344215 -0.380785
477.65625 1.691433 1.462543 -0.22889
478.51171875 2.1071470000000003 2.221112 0.113965
479.35546875 3.237388 1.589716 -1.647672
480.15625 3.095566 1.325566 -1.77
480.96875 3.086051 1.287969 -1.798082
481.7734375 3.1772489999999998 1.188392 -1.988857
482.65234375 3.072928 0.857928 -2.215
483.58984375 2.997095 1.002863 -1.994232
484.4375 3.006999 1.144733 -1.862266
485.2578125 2.983548 1.103548 -1.88
486.06640625 1.774664 0.935688 -0.838976
486.86328125 2.801602 1.119629 -1.681973
487.70703125 2.966351 1.201644 -1.764707
488.61328125 2.911117 1.162201 -1.748916
489.5078125 3.024287 1.2446 -1.779687
490.34375 3.0193 1.004534 -2.014766
491.203125 2.988825 1.268395 -1.72043
492.01953125 2.995929 1.269596 -1.726333
492.83984375 2.7150220000000003 1.222644 -1.492378
493.66796875 1.7804569999999997 1.210322 -0.570135
494.25390625 2.662003 1.964126 -0.697877
495.18359375 2.223626 2.139035 -0.084591
495.9609375 1.713054 1.259894 -0.45316
496.83203125 2.834713 1.523964 -1.310749
497.63671875 3.118787 1.570076 -1.548711
498.4375 3.076497 1.446582 -1.629915
499.2421875 3.083891 1.097955 -1.985936
500.125 2.808328 0.985 -1.823328
501.0703125 2.868914 1.227668 -1.641246
501.95703125 2.9818350000000002 1.436959 -1.544876
502.80859375 3.011085 1.441294 -1.569791
503.6328125 2.966379 1.171403 -1.794976
504.4296875 2.970399 1.168896 -1.801503
505.2734375 2.9506740000000002 1.356523 -1.594151
506.14453125 2.9095769999999996 1.219577 -1.69
507.0703125 2.867329 1.138178 -1.729151
507.9375 3.0189820000000003 1.154941 -1.864041
508.80078125 2.897636 1.082636 -1.815
509.609375 2.951584 1.14444 -1.807144
510.4140625 2.9875249999999998 1.213448 -1.774077
511.1171875 2.1784980000000003 1.293498 -0.885
511.98046875 2.859944 1.204944 -1.655
512.87890625 2.893591 1.2684 -1.625191
513.78515625 1.596635 1.456338 -0.140297
514.640625 1.806869 1.339855 -0.467014
515.47265625 3.058631 1.398944 -1.659687
516.26171875 3.191661 1.391707 -1.799954
517.09375 3.117156 1.172403 -1.944753
517.96875 2.602881 1.287969 -1.314912
518.8828125 3.093658 1.386598 -1.70706
519.75 3.054213 1.34 -1.714213
520.60546875 3.169903 1.309903 -1.86
521.42578125 3.141779 1.262269 -1.87951
522.2265625 3.146954 1.244176 -1.902778
523.05078125 3.072147 1.167662 -1.904485
523.8828125 3.123062 1.084631 -2.038431
524.734375 3.1040330000000003 1.112236 -1.991797
525.63671875 3.1143 1.3143 -1.8
526.484375 3.146673 1.392457 -1.754216
527.32421875 3.1326609999999997 1.308744 -1.823917
528.1171875 3.08324 1.266031 -1.817209
528.921875 3.073924 1.199922 -1.874002
529.73828125 3.102719 1.357814 -1.744905
530.609375 3.071789 1.476789 -1.595
531.53125 3.063008 1.434425 -1.628583
532.37890625 3.0401170000000004 1.426643 -1.613474
533.19921875 3.080705 1.35758 -1.723125
534.01171875 3.114805 1.287673 -1.827132
534.83203125 3.1067910000000003 1.371791 -1.735
535.6640625 2.9687219999999996 1.383722 -1.585
536.49609375 3.016125 1.105471 -1.910654
537.3828125 3.042472 1.231539 -1.810933
538.234375 3.12789 1.39789 -1.73
539.078125 3.098798 1.350045 -1.748753
539.9140625 3.2477650000000002 1.398688 -1.849077
540.70703125 3.152036 1.187036 -1.965
541.51171875 3.138712 0.985644 -2.153068
542.359375 3.028104 1.189592 -1.838512
543.27734375 3.047814 1.208984 -1.83883
544.1484375 3.127378 1.132833 -1.994545
544.984375 3.074936 1.149936 -1.925
545.78125 2.171195 1.253462 -0.917733
546.60546875 1.8549499999999999 1.49995 -0.355
547.15234375 2.629448 2.094448 -0.535
548.01953125 3.0397629999999998 1.624763 -1.415
548.7890625 2.639873 2.034873 -0.605
549.671875 1.638337 1.234195 -0.404142
550.51171875 1.721069 1.696069 -0.025
551.28125 1.6972930000000002 1.04845 -0.648843
552.1171875 3.062602 1.470548 -1.592054
552.93359375 3.0640270000000003 1.36495 -1.699077
553.74609375 3.0622109999999996 1.312002 -1.750209
554.59765625 2.985037 1.175189 -1.809848
555.4765625 3.0478 1.2778 -1.77
556.33984375 3.006815 1.271815 -1.735
557.1875 3.077265 1.217308 -1.859957
557.98046875 2.794175 1.189436 -1.604739
558.78125 2.924975 1.381848 -1.543127
559.60546875 3.2113240000000003 1.414814 -1.79651
560.50390625 2.0509820000000003 1.387995 -0.662987
561.4375 2.194517 1.880982 -0.313535
562.27734375 1.661674 1.26733 -0.394344
562.890625 2.7446529999999996 2.046016 -0.698637
563.7421875 2.987467 1.530866 -1.456601
564.53515625 3.0669649999999997 1.435138 -1.631827
565.37109375 2.759836 1.175391 -1.584445
566.23828125 3.143121 1.137086 -2.006035
567.15625 3.014192 1.231332 -1.78286
568.00390625 3.083089 1.306326 -1.776763
568.8671875 3.149203 1.274418 -1.874785
569.69140625 3.044845 1.114859 -1.929986
570.48828125 3.03069 1.113371 -1.917319
571.3046875 3.029043 1.199078 -1.829965
572.13671875 3.05417 1.319206 -1.734964
573.0 3.1132479999999996 1.38 -1.733248
573.890625 3.1517410000000003 1.306748 -1.844993
574.75390625 2.993503 1.072648 -1.920855
575.56640625 3.155204 1.461376 -1.693828
576.35546875 3.143994 1.329612 -1.814382
577.16015625 3.0388919999999997 1.090893 -1.947999
578.0390625 3.17474 1.233902 -1.940838
578.92578125 3.0419850000000004 1.171985 -1.87
579.7734375 3.030522 1.240009 -1.790513
580.62109375 3.16296 1.22296 -1.94
581.44921875 3.098757 1.154136 -1.944621
582.25 3.1 1.215 -1.885
583.07421875 3.0883260000000003 1.099002 -1.989324
583.8984375 3.006113 1.036151 -1.969962
584.7578125 3.143617 1.079938 -2.063679
585.6328125 3.123902 1.063902 -2.06
586.5 3.057231 1.16 -1.897231
587.328125 3.029069 1.2272 -1.801869
588.15234375 3.139668 1.315894 -1.823774
588.94140625 3.21392 1.169256 -2.044664
589.765625 3.068059 1.279918 -1.788141
590.62109375 3.062624 1.250564 -1.81206
591.5078125 3.23199 1.282164 -1.949826
592.3671875 2.825598 1.302528 -1.52307
593.203125 3.10493 1.385711 -1.719219
593.99609375 3.0593890000000004 1.192811 -1.866578
594.8203125 3.153607 1.149159 -2.004448
595.65625 1.66243 1.168123 -0.494307
596.109375 1.67787 -0.017109 -1.694979
597.03515625 3.0261940000000003 1.346441 -1.679753
597.88671875 2.198289 1.9456 -0.252689
598.73828125 2.22172 1.325815 -0.895905
599.41796875 2.749156 1.89159 -0.857566
600.2578125 1.7323760000000001 1.487108 -0.245268
601.0859375 1.7397909999999999 1.84981 0.110019
601.9140625 1.7248109999999999 1.754857 0.030046
602.74609375 1.633946 1.528946 -0.105
603.6640625 3.0049330000000003 1.309933 -1.695
604.51953125 3.16493 0.999545 -2.165385
605.34765625 3.089733 1.145641 -1.944092
606.1328125 3.109707 1.282016 -1.827691
606.94921875 3.146269 1.38805 -1.758219
607.78515625 3.099357 1.334357 -1.765
608.6640625 3.116421 1.328628 -1.787793
609.56640625 3.102634 1.233354 -1.86928
610.41015625 3.2117069999999996 0.993606 -2.218101
611.2265625 3.0181430000000002 0.979643 -2.0385
612.0625 3.102257 1.432257 -1.67
612.8828125 3.149821 1.434821 -1.715
613.71484375 3.110336 1.345534 -1.764802
614.5859375 3.1517929999999996 1.377789 -1.774004
615.50390625 3.1416370000000002 1.274606 -1.867031
616.3515625 3.116479 1.166607 -1.949872
617.1953125 3.1862909999999998 1.431721 -1.75457
617.99609375 3.0616659999999998 1.444737 -1.616929
618.796875 3.181033 1.441033 -1.74
619.625 3.1004959999999997 1.26 -1.840496
620.51171875 3.198827 1.417662 -1.781165
621.50390625 3.1640740000000003 1.251066 -1.913008
622.3671875 3.055748 1.316158 -1.73959
623.18359375 3.085911 1.541524 -1.544387
623.98828125 3.157571 1.420228 -1.737343
624.78125 2.364121 1.39 -0.974121
625.62109375 3.158016 1.313136 -1.84488
626.515625 3.117575 1.177602 -1.939973
627.41796875 3.139056 1.100216 -2.03884
628.25390625 3.019163 1.054528 -1.964635
629.11328125 3.1358759999999997 1.110988 -2.024888
629.9296875 3.09043 1.082602 -2.007828
630.73046875 3.1398090000000005 1.044809 -2.095
631.55078125 3.1974910000000003 1.20405 -1.993441
632.39453125 3.101089 1.184808 -1.916281
633.2578125 3.0370489999999997 0.987099 -2.04995
634.13671875 2.979198 1.213453 -1.765745
634.984375 3.209212 1.456786 -1.752426
635.79296875 3.101871 1.346871 -1.755
636.578125 3.222252 1.382308 -1.839944
637.41796875 2.991028 0.982147 -2.008881
638.296875 3.256912 1.247725 -2.009187
639.21875 3.221035 1.181282 -2.039753
640.05859375 3.15971 0.925882 -2.233828
640.8984375 3.196083 1.164802 -2.031281
641.7109375 3.107565 1.297689 -1.809876
642.50390625 3.16766 1.361574 -1.806086
643.34375 3.155984 1.269824 -1.88616
644.1875 3.062589 1.143607 -1.918982
645.03125 3.149922 1.084922 -2.065
645.90625 2.95611 0.89218 -2.06393
646.765625 3.0155209999999997 1.262795 -1.752726
647.578125 3.126695 1.31934 -1.807355
648.36328125 3.170146 1.343293 -1.826853
649.16015625 3.131939 1.25394 -1.877999
649.98828125 3.01515 1.200242 -1.814908
650.875 3.088804 1.245 -1.843804
651.7734375 3.018814 1.192708 -1.826106
652.609375 3.121172 1.241807 -1.879365
653.4296875 3.115015 1.110093 -2.004922
654.23046875 3.127158 0.737158 -2.39
655.0625 2.972815 0.865886 -2.106929
655.90625 3.0921760000000003 1.1725 -1.919676
656.76171875 3.141603 1.316603 -1.825
657.6328125 3.198894 1.416903 -1.781991
658.46875 3.15351 1.339 -1.81451
659.2890625 3.169933 1.259933 -1.91
660.109375 3.17987 1.213349 -1.966521
660.9296875 3.1873709999999997 1.27421 -1.913161
661.75390625 3.196863 1.261863 -1.935
662.6015625 3.101728 1.196995 -1.904733
663.51953125 3.134798 1.229778 -1.90502
664.359375 3.119256 1.189256 -1.93
665.19140625 3.282004 1.262883 -2.019121
665.98828125 3.058371 1.10879 -1.949581
666.79296875 3.190968 1.170968 -2.02
667.609375 3.118432 1.020642 -2.09779
668.48046875 2.8419820000000002 0.740291 -2.101691
669.3828125 3.0023299999999997 1.092851 -1.909479
670.23828125 3.0615180000000004 0.986518 -2.075
671.0625 3.1436260000000003 1.144007 -1.999619
671.88671875 3.134748 1.353864 -1.780884
672.7109375 3.115234 1.403301 -1.711933
673.546875 3.143049 1.308629 -1.83442
674.39453125 3.056915 1.239601 -1.817314
675.28515625 3.0271239999999997 1.242443 -1.784681
676.1328125 3.21088 1.316401 -1.894479
676.9765625 3.1850259999999997 1.270343 -1.914683
677.80078125 3.036614 1.023891 -2.012723
678.5859375 3.152331 1.038447 -2.113884
679.39453125 3.045529 1.055601 -1.989928
680.24609375 2.986862 0.972401 -2.014461
681.15234375 3.1517109999999997 1.027753 -2.123958
682.01953125 3.121886 0.924984 -2.196902
682.84765625 3.102487 0.862487 -2.24
683.65625 3.0246180000000003 0.971146 -2.053472
684.45703125 3.108027 1.353321 -1.754706
685.27734375 3.138976 1.423063 -1.715913
686.13671875 2.829293 1.084102 -1.745191
687.0078125 3.0553239999999997 1.284579 -1.770745
687.87109375 3.047492 1.122492 -1.925
688.703125 3.2098549999999997 0.955272 -2.254583
689.54296875 3.042623 0.755403 -2.28722
690.33984375 3.0074129999999997 1.11275 -1.894663
691.15625 3.167847 1.253625 -1.914222
691.984375 3.1163749999999997 1.271375 -1.845
692.8515625 2.997275 1.218681 -1.778594
693.703125 3.008978 1.099225 -1.909753
694.5703125 2.935578 1.030638 -1.90494
695.3984375 2.938236 0.960954 -1.977282
696.19921875 3.151731 1.131731 -2.02
696.828125 1.703652 0.363971 -1.339681
697.671875 1.710658 1.203881 -0.506777
698.56640625 2.9391160000000003 1.474858 -1.464258
699.46875 1.69148 1.503746 -0.187734
700.29296875 1.473029 1.533153 0.060124
700.8046875 2.525087 2.057391 -0.467696
701.26171875 1.205858 0.796781 -0.409077
702.0703125 1.791115 1.255209 -0.535906
702.875 1.7284979999999999 1.39 -0.338498
703.71875 1.514672 1.429672 -0.085
704.2421875 2.584203 2.036522 -0.547681
705.1328125 2.181987 1.487985 -0.694002
705.82421875 2.683882 1.854557 -0.829325
706.72265625 1.709452 1.375435 -0.334017
707.39453125 2.7876589999999997 1.90498 -0.882679
708.22265625 2.966377 1.455611 -1.510766
709.03125 2.917186 1.391341 -1.525845
710.48828125 3.052862 1.489494 -1.563368
711.39453125 2.934692 1.259692 -1.675
712.25390625 2.986507 1.151831 -1.834676
713.08203125 3.1057930000000002 1.096515 -2.009278
713.88671875 2.996797 1.05475 -1.942047
714.68359375 3.003796 0.988842 -2.014954
715.55078125 3.13945 1.025534 -2.113916
716.41796875 3.081307 0.79619 -2.285117
717.2890625 2.9578939999999996 1.024884 -1.93301
718.15234375 3.083075 1.313346 -1.769729
718.9921875 3.049888 1.379888 -1.67
719.80859375 3.161161 1.561774 -1.599387
720.5234375 2.779048 2.044216 -0.734832
721.390625 1.7232370000000001 1.633018 -0.090219
722.23046875 3.144526 1.659659 -1.484867
723.1015625 3.208705 1.359956 -1.848749
723.99609375 3.2166129999999997 1.231458 -1.985155
724.69140625 2.72953 1.80953 -0.92
725.5390625 3.118828 1.63498 -1.483848
726.328125 3.131099 1.551099 -1.58
727.1171875 2.257052 1.652052 -0.605
727.97265625 3.1079090000000003 1.649154 -1.458755
728.890625 3.1092769999999996 1.419277 -1.69
729.84375 3.1402430000000003 0.920243 -2.22
730.69921875 3.011292 1.053657 -1.957635
731.39453125 2.822754 2.0899 -0.732854
732.22265625 3.148125 1.729485 -1.41864
733.078125 3.2949159999999997 1.595 -1.699916
733.9375 3.115322 1.311176 -1.804146
734.8046875 3.1691000000000003 1.2541 -1.915
735.69140625 3.1709829999999997 1.21403 -1.956953
736.375 2.668015 1.75 -0.918015
737.234375 3.152272 1.302634 -1.849638
738.05859375 3.131516 1.281809 -1.849707
738.859375 3.081379 1.191963 -1.889416
739.66796875 3.046412 1.041412 -2.005
740.5390625 3.153767 1.119822 -2.033945
741.296875 2.6815439999999997 1.504802 -1.176742
742.1796875 1.817647 0.989256 -0.828391
743.01171875 1.6397599999999999 1.174432 -0.465328
743.83203125 1.841791 1.74 -0.101791
744.60546875 1.740635 1.653648 -0.086987
745.05859375 1.42905 0.149214 -1.279836
745.90234375 3.069598 1.504598 -1.565
746.8046875 3.132277 1.412541 -1.719736
747.69140625 3.2509550000000003 1.563494 -1.687461
748.5234375 3.037173 0.833833 -2.20334
749.2109375 2.8477810000000003 1.729977 -1.117804
750.0546875 3.044918 1.430972 -1.613946
750.75390625 2.825777 2.140777 -0.685
751.58984375 2.9173790000000004 1.683893 -1.233486
752.28515625 2.640106 2.138301 -0.501805
753.19140625 3.013339 1.323769 -1.68957
753.91015625 2.786987 1.892756 -0.894231
754.7890625 2.79045 1.668906 -1.121544
755.62109375 1.995752 2.095777 0.100025
756.390625 3.076523 1.606523 -1.47
757.203125 3.0653420000000002 1.506732 -1.55861
758.0703125 2.879071 1.389126 -1.489945
758.96484375 2.958324 1.468324 -1.49
759.84765625 3.1488810000000003 1.428935 -1.719946
760.6796875 3.133511 1.404361 -1.72915
761.50390625 3.052971 1.315 -1.737971
762.1796875 2.725746 2.039437 -0.686309
763.01953125 1.761204 1.659948 -0.101256
763.8671875 1.915823 2.008401 0.092578
764.75 3.085 1.445 -1.64
765.59765625 2.5972869999999997 1.45278 -1.144507
766.4609375 3.173696 1.339163 -1.834533
767.30078125 3.152421 1.279526 -1.872895
768.09375 2.95068 1.290895 -1.659785
768.89453125 3.229937 1.284944 -1.944993
769.72265625 3.131189 0.846189 -2.285
770.55859375 3.195983 1.044728 -2.151255
771.30859375 2.790894 1.804947 -0.985947
772.2109375 3.0599800000000004 1.49998 -1.56
773.03125 3.190639 1.556964 -1.633675
773.83984375 3.260371 1.572637 -1.687734
774.63671875 3.174579 1.363527 -1.811052
775.4921875 3.1153589999999998 1.275359 -1.84
776.36328125 3.177547 1.188001 -1.989546
777.0390625 3.173601 2.029771 -1.14383
777.92578125 2.791311 1.496311 -1.295
778.78125 3.2305770000000003 1.572812 -1.657765
779.59375 3.23399 1.451126 -1.782864
780.39453125 3.179921 1.47724 -1.702681
781.2265625 2.949943 1.515154 -1.434789
782.09765625 2.327807 2.128877 -0.19893
782.94140625 2.8505130000000003 1.665513 -1.185
783.83984375 2.983414 1.653717 -1.329697
784.69140625 3.102863 1.678722 -1.424141
785.37890625 3.015509 2.48286 -0.532649
786.21484375 2.485471 0.904309 -1.581162
787.01953125 3.479938 1.724946 -1.754992
787.828125 3.401386 1.099517 -2.301869
788.7265625 3.129016 0.83413 -2.294886
789.4375 2.990038 1.723571 -1.266467
790.3203125 2.064701 1.45031 -0.614391
791.05859375 2.015434 1.344345 -0.671089
791.84765625 1.784156 1.339156 -0.445
792.5859375 1.93389 1.59 -0.34389
793.41796875 1.730099 1.37445 -0.355649
794.1171875 1.7815050000000001 1.341611 -0.439894
794.85546875 1.8450920000000002 1.364864 -0.480228
795.66015625 1.855723 1.65276 -0.202963
796.37890625 1.887287 1.651284 -0.236003
797.109375 1.775199 1.686309 -0.08889
797.625 2.88942 2.54 -0.34942
798.38671875 1.7775269999999999 1.664105 -0.113422
799.15625 1.735176 1.324873 -0.410303
799.87109375 1.820025 1.185068 -0.634957
800.59375 1.9779930000000001 1.348537 -0.629456
801.35546875 1.9684849999999998 1.585289 -0.383196
802.19140625 1.753569 1.909637 0.156068
802.89453125 1.861484 1.784532 -0.076952
803.57421875 1.9701680000000001 1.650984 -0.319184
804.37890625 3.119377 1.541784 -1.577593
805.1796875 3.0650009999999996 1.530039 -1.534962
806.03125 2.706574 0.757889 -1.948685
806.9140625 2.208474 1.693474 -0.515
807.63671875 1.911619 1.255212 -0.656407
808.40625 1.882143 1.671865 -0.210278
809.078125 1.646007 2.339689 0.693682
809.890625 1.723441 1.77625 0.052809
810.7265625 1.593571 1.843898 0.250327
811.48046875 1.9149749999999999 1.329975 -0.585
812.15234375 2.038157 1.113742 -0.924415
812.89453125 2.122851 1.069909 -1.052942
813.5859375 2.118658 1.194729 -0.923929
814.42578125 1.7031560000000001 1.284796 -0.41836
815.18359375 2.174423 1.074952 -1.099471
815.9453125 2.197447 1.310031 -0.887416
816.78125 1.935027 1.864656 -0.070371
817.53125 2.121277 1.623711 -0.497566
818.35546875 2.2023230000000003 1.809897 -0.392426
818.921875 2.7469319999999997 2.445 -0.301932
819.8515625 2.2920409999999998 2.477471 0.18543
820.671875 3.482925 1.898017 -1.584908
821.4921875 3.3543089999999998 1.684309 -1.67
822.28515625 3.323322 1.683322 -1.64
823.1015625 3.232349 1.575082 -1.657267
823.9609375 3.2145219999999997 1.349788 -1.864734
824.83203125 3.225071 1.400657 -1.824414
825.69140625 3.303849 1.41922 -1.884629
826.54296875 3.3103540000000002 1.423863 -1.886491
827.39453125 2.194722 1.30994 -0.884782
828.109375 2.2793099999999997 1.273914 -1.005396
828.61328125 2.9296430000000004 2.044643 -0.885
829.49609375 2.22314 2.106858 -0.116282
830.25390625 2.26592 1.687033 -0.578887
830.953125 2.233251 1.757443 -0.475808
831.7109375 2.333331 1.841646 -0.491685
832.40625 2.147024 1.743016 -0.404008
833.25390625 2.169302 2.254302 0.085
833.9921875 2.237008 1.658478 -0.57853
834.68359375 2.1299390000000002 1.583844 -0.546095
835.203125 2.745125 2.049454 -0.695671
836.1171875 2.1685130000000004 2.046832 -0.121681
836.76953125 2.645096 1.92021 -0.724886
837.72265625 2.058136 1.823136 -0.235
838.35546875 2.815923 2.179975 -0.635948
839.22265625 1.919004 1.341673 -0.577331
840.02734375 1.88335 1.39835 -0.485
840.88671875 2.056752 1.362231 -0.694521
841.61328125 2.096107 0.953629 -1.142478
842.5078125 1.839604 1.649604 -0.19
843.265625 1.881487 1.497949 -0.383538
844.01171875 2.039509 1.653336 -0.386173
844.5625 2.9585399999999997 2.688462 -0.270078
845.41015625 1.856659 2.341659 0.485
845.82421875 3.585739 3.39864 -0.187099
848.5390625 1.918551 -0.064456 -1.983007
849.421875 3.099945 0.304945 -2.795
850.26953125 2.8774189999999997 0.470303 -2.407116
851.11328125 2.822622 1.958599 -0.864023
851.8515625 2.063319 1.143319 -0.92
852.35546875 3.4597670000000003 2.584935 -0.874832
853.2421875 1.932763 1.718257 -0.214506
853.96484375 2.040126 1.585474 -0.454652
854.8125 1.9449770000000002 1.757187 -0.18779
855.55859375 2.104718 1.839836 -0.264882
856.4453125 2.5230050000000004 2.593958 0.070953
857.26171875 2.561172 2.536406 -0.024766
858.0625 2.961952 1.63005 -1.331902
858.890625 2.450628 2.284484 -0.166144
859.71484375 2.925798 1.486279 -1.439519
860.5703125 3.1794700000000002 1.349497 -1.829973
861.49609375 3.027546 1.272746 -1.7548
862.33984375 2.926398 1.229344 -1.697054
863.1796875 1.8008350000000002 1.25225 -0.548585
863.7734375 2.992105 2.138264 -0.853841
864.58984375 2.140815 1.485954 -0.654861
865.29296875 2.8860170000000003 2.213496 -0.672521
866.1796875 2.959937 1.549937 -1.41
867.02734375 2.8398090000000002 2.009809 -0.83
867.91796875 1.62565 1.547041 -0.078609
868.59765625 2.707979 2.07 -0.637979
869.44140625 3.183087 1.528743 -1.654344
870.26171875 3.2034890000000003 1.149145 -2.054344
871.1015625 3.0799410000000003 1.024941 -2.055
871.92578125 2.975022 1.095022 -1.88
872.80859375 2.777326 0.672326 -2.105
873.69140625 3.289801 1.174801 -2.115
874.54296875 3.3815860000000004 1.115299 -2.266287
875.38671875 3.349496 1.174496 -2.175
876.19140625 3.5268230000000003 0.847214 -2.679609
876.9921875 3.531117 0.166117 -3.365
877.84375 2.914898 -0.160867 -3.075765
878.82421875 2.294689 1.55451 -0.740179
879.6171875 2.002083 1.71735 -0.284733
880.37890625 2.0539110000000003 2.164927 0.111016
881.25390625 1.8996970000000002 2.424853 0.525156
882.015625 1.696323 1.943239 0.246916
882.83984375 2.313258 2.379784 0.066526
883.6484375 2.0097359999999997 1.4 -0.609736
884.40234375 1.956799 1.608069 -0.34873
885.2109375 2.053025 1.749801 -0.303224
886.046875 2.023677 1.679912 -0.343765
886.9296875 2.0213859999999997 1.88946 -0.131926
887.6953125 2.008042 1.408393 -0.599649
888.19921875 2.905249 2.235 -0.670249
888.97265625 1.9976189999999998 1.462619 -0.535
889.78515625 1.925848 1.415 -0.510848
890.34765625 2.27 1.785 -0.485
891.2578125 1.9195209999999998 1.930146 0.010625
892.1328125 1.859367 1.854367 -0.0050
892.9765625 3.0517890000000003 1.162357 -1.889432
893.77734375 3.221092 1.138264 -2.082828
894.55859375 3.0594729999999997 0.98357 -2.075903
895.421875 3.144572 0.870356 -2.274216
896.14453125 2.690892 1.489994 -1.200898
897.1015625 1.820748 1.017104 -0.803644
897.9921875 1.833873 1.459166 -0.374707
898.7734375 1.825228 1.423991 -0.401237
899.6015625 3.161414 1.411731 -1.749683
900.4140625 3.1483490000000005 1.053349 -2.095
901.2578125 2.952152 1.037152 -1.915
901.90234375 2.6724259999999997 1.834849 -0.837577
902.8515625 1.809788 1.799258 -0.01053
903.671875 1.6913749999999999 1.518813 -0.172562
904.30078125 1.893889 1.324034 -0.569855
905.109375 1.823293 1.596217 -0.227076
905.9296875 1.464482 1.583198 0.118716
906.71875 1.432342 1.448964 0.016622
907.4375 1.754828 1.385547 -0.369281
908.09765625 1.688473 1.549192 -0.139281
908.9375 1.679694 1.458571 -0.221123
909.7265625 1.758662 1.573662 -0.185
910.44921875 1.627216 1.501682 -0.125534
911.28515625 1.855677 1.96099 0.105313
911.9765625 1.654486 1.399486 -0.255
912.5625 2.320304 1.837143 -0.483161
913.453125 1.80702 1.94202 0.135
914.1640625 1.56108 1.384813 -0.176267
915.03515625 1.582665 1.304332 -0.278333
915.8984375 1.626349 1.622818 -0.003531
916.71875 1.714037 1.181664 -0.532373
917.45703125 1.701812 1.217273 -0.484539
917.953125 2.26738 1.639661 -0.627719
918.796875 3.015353 1.273901 -1.741452
919.625 3.005 0.965 -2.04
920.4453125 2.890649 0.833134 -2.057515
921.328125 2.904485 0.744485 -2.16
922.22265625 1.5047519999999999 1.18471 -0.320042
922.77734375 2.174619 1.365 -0.809619
923.55859375 1.645234 1.112392 -0.532842
924.375 1.419527 1.395 -0.024527
925.09375 1.490573 1.115573 -0.375
925.80078125 1.567209 1.102296 -0.464913
926.64453125 1.679218 1.239583 -0.439635
927.5625 1.685211 1.760211 0.075
928.37109375 1.598112 1.211823 -0.386289
929.14453125 1.668991 1.16 -0.508991
929.84765625 1.616991 1.168044 -0.448947
930.34375 2.134579 1.52846 -0.606119
931.20703125 1.320883 1.181942 -0.138941
931.9765625 1.501251 1.056482 -0.444769
932.66015625 1.551147 1.265897 -0.28525
933.3828125 1.6813850000000001 1.121493 -0.559892
934.13671875 1.478198 0.974723 -0.503475
934.484375 0.83439 -0.426032 -1.260422
934.89453125 1.500061 0.914585 -0.585476
935.5390625 1.493238 0.859527 -0.633711
936.21484375 1.727745 0.696338 -1.031407
936.875 1.639735 0.895 -0.744735
937.73046875 1.688377 1.114659 -0.573718
938.4765625 1.73245 1.060423 -0.672027
939.07421875 1.915054 1.27951 -0.635544
939.8671875 1.8344070000000001 1.169511 -0.664896
940.6015625 1.757755 1.232755 -0.525
941.2578125 1.834152 1.187528 -0.646624
942.078125 1.639886 1.449886 -0.19
942.55859375 2.5804 1.744487 -0.835913
943.359375 1.858721 1.356217 -0.502504
943.89453125 2.488573 1.844573 -0.644
944.83984375 2.406632 1.247837 -1.158795
945.6875 1.6534149999999999 1.028981 -0.624434
946.37890625 1.425176 0.985719 -0.439457
947.1171875 1.575316 1.075755 -0.499561
947.82421875 1.612314 1.074564 -0.53775
948.64453125 3.097824 1.189782 -1.908042
949.4765625 2.976748 0.876995 -2.099753
950.3671875 1.633934 0.974043 -0.659891
951.140625 1.8034430000000001 1.040438 -0.763005
951.921875 1.733519 1.184908 -0.548611
952.6640625 1.784071 1.269823 -0.514248
953.46484375 1.733463 1.23082 -0.502643
954.16796875 1.7273340000000001 1.333795 -0.393539
955.00390625 1.5944939999999999 1.389152 -0.205342
955.7421875 1.817584 1.182647 -0.634937
956.70703125 1.569731 1.454774 -0.114957
957.58203125 1.7998580000000002 1.574858 -0.225
958.33984375 1.783747 1.124859 -0.658888
958.87890625 2.439458 1.735 -0.704458
959.71875 1.509486 1.171836 -0.33765
960.515625 1.649615 1.11495 -0.534665
961.36328125 3.140779 1.118936 -2.021843
962.23828125 3.143447 0.983447 -2.16
963.16015625 1.795661 1.320661 -0.475
963.7265625 2.596679 1.578187 -1.018492
964.1875 1.693 0.588 -1.105
965.0625 1.6296089999999999 1.180956 -0.448653
965.81640625 1.668649 1.189295 -0.479354
966.48046875 1.717714 1.244994 -0.47272
967.20703125 1.8273860000000002 1.228523 -0.598863
967.95703125 1.779898 1.375 -0.404898
968.73046875 1.7328540000000001 1.3 -0.432854
969.51171875 1.9179140000000001 1.358397 -0.559517
970.34375 1.9137520000000001 1.571001 -0.342751
971.03125 1.787976 1.486389 -0.301587
971.68359375 1.802967 1.528691 -0.274276
972.48046875 3.016929 1.340582 -1.676347
973.3359375 3.124559 1.109559 -2.015
974.21484375 1.761981 1.016323 -0.745658
975.046875 1.809122 1.144908 -0.664214
975.765625 1.77188 1.186902 -0.584978
976.61328125 1.533674 1.114165 -0.419509
977.421875 1.5341420000000001 1.219572 -0.31457
978.15625 1.7620870000000002 1.156929 -0.605158
978.859375 1.7148339999999997 1.124275 -0.590559
979.40625 2.6900079999999997 1.930831 -0.759177
980.2734375 1.531502 1.381559 -0.149943
980.9765625 1.7309510000000001 1.267506 -0.463445
981.703125 1.752011 1.243466 -0.508545
982.42578125 1.875679 1.137404 -0.738275
983.1484375 1.762747 1.044694 -0.718053
983.83984375 1.8743480000000001 1.2613 -0.613048
984.49609375 1.7446920000000001 1.274809 -0.469883
985.22265625 1.8893680000000002 1.384368 -0.505
985.91015625 1.821663 1.305458 -0.516205
986.69140625 1.8817340000000002 1.259489 -0.622245
987.64453125 1.639127 1.474743 -0.164384
988.49609375 2.393295 2.197233 -0.196062
989.3125 2.684082 2.286076 -0.398006
989.98828125 1.98109 1.315416 -0.665674
990.6328125 1.95398 1.444577 -0.509403
991.3046875 1.974265 1.427418 -0.546847
992.0234375 1.9215999999999998 1.484792 -0.436808
992.7421875 1.9519739999999999 1.546986 -0.404988
993.5546875 1.972616 1.439602 -0.533014
994.28125 1.8331359999999999 1.474141 -0.358995
994.90625 1.999193 1.684987 -0.314206
995.54296875 2.002918 1.614827 -0.388091
996.3671875 2.342513 2.32918 -0.013333
997.05078125 2.003819 1.57116 -0.432659
997.56640625 3.0102029999999997 2.424581 -0.585622
998.37890625 1.923776 1.598587 -0.325189
998.97265625 3.015798 2.486329 -0.529469
999.96875 2.4127069999999997 2.514677 0.10197
1000.80859375 1.776919 1.51332 -0.263599
1001.5625 1.981834 1.417241 -0.564593
1002.27734375 2.002002 1.40384 -0.598162
1002.89453125 1.890309 1.395 -0.495309
1003.5859375 2.0733699999999997 1.289469 -0.783901
1004.33984375 2.002772 1.458646 -0.544126
1005.3046875 1.923062 1.343083 -0.579979
1005.85546875 3.109339 2.304902 -0.804437
1006.65625 2.081068 1.340929 -0.740139
1007.31640625 1.995536 1.383428 -0.612108
1008.12109375 1.901746 1.42777 -0.473976
1008.80078125 2.010803 1.466518 -0.544285
1009.45703125 1.960677 1.539769 -0.420908
1010.10546875 1.847705 1.385838 -0.461867
1010.95703125 1.788059 1.230373 -0.557686
1011.7734375 1.960591 1.41065 -0.549941
1012.33984375 3.1339330000000003 2.541472 -0.592461
1013.2421875 1.94589 1.975917 0.030027
1013.98046875 2.014755 1.67494 -0.339815
1014.62109375 2.019413 1.81289 -0.206523
1015.28125 1.8716059999999999 1.487946 -0.38366
1015.953125 2.088333 1.628407 -0.459926
1016.5390625 2.249346 1.844888 -0.404458
1017.40625 1.920464 1.568033 -0.352431
1018.2109375 1.920453 1.394672 -0.525781
1018.95703125 1.904392 1.378837 -0.525555
1019.78515625 2.2740229999999997 1.084023 -1.19
1020.5625 2.08542 1.679552 -0.405868
1021.28515625 2.025065 1.507717 -0.517348
1021.8203125 3.063936 2.61 -0.453936
1022.31640625 2.6799999999999997 2.26 -0.42
1023.19140625 1.961731 1.564382 -0.397349
1023.87890625 1.917832 1.312209 -0.605623
1024.75 2.78 1.39 -1.39
1025.58984375 3.0203699999999998 1.555835 -1.464535
1026.39453125 2.103773 1.463217 -0.640556
1027.1171875 1.9542869999999999 1.464287 -0.49
1027.7890625 2.653588 2.349978 -0.30361
1028.21484375 3.089177 2.666077 -0.4231
1029.10546875 1.706148 1.669893 -0.036255
1029.796875 3.09755 2.429766 -0.667784
1030.51171875 1.897989 1.6031 -0.294889
1031.17578125 1.937823 1.364019 -0.573804
1031.68359375 1.907762 1.625 -0.282762
1032.3984375 2.00074 1.34341 -0.65733
1033.21484375 2.230593 1.930593 -0.3
1033.921875 1.98325 1.528343 -0.454907
1034.7890625 1.848828 1.469952 -0.378876
1035.36328125 2.920451 2.406781 -0.51367
1036.2578125 2.2387639999999998 2.293764 0.055
1036.94921875 1.892891 1.574106 -0.318785
1037.43359375 1.67476 1.10976 -0.565
1038.25 2.194689 2.38 0.185311
1038.98046875 1.756109 1.559953 -0.196156
1039.73828125 1.9383780000000002 1.286215 -0.652163
1040.62109375 1.972612 1.769147 -0.203465
1041.1328125 1.837578 1.532578 -0.305
1042.03515625 1.7911030000000001 1.851026 0.059923
1042.8671875 3.152934 1.554199 -1.598735
1043.56640625 2.65488 1.89988 -0.755
1044.375 1.999506 1.915 -0.084506
1045.1484375 1.833645 1.231609 -0.602036
1045.875 1.869914 1.25 -0.619914
1046.640625 1.863621 1.293642 -0.569979
1047.5546875 2.971933 1.316949 -1.654984
1048.41796875 3.0187720000000002 1.124091 -1.894681
1049.25 3.12459 1.085 -2.03959
1050.01953125 1.3818570000000001 1.014988 -0.366869
1050.66796875 1.779736 1.102887 -0.676849
1051.3515625 1.783059 1.207665 -0.575394
1052.046875 1.854784 1.332656 -0.522128
1052.71875 1.252791 1.062031 -0.19076
1053.61328125 1.382523 1.283918 -0.098605
1054.44921875 3.02141 1.221465 -1.799945
1055.27734375 3.1174239999999998 0.964469 -2.152955
1056.1015625 1.938784 1.509364 -0.42942
1056.9296875 3.02765 0.964617 -2.063033
1057.7578125 1.3247529999999998 1.055 -0.269753
1058.44140625 1.544088 1.069823 -0.474265
1059.203125 1.5589490000000001 1.114802 -0.444147
1059.90234375 1.583031 1.123535 -0.459496
1060.7890625 1.5239939999999998 1.514352 -0.009642
1061.484375 1.590885 1.094248 -0.496637
1062.20703125 1.5530849999999998 1.023178 -0.529907
1062.87890625 1.530068 1.063119 -0.466949
1063.21875 0.7969269999999999 -0.268516 -1.065443
1063.625 1.6400000000000001 1.085 -0.555
1064.38671875 1.618694 1.099072 -0.519622
1065.2421875 1.549963 1.06386 -0.486103
1065.796875 1.939121 1.484121 -0.455
1066.66796875 1.762082 0.989218 -0.772864
1067.484375 2.555489 0.820974 -1.734515
1068.32421875 1.517354 0.829002 -0.688352
1068.8984375 1.983292 1.043292 -0.94
1069.79296875 1.3481429999999999 1.022336 -0.325807
1070.55859375 1.477921 0.909606 -0.568315
1071.37109375 1.445205 0.928794 -0.516411
1072.2734375 1.297593 1.125 -0.172593
1073.0078125 1.559729 0.816587 -0.743142
1073.6796875 1.440234 0.846645 -0.593589
1074.4921875 3.1129160000000002 0.849162 -2.263754
1075.3203125 3.05664 0.684593 -2.372047
1076.14453125 2.8796869999999997 0.794745 -2.084942
1077.04296875 1.78793 0.728321 -1.059609
1077.9453125 2.9327189999999996 0.750364 -2.182355
1078.78515625 2.9628119999999996 0.752419 -2.210393
1079.59765625 3.048248 0.778248 -2.27
1080.3984375 3.0903829999999997 0.750628 -2.339755
1081.19140625 2.9104769999999998 0.848232 -2.062245
1082.05078125 3.14404 0.924753 -2.219287
1082.99609375 1.584306 1.228685 -0.355621
1083.59765625 2.074267 1.384852 -0.689415
1084.51171875 1.344182 1.099443 -0.244739
1085.14453125 2.091644 1.429994 -0.66165
1085.98828125 1.603137 1.548921 -0.054216
1086.6484375 1.657066 1.175265 -0.481801
1087.359375 1.564515 1.184242 -0.380273
1088.16796875 1.614726 1.132176 -0.48255
1089.078125 2.7721419999999997 0.827637 -1.944505
1089.3984375 2.905069 0.960564 -1.944505
1089.9453125 2.944051 1.037219 -1.906832
1090.2578125 2.751664 0.844832 -1.906832
1090.796875 1.602157 1.372157 -0.23
1091.51953125 1.775106 1.049973 -0.725133
1092.2578125 1.7534370000000001 1.211564 -0.541873
1092.75 2.21957 1.735 -0.48457
1093.59375 1.3440040000000002 1.480703 0.136699
1094.1484375 2.208943 1.775734 -0.433209
1095.125 3.157695 1.25 -1.907695
1096.01171875 1.618906 1.533906 -0.085
1096.7734375 1.586762 1.092195 -0.494567
1097.30859375 2.223869 1.61 -0.613869
1098.1328125 1.7946659999999999 1.174734 -0.619932
1098.9609375 3.1788809999999996 1.233993 -1.944888
1099.8203125 3.2512540000000003 1.153793 -2.097461
1100.70703125 2.810597 0.731843 -2.078754
1101.6015625 3.093636 1.07 -2.023636
1102.453125 3.337763 1.132707 -2.205056
1103.3046875 3.1592209999999996 1.127495 -2.031726
1104.109375 3.248241 1.242293 -2.005948
1104.91015625 3.169487 1.359487 -1.81
1105.73828125 2.923677 1.21641 -1.707267
1106.6328125 2.609095 2.257612 -0.351483
1107.375 1.832294 1.465 -0.367294
1108.25390625 3.002649 1.819692 -1.182957
1109.09765625 2.025875 1.74928 -0.276595
1109.90625 3.087466 1.709638 -1.377828
1110.6953125 3.0722110000000002 1.637505 -1.434706
1111.5625 3.184621 1.54 -1.644621
1112.47265625 3.159443 1.549754 -1.609689
1113.47265625 1.9051580000000001 1.531571 -0.373587
1114.32421875 1.779612 1.594666 -0.184946
1115.15625 3.102601 1.620922 -1.481679
1115.96484375 3.138881 1.5705 -1.568381
1116.79296875 3.118816 1.419711 -1.699105
1117.63671875 3.155781 1.310781 -1.845
1118.5390625 3.143946 1.334583 -1.809363
1119.4453125 3.098861 1.303861 -1.795
1120.30859375 3.14775 1.247769 -1.899981
1121.1484375 3.157444 1.249622 -1.907822
1121.95703125 3.058833 1.227437 -1.831396
1122.75 3.15904 1.375 -1.78404
1123.58203125 3.140321 1.327063 -1.813258
1124.4375 3.0359249999999998 1.240269 -1.795656
1125.34375 3.167442 1.342442 -1.825
1126.21875 3.1897260000000003 1.202253 -1.987473
1127.0546875 3.108903 1.216236 -1.892667
1127.84765625 3.148357 1.308554 -1.839803
1128.66796875 3.163805 1.306435 -1.85737
1129.50390625 3.220831 1.28092 -1.939911
1130.3671875 3.1980969999999997 1.284779 -1.913318
1131.25390625 3.146928 1.160609 -1.986319
1132.109375 3.20302 1.19802 -2.005
1132.9375 3.144928 1.231064 -1.913864
1133.765625 3.1168940000000003 1.20821 -1.908684
1134.5625 3.2186890000000004 1.273689 -1.945
1135.3828125 3.200115 1.296115 -1.904
1136.2109375 3.195063 1.318009 -1.877054
1137.1015625 3.221139 1.29639 -1.924749
1137.99609375 3.2177499999999997 1.29775 -1.92
1138.84765625 3.2664869999999997 1.337451 -1.929036
1139.640625 3.351538 1.262356 -2.089182
1140.43359375 3.265835 1.190883 -2.074952
1141.23046875 3.189015 1.16464 -2.024375
1142.06640625 3.2301270000000004 1.166612 -2.063515
1142.9921875 3.118748 1.038234 -2.080514
1143.8671875 3.257587 1.177682 -2.079905
1144.6953125 3.189292 1.233071 -1.956221
1145.52734375 2.99592 1.10592 -1.89
1146.33984375 3.3320930000000004 1.192649 -2.139444
1147.1640625 3.174391 1.134391 -2.04
1147.98828125 3.156058 1.12499 -2.031068
1148.8515625 3.2647019999999998 1.202758 -2.061944
1149.73046875 3.2294279999999995 1.224781 -2.004647
1150.59375 3.171962 1.212568 -1.959394
1151.42578125 3.228474 1.158474 -2.07
1152.21875 3.327584 1.258659 -2.068925
1153.015625 3.1269270000000002 1.177708 -1.949219
1153.828125 3.246633 1.180513 -2.06612
1154.74609375 3.242485 1.163303 -2.079182
1155.6640625 3.229489 1.184489 -2.045
1156.49609375 3.2080200000000003 1.136087 -2.071933
1157.3203125 3.2957609999999997 1.105924 -2.189837
1158.1328125 3.217561 1.102561 -2.115
1158.93359375 3.1894590000000003 1.069948 -2.119511
1159.77734375 2.985549 1.065274 -1.920275
1160.65234375 1.731093 1.153652 -0.577441
1161.546875 2.008993 1.73921 -0.269783
1162.39453125 1.809258 1.314694 -0.494564
1163.19921875 1.623945 0.982175 -0.64177
1164.015625 2.156182 1.25521 -0.900972
1164.83203125 1.861581 1.188864 -0.672717
1165.6484375 3.2941249999999997 1.141168 -2.152957
1166.4921875 3.252884 1.033027 -2.219857
1167.38671875 2.839607 0.754798 -2.084809
1168.24609375 3.142118 0.982118 -2.16
1169.09375 3.15979 1.009097 -2.150693
1169.91015625 3.211329 1.076602 -2.134727
1170.6953125 3.209069 1.09735 -2.111719
1171.53125 3.284656 1.06574 -2.218916
1172.44140625 3.2591590000000004 1.134905 -2.124254
1173.390625 3.185396 1.102585 -2.082811
1174.234375 3.2556789999999998 1.067899 -2.18778
1175.06640625 3.30525 1.151504 -2.153746
1175.8671875 3.15881 1.140359 -2.018451
1176.6796875 3.178092 1.105 -2.073092
1177.5390625 3.2390879999999997 1.129311 -2.109777
1178.38671875 3.17446 1.16821 -2.00625
1179.29296875 3.182197 1.179417 -2.00278
1180.1484375 3.230267 1.13001 -2.100257
1181.00390625 3.164624 1.161581 -2.003043
1181.828125 3.1755839999999997 1.215608 -1.959976
1182.62109375 3.2449310000000002 1.190036 -2.054895
1183.421875 3.256942 1.287403 -1.969539
1184.27734375 3.215135 1.268797 -1.946338
1185.1640625 3.254934 1.109934 -2.145
1186.03125 3.27804 1.138359 -2.139681
1186.87109375 3.140661 1.142403 -1.998258
1187.6875 3.2014 1.188358 -2.013042
1188.47265625 3.356013 1.238741 -2.117272
1189.33203125 3.089224 1.054224 -2.035
1190.17578125 3.109088 1.106857 -2.002231
1191.0703125 3.2975839999999996 1.213887 -2.083697
1191.93359375 2.578488 1.132769 -1.445719
1192.78125 3.146548 1.19729 -1.949258
1193.59765625 3.287899 1.338096 -1.949803
1194.41015625 3.285525 1.200986 -2.084539
1195.23828125 3.207994 1.20085 -2.007144
1196.08203125 3.1135729999999997 1.086159 -2.027414
1196.9375 3.208939 1.123006 -2.085933
1197.80859375 2.458169 1.213169 -1.245
1198.62890625 1.74457 1.159927 -0.584643
1199.4921875 1.8913630000000001 1.711508 -0.179855
1200.20703125 1.843432 1.323519 -0.519913
1200.92578125 1.763366 1.408561 -0.354805
1201.66015625 1.7483739999999999 1.444713 -0.303661
1202.54296875 1.8167719999999998 1.521772 -0.295
1203.4765625 3.2149590000000003 1.353612 -1.861347
1204.3203125 3.093474 1.164406 -1.929068
1204.63671875 2.738884 0.809816 -1.929068
1205.13671875 3.262906 1.143675 -2.119231
1205.953125 1.819412 1.205 -0.614412
1206.796875 1.67042 1.349261 -0.321159
1207.59765625 1.622522 1.167029 -0.455493
1208.47265625 3.173354 1.33549 -1.837864
1209.359375 3.196846 1.268018 -1.928828
1209.68359375 2.780804 0.851976 -1.928828
1210.2109375 3.2303439999999997 1.255591 -1.974753
1211.05859375 3.2292639999999997 1.119264 -2.11
1211.87890625 3.357528 1.228205 -2.129323
1212.68359375 3.241237 1.199387 -2.04185
1213.5234375 3.345698 1.208043 -2.137655
1214.36328125 1.898339 1.178339 -0.72
1215.3203125 2.670223 0.796202 -1.874021
1216.19140625 3.349653 1.322653 -2.027
1217.01171875 3.0128019999999998 1.14399 -1.868812
1217.8203125 2.7785469999999997 1.271596 -1.506951
1218.63671875 3.251922 1.228109 -2.023813
1219.4765625 3.347919 1.127919 -2.22
1220.37109375 2.6488329999999998 0.814692 -1.834141
1221.3125 2.0626189999999998 1.712662 -0.349957
1222.16015625 1.939632 1.703285 -0.236347
1222.99609375 1.9774150000000001 1.44381 -0.533605
1223.8359375 3.031332 1.374936 -1.656396
1224.640625 3.238865 1.298928 -1.939937
1225.50390625 2.087525 1.73332 -0.354205
1226.3984375 1.8129009999999999 1.509847 -0.303054
1227.28515625 3.067951 1.344341 -1.72361
1228.15625 3.2526979999999996 1.376701 -1.875997
1229.0 3.21 1.31 -1.9
1229.80078125 3.15951 1.332948 -1.826562
1230.609375 3.135159 1.296294 -1.838865
1231.44140625 3.237426 1.312426 -1.925
1232.33984375 3.210118 1.230172 -1.979946
1233.26953125 3.159779 1.249779 -1.91
1234.1328125 3.1393649999999997 1.207856 -1.931509
1234.9609375 3.2840089999999997 1.254009 -2.03
1235.77734375 3.3013909999999997 1.341391 -1.96
1236.58984375 2.058508 1.76358 -0.294928
1237.4296875 2.250007 1.386959 -0.863048
1238.328125 3.288916 1.45394 -1.834976
1239.21484375 3.1534880000000003 1.306279 -1.847209
1240.0703125 3.2685199999999996 1.307758 -1.960762
1240.9296875 3.2407890000000004 1.200789 -2.04
1241.73828125 3.209371 1.197859 -2.011512
1242.5390625 3.21 1.22 -1.99
1243.375 3.238707 1.21 -2.028707
1244.2265625 1.937998 1.228711 -0.709287
1245.0234375 1.778636 1.148822 -0.629814
1245.57421875 2.143509 1.667285 -0.476224
1246.44140625 3.0274989999999997 1.3933 -1.634199
1247.3046875 1.691408 1.324451 -0.366957
1248.0625 3.140759 1.395788 -1.744971
1248.8671875 3.163895 1.211127 -1.952768
1249.7421875 1.972395 1.262395 -0.71
1250.6171875 3.120801 1.345833 -1.774968
1251.46875 2.3427189999999998 1.224344 -1.118375
1252.35546875 1.836379 1.444654 -0.391725
1253.11328125 1.685611 1.244122 -0.441489
1253.9296875 1.9491729999999998 1.916246 -0.032927
1254.76171875 3.12081 1.42374 -1.69707
1255.5859375 3.288974 1.418974 -1.87
1256.4296875 3.200328 1.367652 -1.832676
1257.30859375 3.2400149999999996 1.248365 -1.99165
1258.1875 3.3135529999999997 1.223364 -2.090189
1259.0234375 3.222257 1.186344 -2.035913
1259.82421875 3.325038 1.102807 -2.222231
1260.62109375 3.2545349999999997 1.022665 -2.23187
1261.453125 3.249379 1.134731 -2.114648
1262.3203125 3.334743 1.145673 -2.18907
1263.22265625 3.393407 1.16371 -2.229697
1264.08984375 3.320423 1.176043 -2.14438
1264.93359375 3.266043 1.131043 -2.135
1265.7265625 3.394406 1.129553 -2.264853
1266.546875 3.175205 0.960235 -2.21497
1267.39453125 3.201124 1.162452 -2.038672
1268.2890625 1.873202 1.389606 -0.483596
1269.16796875 1.889966 1.456649 -0.433317
1270.00390625 3.302938 1.372938 -1.93
1270.8359375 3.372664 1.197664 -2.175
1271.703125 1.954344 1.388594 -0.56575
1272.3671875 1.810174 1.218811 -0.591363
1273.15234375 1.863483 1.363173 -0.50031
1273.6953125 2.8365970000000003 2.235161 -0.601436
1274.6015625 2.2898330000000002 2.228349 -0.061484
1275.48828125 1.876626 1.447231 -0.429395
1276.34765625 3.133256 1.408591 -1.724665
1277.17578125 3.298509 1.214946 -2.083563
1277.96484375 3.365897 1.115897 -2.25
1278.78125 3.268223 1.109073 -2.15915
1279.6171875 3.2785260000000003 1.070613 -2.207913
1280.49609375 2.642585 1.019795 -1.62279
1281.453125 1.874355 1.259478 -0.614877
1282.28125 1.999591 1.717566 -0.282025
1283.0859375 3.288345 1.408813 -1.879532
1283.91796875 3.340521 1.275521 -2.065
1284.73046875 3.282107 1.147107 -2.135
1285.5625 3.2124 1.0724 -2.14
1286.41796875 3.201688 1.027611 -2.174077
1287.3046875 3.370419 1.05548 -2.314939
1288.14453125 3.33973 1.134798 -2.204932
1288.99609375 3.2266749999999997 1.079878 -2.146797
1289.80859375 3.339951 1.145959 -2.193992
1290.609375 3.318721 1.122473 -2.196248
1291.421875 3.198938 1.138938 -2.06
1292.26953125 3.161334 1.124653 -2.036681
1293.1953125 3.292183 1.138121 -2.154062
1294.0703125 3.271128 1.179688 -2.09144
1294.890625 3.195247 1.138965 -2.056282
1295.69921875 3.230574 1.166467 -2.064107
1296.49609375 3.3040149999999997 1.159473 -2.144542
1297.3203125 3.3574520000000003 1.215 -2.142452
1298.21484375 3.2759210000000003 1.207327 -2.068594
1299.10546875 3.307865 1.204681 -2.103184
1299.953125 3.3188050000000002 1.348405 -1.9704
1300.80859375 3.23158 1.351604 -1.879976
1301.640625 3.3371180000000003 1.303018 -2.0341
1302.4296875 3.4445200000000002 1.336278 -2.108242
1303.23828125 3.342991 1.258645 -2.084346
1304.0703125 3.453996 1.379159 -2.074837
1304.94921875 3.252003 1.337904 -1.914099
1305.8203125 3.148338 1.343803 -1.804535
1306.67578125 2.934825 1.314305 -1.62052
1307.48828125 3.200495 1.280609 -1.919886
1308.29296875 3.307427 1.232427 -2.075
1309.08984375 3.123224 1.149242 -1.973982
1309.9453125 3.139488 1.129488 -2.01
1310.83984375 3.3101380000000002 1.251359 -2.058779
1311.7109375 3.2093 1.274616 -1.934684
1312.5546875 3.122999 1.25806 -1.864939
1313.3984375 3.242347 1.372371 -1.869976
1314.18359375 3.333483 1.393122 -1.940361
1315.0078125 3.2090490000000003 1.364647 -1.844402
1315.86328125 3.09612 1.343864 -1.752256
1316.73828125 3.24288 1.389235 -1.853645
1317.6171875 3.209895 1.426383 -1.783512
1318.4765625 3.1667009999999998 1.391701 -1.775
1319.30859375 3.363754 1.47376 -1.889994
1320.1171875 2.691857 1.435753 -1.256104
1320.92578125 3.185027 1.465244 -1.719783
1321.765625 3.159339 1.38014 -1.779199
1322.62890625 3.260161 1.301297 -1.958864
1323.54296875 3.1991110000000003 1.266053 -1.933058
1324.390625 3.1211580000000003 1.214669 -1.906489
1325.234375 3.168908 1.224102 -1.944806
1326.0234375 3.237682 1.297718 -1.939964
1326.84765625 3.286081 1.386081 -1.9
1327.72265625 3.308338 1.33182 -1.976518
1328.671875 2.961068 0.917723 -2.043345
1329.58203125 3.2699920000000002 1.273122 -1.99687
1330.43359375 3.322106 1.292106 -2.03
1331.25390625 3.368517 1.239767 -2.12875
1332.0703125 3.284201 1.200183 -2.084018
1332.9140625 3.193643 1.188643 -2.005
1333.7578125 3.31907 1.229432 -2.089638
1334.62109375 3.446321 1.308278 -2.138043
1335.55859375 3.297625 1.371707 -1.925918
1336.41796875 3.279521 1.39 -1.889521
1337.25 3.402136 1.25 -2.152136
1338.046875 3.360119 1.137205 -2.222914
1338.86328125 3.376342 0.943999 -2.432343
1339.71484375 2.9740919999999997 1.234182 -1.73991
1340.61328125 3.115982 1.122488 -1.993494
1341.54296875 3.55654 1.333844 -2.222696
1342.3984375 3.3168539999999997 1.083065 -2.233789
1343.21875 3.422592 1.162884 -2.259708
1344.02734375 3.274267 1.218017 -2.05625
1344.80078125 2.157231 1.140161 -1.01707
1345.58203125 2.000838 1.241065 -0.759773
1346.1171875 3.19465 2.537948 -0.656702
1346.5859375 1.667918 1.399655 -0.268263
1347.51171875 2.195323 2.236682 0.041359
1348.19921875 2.099323 1.388738 -0.710585
1348.8359375 2.05 1.565 -0.485
1349.51171875 2.0418789999999998 1.607125 -0.434754
1350.14453125 2.095754 1.651316 -0.444438
1350.8125 2.058667 1.703667 -0.355
1351.3984375 1.92384 1.56651 -0.35733
1352.03125 1.9474639999999999 1.505 -0.442464
1352.7265625 1.9092449999999999 1.497496 -0.411749
1353.44921875 1.9809889999999999 1.862515 -0.118474
1354.1171875 1.863457 1.637429 -0.226028
1354.765625 1.869529 1.548374 -0.321155
1355.40234375 1.8844049999999999 1.69589 -0.188515
1356.05078125 1.721045 1.437571 -0.283474
1356.74609375 1.79175 1.586743 -0.205007
1357.453125 1.846119 1.631124 -0.214995
1358.046875 2.254707 1.994707 -0.26
1358.9609375 2.357812 2.264658 -0.093154
1359.6953125 1.93264 1.499464 -0.433176
1360.40234375 1.9187159999999999 1.609224 -0.309492
1361.1484375 2.03804 1.451132 -0.586908
1361.85546875 2.060866 1.625292 -0.435574
1362.5 1.94271 1.56 -0.38271
1363.1328125 1.798327 1.503796 -0.294531
1363.98828125 1.769798 1.745346 -0.024452
1364.82421875 1.729307 1.159253 -0.570054
1365.6953125 3.292639 1.367308 -1.925331
1366.55859375 3.2848439999999997 1.164852 -2.119992
1367.3828125 3.242232 1.322232 -1.92
1368.17578125 2.3271300000000004 1.257173 -1.069957
1368.984375 3.169669 1.467736 -1.701933
1369.83984375 3.118201 1.593476 -1.524725
1370.72265625 3.038505 1.378505 -1.66
1371.625 2.87967 1.635 -1.24467
1372.4609375 3.256164 1.624868 -1.631296
1373.2890625 2.10358 1.704148 -0.399432
1374.08984375 2.1551489999999998 1.688659 -0.46649
1374.9140625 2.539269 2.523956 -0.015313
1375.75390625 3.273494 1.841667 -1.431827
1376.63671875 3.278635 1.632607 -1.646028
1377.50390625 3.392463 1.479912 -1.912551
1378.36328125 3.301421 1.472909 -1.828512
1379.20703125 3.314714 1.424714 -1.89
1380.0078125 3.3766380000000003 1.373164 -2.003474
1380.81640625 3.262524 1.357547 -1.904977
1381.6484375 3.383458 1.279488 -2.10397
1382.48828125 3.2865979999999997 1.297022 -1.989576
1383.40625 3.229078 1.304992 -1.924086
1384.26953125 3.449915 1.209978 -2.239937
1385.09765625 3.4689439999999996 1.168944 -2.3
1385.8984375 3.311821 1.166834 -2.144987
1386.72265625 3.421207 1.125399 -2.295808
1387.58203125 3.4312050000000003 1.006791 -2.424414
1388.50390625 2.205975 1.718195 -0.48778
1389.41796875 1.6246200000000002 1.34003 -0.28459
1390.23828125 1.899429 1.28658 -0.612849
1391.0703125 2.971445 1.053134 -1.918311
1391.8828125 2.5588170000000003 1.179629 -1.379188
1392.7109375 3.316204 1.084286 -2.231918
1393.546875 3.205113 1.140113 -2.065
1394.3828125 3.1751560000000003 1.0075 -2.167656
1395.28125 2.984937 0.599176 -2.385761
1396.16796875 3.198731 1.073992 -2.124739
1397.0 3.2437820000000004 1.235 -2.008782
1397.796875 2.3728420000000003 1.116484 -1.256358
1398.59375 1.9036710000000001 1.232038 -0.671633
1399.375 1.780535 1.27 -0.510535
1399.9375 2.6949949999999996 2.038667 -0.656328
1400.8515625 1.756104 1.425697 -0.330407
1401.55078125 2.634253 1.984253 -0.65
1402.41796875 1.656039 1.446039 -0.21
1403.03515625 2.6806 1.895834 -0.784766
1403.87109375 1.984333 1.858263 -0.12607
1404.6875 1.559273 1.338023 -0.22125
1405.5234375 1.889096 1.703132 -0.185964
1406.36328125 1.866549 1.693583 -0.172966
1407.21484375 3.174616 1.14989 -2.024726
1408.08203125 3.334812 0.994322 -2.34049
1408.921875 3.248019 0.894375 -2.353644
1409.7421875 3.08846 0.890901 -2.197559
1410.54296875 3.186436 0.902425 -2.284011
1411.36328125 3.3088659999999996 0.903866 -2.405
1412.19140625 3.1689119999999997 0.954636 -2.214276
1413.08984375 3.1620049999999997 0.94825 -2.213755
1413.9453125 3.242962 0.971479 -2.271483
1414.796875 3.2640510000000003 1.016191 -2.24786
1415.60546875 3.1740079999999997 1.010301 -2.163707
1416.3984375 3.2006900000000003 0.979016 -2.221674
1417.19921875 3.3484130000000003 0.943445 -2.404968
1418.04296875 3.1817870000000004 0.984033 -2.197754
1418.9375 3.188779 1.007561 -2.181218
1419.81640625 3.4005840000000003 1.128934 -2.27165
1420.65234375 1.901562 1.185651 -0.715911
1421.484375 2.125802 1.236272 -0.88953
1422.30078125 3.3825079999999996 1.247508 -2.135
1423.11328125 3.278963 1.089547 -2.189416
1423.921875 3.2158480000000003 1.119458 -2.09639
1424.7890625 3.274686 1.089957 -2.184729
1425.65234375 3.3288770000000003 1.21431 -2.114567
1426.50390625 3.217715 1.130448 -2.087267
1427.34765625 3.330983 1.149402 -2.181581
1428.14453125 3.350409 1.147106 -2.203303
1428.93359375 3.2638369999999997 1.215953 -2.047884
1429.76953125 3.5099030000000004 1.309903 -2.2
1430.66796875 3.4533759999999996 1.259831 -2.193545
1431.57421875 3.4250040000000004 1.10417 -2.320834
1432.41015625 3.4577660000000003 1.167766 -2.29
1433.23046875 3.4396389999999997 1.224639 -2.215
1434.0390625 3.444471 1.223416 -2.221055
1434.85546875 3.424517 1.254581 -2.169936
1435.703125 3.4378919999999997 1.276826 -2.161066
1436.57421875 3.3591100000000003 1.232241 -2.126869
1437.4609375 3.461527 1.262228 -2.199299
1438.3046875 3.396548 1.286548 -2.11
1439.16796875 3.391013 1.316772 -2.074241
1439.96875 3.379688 1.291237 -2.088451
1440.765625 3.396756 1.272656 -2.1241
1441.59375 3.439196 1.296821 -2.142375
1442.46484375 3.332014 1.222509 -2.109505
1443.37109375 3.341589 1.2118 -2.129789
1444.25 3.444107 1.295 -2.149107
1444.984375 2.906638 1.9682 -0.938438
1445.80859375 3.291548 1.516294 -1.775254
1446.53515625 2.961144 2.22 -0.741144
1447.4140625 3.261695 1.654174 -1.607521
1448.3203125 3.315973 1.455973 -1.86
1449.3203125 3.382181 1.367277 -2.014904
1450.1640625 3.397501 1.359804 -2.037697
1451.01171875 3.425477 1.43329 -1.992187
1451.6328125 2.8953699999999998 2.098103 -0.797267
1452.453125 3.388534 1.60575 -1.782784
1453.30859375 3.414592 1.392492 -2.0221
1454.1640625 3.3202469999999997 1.270247 -2.05
1455.03125 3.259607 1.184607 -2.075
1455.91796875 3.424042 1.340822 -2.08322
1456.6171875 2.799401 1.909401 -0.89
1457.46484375 3.21725 1.457355 -1.759895
1458.24609375 3.245393 1.351169 -1.894224
1459.0625 3.296508 1.324858 -1.97165
1459.890625 3.2559050000000003 1.310919 -1.944986
1460.63671875 3.0172660000000002 2.099415 -0.917851
1461.5859375 3.279658 1.569416 -1.710242
1462.41796875 3.378387 1.528929 -1.849458
1463.23828125 3.40993 1.571395 -1.838535
1464.0546875 3.2990120000000003 1.509012 -1.79
1464.87890625 3.3224669999999996 1.482136 -1.840331
1465.52734375 2.856898 2.149681 -0.707217
1466.4140625 3.277441 1.788756 -1.488685
1467.2890625 3.255259 1.530259 -1.725
1468.15234375 3.408322 1.534021 -1.874301
1468.99609375 3.348919 1.495601 -1.853318
1469.61328125 2.978696 2.214714 -0.763982
1470.4375 3.227727 1.639253 -1.588474
1471.2734375 3.380725 1.552451 -1.828274
1472.08203125 3.296798 1.487842 -1.808956
1472.99609375 3.295669 1.378794 -1.916875
1473.890625 3.333529 1.418891 -1.914638
1474.58203125 2.8872799999999996 2.162336 -0.724944
1475.4296875 3.222477 1.729343 -1.493134
1476.22265625 3.328262 1.683101 -1.645161
1477.01953125 3.388234 1.468263 -1.919971
1477.87890625 3.269178 1.319477 -1.949701
1478.5859375 2.92809 1.954813 -0.973277
1479.50390625 3.232999 1.374801 -1.858198
1480.3515625 3.321078 1.336202 -1.984876
1481.1796875 3.295383 1.371526 -1.923857
1482.0 3.2544690000000003 1.28 -1.974469
1482.81640625 3.376235 1.364751 -2.011484
1483.4765625 2.820534 1.960534 -0.86
1484.3359375 2.223419 1.618478 -0.604941
1485.24609375 3.312395 1.467451 -1.844944
1486.109375 3.3602600000000002 1.363108 -1.997152
1486.953125 3.402069 1.304199 -2.09787
1487.7734375 3.4551439999999998 1.430945 -2.024199
1488.55859375 3.427777 1.337828 -2.089949
1489.37890625 3.382366 1.241585 -2.140781
1490.2734375 3.390782 1.295169 -2.095613
1491.1796875 3.281326 1.217063 -2.064263
1492.0390625 3.477886 1.342886 -2.135
1492.765625 2.827999 1.810749 -1.01725
1493.6015625 3.364573 1.479573 -1.885
1494.3984375 3.4194459999999998 1.38446 -2.034986
1495.23828125 3.442572 1.352572 -2.09
1496.1015625 3.3795659999999996 1.333299 -2.046267
1497.0 3.2872079999999997 1.16 -2.127208
1497.71875 2.904683 1.858852 -1.045831
1498.6015625 3.284511 1.394663 -1.889848
1499.4296875 3.332964 1.320542 -2.012422
1500.24609375 3.3473990000000002 1.417876 -1.929523
1501.05078125 3.417014 1.462014 -1.955
1501.8984375 3.412607 1.394759 -2.017848
1502.6171875 2.8890279999999997 2.069028 -0.82
1503.55078125 3.30485 1.701505 -1.603345
1504.421875 3.328514 1.554056 -1.774458
1505.25 3.394832 1.585 -1.809832
1506.03515625 3.339945 1.441224 -1.898721
1506.6796875 2.948075 2.003688 -0.944387
1507.5703125 3.245931 1.508871 -1.73706
1508.4453125 2.908445 1.037977 -1.870468
1509.3359375 3.3728100000000003 1.55281 -1.82
1510.19140625 3.434728 1.51528 -1.919448
1511.0234375 3.435453 1.435433 -2.00002
1511.73828125 2.960316 2.079736 -0.88058
1512.57421875 3.26466 1.614822 -1.649838
1513.39453125 3.389888 1.544903 -1.844985
1514.2421875 3.425591 1.575808 -1.849783
1515.1015625 3.4078370000000002 1.402892 -2.004945
1515.9765625 3.3217860000000003 1.227498 -2.094288
1516.6875 2.880707 1.853625 -1.027082
1517.53125 3.2105639999999998 1.452556 -1.758008
1518.3125 3.3328490000000004 1.398929 -1.93392
1519.12890625 3.382003 1.372192 -2.009811
1519.94921875 3.2697019999999997 1.324765 -1.944937
1520.828125 3.265582 1.330728 -1.934854
1521.5703125 2.9076940000000002 2.039819 -0.867875
1522.4375 3.165194 1.484124 -1.68107
1523.25390625 3.2481679999999997 1.445918 -1.80225
1524.0703125 3.3190410000000004 1.400362 -1.918679
1524.90625 3.3597539999999997 1.336145 -2.023609
1525.72265625 3.190091 1.220091 -1.97
1526.41015625 2.9144870000000003 2.022682 -0.891805
1527.296875 3.21177 1.563575 -1.648195
1528.14453125 3.287599 1.471162 -1.816437
1528.9921875 3.2617209999999996 1.361721 -1.9
1529.8046875 3.277661 1.378511 -1.89915
1530.59765625 3.285187 1.378312 -1.906875
1531.28515625 2.681717 1.848749 -0.832968
1532.125 3.2750000000000004 1.6 -1.675
1533.01171875 3.257623 1.486714 -1.770909
1533.90234375 3.4290089999999998 1.477671 -1.951338
1534.75390625 3.356199 1.336367 -2.019832
1535.5625 3.331494 1.285233 -2.046261
1536.203125 2.895093 1.894643 -1.00045
1537.01953125 3.24237 1.418495 -1.823875
1537.8515625 3.2919650000000003 1.431965 -1.86
1538.7578125 3.116289 1.226289 -1.89
1539.6328125 3.282824 1.318132 -1.964692
1540.28515625 2.970271 2.005753 -0.964518
1541.14453125 3.2698929999999997 1.519899 -1.749994
1541.96484375 3.2510510000000004 1.416422 -1.834629
1542.7734375 3.229289 1.322508 -1.906781
1543.609375 3.341919 1.317357 -2.024562
1544.4453125 3.3643159999999996 1.319316 -2.045
1545.34375 3.307295 1.351397 -1.955898
1546.19921875 3.278021 1.382553 -1.895468
1547.0390625 3.3936729999999997 1.478673 -1.915
1547.8515625 3.278811 1.384058 -1.894753
1548.65625 3.263415 1.339143 -1.924272
1549.45703125 3.312823 1.351832 -1.960991
1550.33203125 3.406481 1.437193 -1.969288
1551.25390625 3.097179 1.062541 -2.034638
1552.1171875 3.332413 1.427843 -1.90457
1552.94921875 3.3140340000000004 1.274059 -2.039975
1553.765625 3.248325 1.270359 -1.977966
1554.546875 3.142907 1.257546 -1.885361
1555.39453125 3.140859 1.265879 -1.87498
1556.265625 3.27665 1.281978 -1.994672
1557.16796875 3.137778 1.338562 -1.799216
1558.03125 3.1185840000000002 1.263584 -1.855
1558.87890625 3.015993 1.176017 -1.839976
1559.6953125 3.280262 1.293961 -1.986301
1560.5 3.189639 1.37 -1.819639
1561.31640625 3.041994 1.236723 -1.805271
1562.16015625 3.1959739999999996 1.333278 -1.862696
1563.0390625 3.2645049999999998 1.259505 -2.005
1563.91796875 3.1626440000000002 1.237855 -1.924789
1564.77734375 3.137435 1.207435 -1.93
1565.59765625 3.254227 1.312294 -1.941933
1566.375 3.205 1.28 -1.925
1567.1875 3.085994 1.321375 -1.764619
1568.08203125 3.1644490000000003 1.304449 -1.86
1568.9921875 3.337585 1.318866 -2.018719
1569.85546875 3.259073 1.274764 -1.984309
1570.70703125 3.114438 1.249438 -1.865
1571.515625 3.325939 1.277267 -2.048672
1572.31640625 3.1877240000000002 1.237739 -1.949985
1573.171875 3.208673 1.206303 -2.00237
1574.0 3.236836 1.13 -2.106836
1574.87890625 3.2192100000000003 1.075289 -2.143921
1575.765625 3.230063 1.222963 -2.0071
1576.62890625 3.154594 1.184594 -1.97
1577.45703125 3.3622870000000002 1.238963 -2.123324
1578.234375 3.176504 1.184718 -1.991786
1579.04296875 3.1573529999999996 1.207353 -1.95
1579.8828125 3.194722 1.239722 -1.955
1580.7734375 3.248799 1.128799 -2.12
1581.6796875 3.218674 1.204704 -2.01397
1582.51953125 3.26897 1.18926 -2.07971
1583.33203125 3.465146 1.280785 -2.184361
1584.12890625 3.277583 1.187646 -2.089937
1584.97265625 3.2961160000000005 1.196398 -2.099718
1585.80078125 3.501964 1.22197 -2.279994
1586.67578125 3.349151 1.229151 -2.12
1587.56640625 3.2487700000000004 1.259751 -1.989019
1588.40625 3.3229369999999996 1.22875 -2.094187
1589.25 3.354937 1.36 -1.994937
1590.0625 3.233725 1.328731 -1.904994
1590.87109375 3.311105 1.322881 -1.988224
1591.703125 3.37258 1.288361 -2.084219
1592.5625 3.236829 1.189474 -2.047355
1593.5078125 3.23873 1.290662 -1.948068
1594.359375 3.4210439999999998 1.314342 -2.106702
1595.1796875 3.443601 1.263601 -2.18
1595.96875 3.260153 1.2441 -2.016053
1596.78515625 3.28669 1.1552 -2.13149
1597.625 3.459751 1.155 -2.304751
1598.51953125 3.2408790000000005 1.13115 -2.109729
1599.4609375 3.259042 1.16947 -2.089572
1600.296875 3.3949190000000002 1.089919 -2.305
1601.1328125 3.482145 1.20737 -2.274775
1601.96875 3.2117269999999998 1.27493 -1.936797
1602.77734375 3.158511 1.1201 -2.038411
1603.609375 3.349611 1.167459 -2.182152
1604.46484375 3.339 1.134 -2.205
1605.375 3.249943 1.285 -1.964943
1606.234375 3.3362730000000003 1.27159 -2.064683
1607.0859375 3.4388579999999997 1.354151 -2.084707
1607.88671875 3.243526 1.275328 -1.968198
1608.68359375 3.3057160000000003 1.266408 -2.039308
1609.50390625 3.357392 1.248821 -2.108571
1610.39453125 3.1465810000000003 1.27908 -1.867501
1611.359375 3.2042010000000003 1.256264 -1.947937
1612.2109375 3.2534 1.245 -2.0084
1613.0390625 3.124061 1.339793 -1.784268
1613.859375 3.21798 1.423064 -1.794916
1614.65625 3.391151 1.399338 -1.991813
1615.4921875 3.272544 1.394617 -1.877927
1616.359375 3.210294 1.426843 -1.783451
1617.25390625 3.412406 1.514727 -1.897679
1618.09765625 3.2965 1.507242 -1.789258
1618.9609375 3.248781 1.429127 -1.819654
1619.765625 3.388457 1.34622 -2.042237
1620.55859375 3.375241 1.330289 -2.044952
1621.38671875 3.2337759999999998 1.334755 -1.899021
1622.23046875 3.240706 1.229546 -2.01116
1623.1171875 3.143744 1.293744 -1.85
1623.9921875 2.667961 1.411961 -1.256
1624.8359375 3.2180549999999997 1.498111 -1.719944
1625.65234375 3.3056460000000003 1.560689 -1.744957
1626.44140625 1.91061 1.484756 -0.425854
1626.99609375 1.761921 0.896973 -0.864948
1627.87890625 2.918383 1.677729 -1.240654
1628.78515625 1.9325489999999999 1.625425 -0.307124
1629.640625 1.689432 1.583046 -0.106386
1630.4921875 2.444448 2.399785 -0.044663
1631.3203125 2.038839 1.752484 -0.286355
1632.12109375 3.1481260000000004 1.603668 -1.544458
1632.953125 3.244166 1.569834 -1.674332
1633.7734375 3.327709 1.409944 -1.917765
1634.62109375 3.264305 1.394486 -1.869819
1635.50390625 3.141496 1.31884 -1.822656
1636.37890625 3.352335 1.347335 -2.005
1637.203125 3.172525 1.257993 -1.914532
1638.0 3.2 1.295 -1.905
1638.79296875 3.275144 1.395144 -1.88
1639.61328125 3.3999750000000004 1.437831 -1.962144
1640.4765625 3.132892 1.292892 -1.84
1641.35546875 3.2722499999999997 1.384777 -1.887473
1642.20703125 3.197444 1.362545 -1.834899
1643.046875 3.2681500000000003 1.34539 -1.92276
1643.84765625 3.223885 1.404469 -1.819416
1644.66796875 3.120155 1.345155 -1.775
1645.50390625 3.1727220000000003 1.442817 -1.729905
1646.359375 3.204157 1.336816 -1.867341
1647.234375 3.125439 1.369295 -1.756144
1648.1015625 3.1164129999999997 1.26647 -1.849943
1648.92578125 3.2471560000000004 1.295875 -1.951281
1649.75 3.328772 1.345 -1.983772
1650.55859375 3.164282 1.340271 -1.824011
1651.375 3.259824 1.375 -1.884824
1652.21484375 3.343427 1.382463 -1.960964
1653.10546875 3.23373 1.389728 -1.844002
1653.99609375 3.199928 1.300484 -1.899444
1654.8515625 3.321083 1.236607 -2.084476
1655.65234375 3.310955 1.188201 -2.122754
1656.44921875 3.1886099999999997 1.14863 -2.03998
1657.265625 3.187323 1.074059 -2.113264
1658.12109375 3.377988 1.170924 -2.207064
1659.0546875 3.1360360000000003 0.954876 -2.18116
1659.9375 3.175928 1.102335 -2.073593
1660.7578125 2.448708 1.35291 -1.095798
1661.5859375 2.3746 2.0896 -0.285
1662.40625 3.152615 1.437821 -1.714794
1663.234375 3.272485 1.302578 -1.969907
1664.0703125 3.228406 1.323457 -1.904949
1664.9453125 3.117372 1.280019 -1.837353
1665.828125 3.2746320000000004 1.197071 -2.077561
1666.68359375 3.194984 1.32 -1.874984
1667.51953125 3.201035 1.35499 -1.846045
1668.30859375 3.3325560000000003 1.353782 -1.978774
1669.12109375 3.231163 1.33867 -1.892493
1669.9609375 3.182454 1.252992 -1.929462
1670.90234375 1.9173710000000002 1.523641 -0.39373
1671.5234375 2.805687 2.083319 -0.722368
1672.3984375 2.9683770000000003 1.57854 -1.389837
1673.05859375 2.8124659999999997 2.149888 -0.662578
1673.89453125 3.021171 1.521171 -1.5
1674.6875 2.765021 1.357231 -1.40779
1675.51171875 3.014141 1.175667 -1.838474
1676.390625 3.3761330000000003 1.191113 -2.18502
1677.29296875 3.193892 1.230103 -1.963789
1678.12890625 3.203989 1.316389 -1.8876
1678.98828125 3.293737 1.416562 -1.877175
1679.81640625 3.221515 1.326521 -1.894994
1680.61328125 3.235977 1.340594 -1.895383
1681.4296875 3.2262250000000003 1.321225 -1.905
1682.2734375 3.449394 1.352422 -2.096972
1683.15234375 3.104039 1.189039 -1.915
1684.03125 3.2769890000000004 1.334219 -1.94277
1684.890625 3.308579 1.275329 -2.03325
1685.6953125 3.277968 1.312978 -1.96499
1686.484375 3.3175689999999998 1.412569 -1.905
1687.30078125 3.1551869999999997 1.270187 -1.885
1688.18359375 3.273403 1.234387 -2.039016
1689.09765625 3.368736 1.283227 -2.085509
1689.953125 3.312208 1.397349 -1.914859
1690.80078125 3.329859 1.461726 -1.868133
1691.62109375 3.418599 1.349396 -2.069203
1692.42578125 3.288976 1.363976 -1.925
1693.26171875 3.279463 1.394637 -1.884826
1694.109375 3.194201 1.309644 -1.884557
1694.9609375 3.372019 1.339229 -2.03279
1695.84375 3.280566 1.310566 -1.97
1696.7109375 3.3694319999999998 1.464537 -1.904895
1697.52734375 3.4158599999999995 1.381193 -2.034667
1698.328125 3.463315 1.319061 -2.144254
1699.12890625 3.3235 1.33422 -1.98928
1699.9609375 3.29888 1.354555 -1.944325
1700.85546875 3.514075 1.339613 -2.174462
1701.765625 3.3488119999999997 1.223812 -2.125
1702.60546875 3.3614550000000003 1.404557 -1.956898
1703.42578125 3.352008 1.265282 -2.086726
1704.234375 3.580389 1.500441 -2.079948
1705.07421875 3.297987 1.413011 -1.884976
1705.9375 3.3755439999999997 1.452627 -1.922917
1706.80078125 3.4592199999999997 1.314228 -2.144992
1707.6875 3.4362950000000003 1.463923 -1.972372
1708.5390625 3.3193970000000004 1.449397 -1.87
1709.37109375 3.4798919999999995 1.455331 -2.024561
1710.19140625 3.522171 1.507206 -2.014965
1711.00390625 3.290672 1.355672 -1.935
1711.8359375 3.429909 1.298212 -2.131697
1712.71875 3.524694 1.319822 -2.204872
1713.66796875 3.313033 1.288033 -2.025
1714.5078125 3.422371 1.307698 -2.114673
1715.33203125 3.521222 1.276034 -2.245188
1716.140625 3.4008000000000003 1.34888 -2.05192
1716.9375 3.3587239999999996 1.288724 -2.07
1717.7890625 3.530742 1.200742 -2.33
1718.72265625 3.1330500000000003 0.926359 -2.206691
1719.625 3.4098859999999998 1.38 -2.029886
1720.47265625 3.550283 1.30945 -2.240833
1721.30078125 3.442848 1.183576 -2.259272
1722.12109375 3.4285699999999997 1.314223 -2.114347
1722.96484375 3.403879 1.243879 -2.16
1723.79296875 3.5205279999999997 1.446956 -2.073572
1724.66796875 3.313274 1.413735 -1.899539
1725.57421875 3.4902699999999998 1.385735 -2.104535
1726.4296875 3.533549 1.361788 -2.171761
1727.2734375 3.288045 1.358088 -1.929957
1728.08203125 3.4362440000000003 1.331268 -2.104976
1728.87109375 3.517618 1.40294 -2.114678
1729.6953125 3.303373 1.401342 -1.902031
1730.61328125 3.4222580000000002 1.40891 -2.013348
1731.51171875 3.548887 1.482586 -2.066301
1732.3515625 3.302029 1.480529 -1.8215
1733.1875 3.247157 1.402423 -1.844734
1733.98828125 3.4819370000000003 1.352352 -2.129585
1734.8046875 3.4257809999999997 1.336083 -2.089698
1735.64453125 3.271052 1.196166 -2.074886
1736.49609375 3.312516 1.11254 -2.199976
1737.38671875 3.4378279999999997 1.261915 -2.175913
1738.23828125 3.2818310000000004 1.354038 -1.927793
1739.09765625 3.348251 1.385471 -1.96278
1739.9140625 3.609474 1.364474 -2.245
1740.6953125 3.3388929999999997 1.261293 -2.0776
1741.50390625 3.317718 1.277766 -2.039952
1742.3671875 3.440193 1.129819 -2.310374
1743.2421875 3.3081440000000004 1.126495 -2.181649
1744.10546875 3.152393 1.201145 -1.951248
1744.953125 3.354299 1.435924 -1.918375
1745.76171875 3.378706 1.686456 -1.69225
1746.546875 3.3396410000000003 1.529641 -1.81
1747.3984375 3.411715 1.556715 -1.855
1748.25 3.4290000000000003 1.725 -1.704
1749.1484375 3.332605 1.693388 -1.639217
1750.0078125 3.476973 1.810723 -1.66625
1750.84765625 3.458907 1.646763 -1.812144
1751.66796875 3.3991550000000004 1.694155 -1.705
1752.4765625 3.345721 1.541092 -1.804629
1753.29296875 3.542786 1.54509 -1.997696
1754.12890625 3.3667 1.581889 -1.784811
1754.9921875 3.484647 1.567363 -1.917284
1755.890625 3.5637790000000003 1.570005 -1.993774
1756.76171875 3.445461 1.59596 -1.849501
1757.57421875 3.388495 1.567194 -1.821301
1758.359375 3.5759119999999998 1.531036 -2.044876
1759.1796875 3.587445 1.507524 -2.079921
1760.01171875 3.433564 1.504867 -1.928697
1760.90625 3.4503500000000003 1.39535 -2.055
1761.80859375 3.7293970000000005 1.453013 -2.276384
1762.65234375 3.546703 1.292504 -2.254199
1763.4609375 3.4208109999999996 1.226745 -2.194066
1764.2734375 3.516733 1.301733 -2.215
1765.09765625 3.605638 1.366739 -2.238899
1765.94921875 3.4188030000000005 1.376098 -2.042705
1766.8125 3.315598 1.316598 -1.999
1767.68359375 3.525179 1.343924 -2.181255
1768.52734375 3.60869 1.26389 -2.3448
1769.37109375 3.360329 1.247084 -2.113245
1770.17578125 3.328127 1.258127 -2.07
1770.99609375 3.399859 1.28821 -2.111649
1771.81640625 3.616152 1.254819 -2.361333
1772.6796875 3.458145 1.213975 -2.24417
1773.62890625 3.416104 1.337673 -2.078431
1774.48046875 3.514818 1.449818 -2.065
1775.29296875 3.605633 1.5726 -2.033033
1776.09765625 3.332932 1.448269 -1.884663
1776.9140625 3.374536 1.49867 -1.875866
1777.74609375 3.609807 1.485758 -2.124049
1778.66015625 3.37239 1.328746 -2.043644
1779.5703125 3.433051 1.341833 -2.091218
1780.41015625 3.432588 1.321794 -2.110794
1781.25390625 3.614356 1.279786 -2.33457
1782.07421875 3.4757739999999995 1.215774 -2.26
1782.8984375 3.289819 1.164876 -2.124943
1783.734375 3.471317 1.255043 -2.216274
1784.57421875 3.494447 1.299741 -2.194706
1785.46484375 3.328313 1.394357 -1.933956
1786.32421875 3.407162 1.44238 -1.964782
1787.15625 3.592415 1.433436 -2.158979
1787.96484375 3.448573 1.384315 -2.064258
1788.7734375 3.319781 1.354781 -1.965
1789.57421875 3.4800340000000003 1.279373 -2.200661
1790.46484375 3.581694 1.218007 -2.363687
1791.36328125 3.457898 1.176636 -2.281262
1792.21875 3.358346 1.239706 -2.11864
1793.05078125 3.493367 1.313367 -2.18
1793.8671875 3.669224 1.484224 -2.185
1794.65234375 3.408149 1.457195 -1.950954
1795.50390625 3.322314 1.322744 -1.99957
1796.37109375 3.548394 1.226369 -2.322025
1797.25390625 3.5560739999999997 1.266907 -2.289167
1798.09765625 3.280918 1.29 -1.990918
1798.9453125 3.503013 1.371026 -2.131987
1799.765625 3.601706 1.426706 -2.175
1800.5703125 3.504087 1.479833 -2.024254
1801.38671875 3.402851 1.298597 -2.104254
1802.21484375 3.550992 1.321196 -2.229796
1803.0703125 3.4160399999999997 1.386199 -2.029841
1803.94921875 3.253437 1.258437 -1.995
