3.96875 1.413958 1.124648 -0.28931
5.015625 1.6012440000000001 1.306418 -0.294826
5.734375 1.689988 1.316618 -0.37337
6.546875 1.7530000000000001 1.39853 -0.35447
6.9921875 1.458472 1.162903 -0.295569
7.8515625 1.681101 1.311101 -0.37
8.51171875 1.8530799999999998 1.388458 -0.464622
9.79296875 1.6104820000000002 1.352313 -0.258169
10.55078125 1.824379 1.36143 -0.462949
11.46875 1.78764 1.418488 -0.369152
12.47265625 1.795372 1.343539 -0.451833
13.44140625 1.721161 1.329409 -0.391752
14.14453125 1.821305 1.35557 -0.465735
14.875 1.7924179999999998 1.4 -0.392418
15.375 1.368253 1.045 -0.323253
16.25 1.759854 1.34 -0.419854
16.94140625 1.8547449999999999 1.418982 -0.435763
17.64453125 1.844862 1.389862 -0.455
18.0859375 1.676682 1.214976 -0.461706
19.11328125 1.767214 1.371902 -0.395312
20.04296875 1.843747 1.374148 -0.469599
20.8671875 1.991447 1.471657 -0.51979
21.3515625 1.528328 1.198632 -0.329696
22.421875 1.905162 1.532584 -0.372578
23.0625 2.0910320000000002 1.648298 -0.442734
23.7421875 2.0078009999999997 1.553702 -0.454099
24.4921875 1.919217 1.494395 -0.424822
25.6875 1.8727580000000001 1.522877 -0.349881
26.4296875 1.9917340000000001 1.501395 -0.490339
27.18359375 1.931849 1.429592 -0.502257
28.06640625 1.959574 1.469574 -0.49
28.8203125 1.992404 1.499246 -0.493158
29.5625 1.732908 1.296401 -0.436507
30.04296875 1.4210090000000002 1.06 -0.361009
30.90625 1.756928 1.332441 -0.424487
31.625 1.419876 1.025 -0.394876
32.4453125 1.670766 1.354479 -0.316287
32.9140625 1.6867739999999998 1.199971 -0.486803
33.74609375 1.674938 1.145 -0.529938
34.41796875 1.866175 1.318158 -0.548017
35.3984375 1.814487 1.357381 -0.457106
36.18359375 1.871162 1.419952 -0.45121
36.67578125 1.5244 1.085269 -0.439131
37.4921875 1.973732 1.518495 -0.455237
38.16015625 2.1072889999999997 1.533694 -0.573595
38.88671875 1.902924 1.465124 -0.4378
39.5703125 2.002205 1.487895 -0.51431
40.3984375 1.917153 1.379374 -0.537779
41.1171875 1.9026990000000001 1.419613 -0.483086
41.5703125 1.3691950000000002 1.077514 -0.291681
42.59765625 1.855488 1.430488 -0.425
43.2421875 1.912595 1.435722 -0.476873
43.984375 1.87874 1.466351 -0.412389
44.68359375 1.929572 1.443427 -0.486145
45.94140625 1.8182989999999999 1.498319 -0.31998
47.01953125 1.653394 1.339983 -0.313411
47.7734375 1.8975520000000001 1.32302 -0.574532
48.4140625 1.932093 1.393396 -0.538697
49.12109375 1.8615659999999998 1.388469 -0.473097
49.75390625 1.857434 1.389008 -0.468426
50.57421875 1.72926 1.249056 -0.480204
51.2890625 1.807453 1.277499 -0.529954
52.10546875 1.7293079999999998 1.339848 -0.38946
52.9765625 1.75 1.32 -0.43
53.515625 1.299785 1.010845 -0.28894
54.55078125 1.81062 1.434694 -0.375926
55.19140625 2.056107 1.583849 -0.472258
55.96875 1.832538 1.492538 -0.34
56.37109375 1.937206 1.459649 -0.477557
57.37109375 1.837542 1.432684 -0.404858
58.08984375 1.9733539999999998 1.47826 -0.495094
59.0078125 1.859566 1.444908 -0.414658
59.6953125 1.9491290000000001 1.474866 -0.474263
60.4375 1.814583 1.363604 -0.450979
61.0546875 1.85568 1.333106 -0.522574
61.76953125 1.848147 1.389924 -0.458223
62.21484375 1.4754369999999999 1.095299 -0.380138
63.14453125 1.78113 1.384463 -0.396667
63.8671875 1.9673370000000001 1.417465 -0.549872
64.80078125 1.9304 1.501286 -0.429114
66.015625 1.845699 1.425819 -0.41988
66.95703125 1.905499 1.460781 -0.444718
67.66796875 1.9738820000000001 1.47466 -0.499222
68.3359375 1.948938 1.444338 -0.5046
69.11328125 1.880254 1.429456 -0.450798
69.9921875 1.699459 1.316951 -0.382508
70.5 1.31925 1.1 -0.21925
71.39453125 1.7668659999999998 1.404791 -0.362075
72.08203125 1.965356 1.470406 -0.49495
72.7265625 1.961313 1.496313 -0.465
73.16796875 1.619537 1.215 -0.404537
73.9453125 1.893629 1.393955 -0.499674
74.6328125 1.9482570000000001 1.443596 -0.504661
75.40625 1.8775439999999999 1.46 -0.417544
75.86328125 1.5283570000000002 1.184387 -0.34397
76.921875 1.8175 1.409819 -0.407681
77.66015625 1.924763 1.435466 -0.489297
78.29296875 1.8999009999999998 1.42 -0.479901
78.92578125 1.874513 1.430984 -0.443529
79.3515625 1.667081 1.196211 -0.47087
80.71875 1.723716 1.394519 -0.329197
81.45703125 1.7896429999999999 1.359727 -0.429916
82.30859375 1.802023 1.409179 -0.392844
83.19140625 1.812978 1.504489 -0.308489
83.6640625 1.494976 1.139976 -0.355
84.51953125 1.8042559999999999 1.380291 -0.423965
85.171875 1.892753 1.315 -0.577753
85.77734375 1.9651480000000001 1.426403 -0.538745
86.45703125 1.8784969999999999 1.418534 -0.459963
87.6328125 1.682382 1.258151 -0.424231
88.31640625 1.830539 1.2731 -0.557439
89.3359375 1.586763 1.244732 -0.342031
90.1015625 1.588352 1.218352 -0.37
90.5859375 1.2811730000000001 0.944706 -0.336467
91.64453125 1.474422 1.189852 -0.28457
92.390625 1.532913 1.195577 -0.337336
92.86328125 1.336168 1.0718 -0.264368
93.74609375 1.6719119999999998 1.385824 -0.286088
94.4765625 1.8156219999999998 1.380952 -0.43467
95.21484375 1.880011 1.452753 -0.427258
95.890625 1.9083489999999999 1.519534 -0.388815
96.32421875 1.5593169999999998 1.148448 -0.410869
97.1328125 1.549086 1.279867 -0.269219
97.85546875 1.497858 1.1899 -0.307958
99.0859375 1.7031209999999999 1.509453 -0.193668
99.8046875 1.833933 1.549792 -0.284141
100.55859375 1.8074919999999999 1.514435 -0.293057
101.08203125 1.390746 1.102266 -0.28848
102.13671875 1.5614810000000001 1.386481 -0.175
102.78125 1.7902490000000002 1.433121 -0.357128
103.453125 1.6974449999999999 1.403279 -0.294166
103.890625 1.542329 1.203175 -0.339154
105.140625 1.684312 1.399334 -0.284978
105.83203125 1.830276 1.47759 -0.352686
106.73046875 1.747928 1.474967 -0.272961
107.4765625 1.702641 1.372641 -0.33
108.171875 1.713285 1.349237 -0.364048
109.015625 1.68136 1.324597 -0.356763
109.88671875 1.740952 1.493664 -0.247288
110.32421875 1.505731 1.172126 -0.333605
111.16015625 1.555185 1.217425 -0.33776
111.84375 1.5830520000000001 1.222047 -0.361005
112.51953125 1.5654649999999999 1.139811 -0.425654
113.00390625 1.365728 1.058033 -0.307695
113.94140625 1.576717 1.214467 -0.36225
114.83984375 1.5659899999999998 1.207863 -0.358127
115.46484375 1.578039 1.168151 -0.409888
116.05859375 1.563821 1.178779 -0.385042
116.53515625 1.16582 0.9176 -0.24822
117.59375 1.42548 1.04966 -0.37582
118.484375 1.365717 0.945752 -0.419965
118.96875 1.423513 0.97207 -0.451443
119.80078125 1.397465 1.031945 -0.36552
120.453125 1.3500699999999999 0.94 -0.41007
121.08203125 1.346716 1.031792 -0.314924
121.6875 1.329836 0.9837 -0.346136
122.33984375 1.2650000000000001 0.915 -0.35
123.15625 1.3251819999999999 1.042422 -0.28276
123.6328125 1.2397770000000001 0.983407 -0.25637
124.5546875 1.274505 0.899559 -0.374946
125.31640625 1.2558340000000001 0.980857 -0.274977
125.81640625 0.9826969999999999 0.859648 -0.123049
126.71484375 1.2994860000000001 1.016752 -0.282734
127.3984375 1.271477 0.973431 -0.298046
128.203125 1.278441 0.988615 -0.289826
128.65234375 1.049737 0.82307 -0.226667
129.5390625 1.264459 0.925 -0.339459
130.29296875 1.2502490000000002 0.875249 -0.375
130.96484375 1.3521290000000001 0.959747 -0.392382
131.66015625 1.337547 0.992764 -0.344783
132.109375 1.102009 0.835 -0.267009
132.96484375 1.33398 0.92947 -0.40451
133.703125 1.4622099999999998 1.113503 -0.348707
134.1796875 1.2985959999999999 0.912426 -0.38617
134.9140625 1.497582 1.14484 -0.352742
135.6875 1.500648 1.112143 -0.388505
136.54296875 1.440324 1.175324 -0.265
137.03515625 1.212646 1.012646 -0.2
137.8515625 1.432881 1.072881 -0.36
138.46484375 1.538845 1.184372 -0.354473
139.078125 1.550926 1.292707 -0.258219
139.51953125 1.444672 1.109937 -0.334735
140.46484375 1.3874 1.227741 -0.159659
141.82421875 1.514772 1.376022 -0.13875
142.71484375 1.651691 1.331485 -0.320206
143.1796875 1.461155 1.22 -0.241155
144.0078125 1.700415 1.496174 -0.204241
144.81640625 1.7095740000000001 1.409574 -0.3
145.28125 1.458444 1.157372 -0.301072
146.109375 1.744631 1.407635 -0.336996
146.86328125 1.827916 1.367056 -0.46086
147.53515625 1.842106 1.397782 -0.444324
148.49609375 1.6803979999999998 1.350239 -0.330159
149.25 1.6338080000000001 1.235 -0.398808
149.94921875 1.757237 1.314691 -0.442546
150.70703125 1.6364750000000001 1.304793 -0.331682
151.72265625 1.707451 1.448911 -0.25854
152.41015625 1.903254 1.425795 -0.477459
153.06640625 1.908522 1.474769 -0.433753
153.54296875 1.3619620000000001 1.133772 -0.22819
154.50390625 1.755362 1.449302 -0.30606
155.19140625 1.867206 1.419409 -0.447797
155.95703125 1.788644 1.422866 -0.365778
156.546875 2.00148 1.662966 -0.338514
157.359375 1.8199740000000002 1.509219 -0.310755
158.0390625 1.739673 1.28982 -0.449853
159.30859375 1.4709150000000002 1.219626 -0.251289
160.02734375 1.6195 1.33252 -0.28698
160.671875 1.5936819999999998 1.266112 -0.32757
161.16015625 1.244933 1.059509 -0.185424
162.06640625 1.763632 1.604591 -0.159041
162.69921875 1.686468 1.522262 -0.164206
163.359375 1.3668930000000001 1.188932 -0.177961
163.80078125 1.5027089999999999 1.237175 -0.265534
164.6171875 1.790882 1.538866 -0.252016
165.265625 1.8219310000000002 1.578426 -0.243505
166.04296875 1.813342 1.464946 -0.348396
166.76953125 1.769638 1.435294 -0.334344
167.9375 1.567449 1.290658 -0.276791
168.58984375 1.729847 1.354847 -0.375
169.2734375 1.627758 1.194792 -0.432966
169.70703125 1.4966 1.063048 -0.433552
170.59765625 2.716869 1.934369 -0.7825
171.453125 1.807528 1.452574 -0.354954
171.92578125 1.3933 1.1383 -0.255
173.19921875 1.838409 1.305045 -0.533364
173.9921875 1.915145 1.430255 -0.48489
174.44140625 1.609187 1.059382 -0.549805
175.3515625 1.889399 1.465101 -0.424298
176.0078125 1.9549590000000001 1.474819 -0.48014
176.6484375 1.9092030000000002 1.508118 -0.401085
177.33984375 1.869026 1.467924 -0.401102
177.80859375 1.4788800000000002 1.204789 -0.274091
178.61328125 1.673379 1.318379 -0.355
179.2734375 1.753041 1.355334 -0.397707
179.9140625 1.722094 1.349979 -0.372115
180.34765625 1.6337009999999998 1.114653 -0.519048
181.23046875 1.727979 1.234817 -0.493162
181.859375 1.853534 1.372779 -0.480755
182.55859375 1.835338 1.284538 -0.5508
183.0234375 1.469038 1.145729 -0.323309
184.1328125 1.803275 1.475563 -0.327712
185.3984375 1.7333239999999999 1.39 -0.343324
186.234375 1.8316169999999998 1.4 -0.431617
186.68359375 1.615368 1.264832 -0.350536
187.53515625 1.7141840000000002 1.379439 -0.334745
188.22265625 1.822445 1.426398 -0.396047
188.9921875 1.72668 1.412079 -0.314601
189.47265625 1.356947 1.099775 -0.257172
190.2890625 1.740808 1.275 -0.465808
191.62109375 1.807662 1.44289 -0.364772
192.54296875 1.736667 1.347688 -0.388979
193.21875 1.852786 1.248036 -0.60475
194.453125 1.784602 1.506383 -0.278219
195.34765625 1.782853 1.388905 -0.393948
196.0 1.8525099999999999 1.43 -0.42251
196.92578125 1.738986 1.383657 -0.355329
197.7578125 1.753466 1.339812 -0.413654
198.21484375 1.623742 1.218474 -0.405268
199.15625 1.699246 1.367812 -0.331434
200.03515625 1.7367130000000002 1.361328 -0.375385
200.8125 1.778207 1.403696 -0.374511
201.60546875 1.735121 1.379988 -0.355133
202.1015625 1.3946260000000001 1.126826 -0.2678
203.078125 1.200016 0.959807 -0.240209
203.73046875 0.9507559999999999 0.734736 -0.21602
204.4296875 1.186341 0.926921 -0.25942
204.8984375 1.1946890000000001 1.08 -0.114689
205.80859375 1.443934 1.253934 -0.19
207.25 1.158946 0.995 -0.163946
208.03515625 1.4638710000000001 1.278871 -0.185
208.50390625 1.4126239999999999 1.205838 -0.206786
209.328125 1.313457 1.156104 -0.157353
210.0 1.474375 1.25 -0.224375
210.62109375 1.502549 1.265026 -0.237523
211.24609375 1.724904 1.45 -0.274904
211.953125 1.627467 1.403062 -0.224405
212.671875 1.6699799999999998 1.464214 -0.205766
213.21484375 1.0122550000000001 1.119993 0.107738
214.21484375 1.619472 1.447097 -0.172375
214.9921875 1.594272 1.26437 -0.329902
215.76953125 1.679512 1.289512 -0.39
216.24609375 1.435824 1.122566 -0.313258
216.96875 1.699065 1.319174 -0.379891
217.55859375 1.767113 1.299521 -0.467592
218.2265625 1.771623 1.321623 -0.45
218.703125 1.3782459999999999 1.069561 -0.308685
219.6015625 1.74289 1.29789 -0.445
220.29296875 1.756465 1.357758 -0.398707
221.31640625 1.6234609999999998 1.253461 -0.37
222.0625 1.749722 1.309792 -0.43993
222.54296875 1.5143199999999999 1.077734 -0.436586
223.4296875 1.5840450000000001 1.250429 -0.333616
224.03515625 1.6695360000000001 1.345965 -0.323571
224.67578125 1.6752660000000001 1.340394 -0.334872
225.546875 1.66228 1.269051 -0.393229
226.02734375 1.4775070000000001 1.129672 -0.347835
226.9921875 1.601241 1.248624 -0.352617
227.91015625 1.645055 1.345623 -0.299432
228.3515625 1.50116 1.08732 -0.41384
229.25390625 1.237223 0.947223 -0.29
229.90234375 1.398424 1.068757 -0.329667
230.51953125 1.5614270000000001 1.234885 -0.326542
231.2265625 1.538733 1.20464 -0.334093
231.69921875 1.392542 1.110943 -0.281599
232.62109375 1.4768560000000002 1.154738 -0.322118
233.23828125 1.509842 1.175498 -0.334344
234.0703125 1.475667 1.096186 -0.379481
234.89453125 1.592205 1.165294 -0.426911
235.32421875 1.461752 0.955 -0.506752
236.2578125 1.406718 1.026832 -0.379886
236.94140625 1.636927 1.189896 -0.447031
237.64453125 1.699938 1.134938 -0.565
238.13671875 1.220072 0.82 -0.400072
238.98828125 1.647523 1.259973 -0.38755
239.66796875 1.752051 1.39259 -0.359461
240.3046875 1.719251 1.364608 -0.354643
240.75 1.543815 1.03 -0.513815
241.56640625 1.6940199999999999 1.338496 -0.355524
242.27734375 1.7034669999999998 1.331875 -0.371592
243.25 1.68957 1.365 -0.32457
243.7421875 1.4746190000000001 1.225 -0.249619
244.74609375 1.620599 1.135656 -0.484943
245.3828125 1.6653790000000002 1.28 -0.385379
246.1015625 1.559947 1.296614 -0.263333
246.546875 1.4243219999999999 1.109654 -0.314668
247.6953125 1.505461 1.309095 -0.196366
248.125 0.917944 0.015 -0.902944
249.078125 1.397557 1.096126 -0.301431
249.7890625 1.504945 1.275 -0.229945
250.9453125 1.458477 1.191645 -0.266832
251.6328125 1.455848 1.163186 -0.292662
252.2734375 1.467006 1.117881 -0.349125
252.97265625 1.412351 1.090245 -0.322106
253.5859375 1.4437069999999999 1.104925 -0.338782
254.171875 1.4533909999999999 1.144461 -0.30893
254.79296875 1.467393 1.125 -0.342393
255.4609375 1.4464899999999998 1.09469 -0.3518
256.25 1.5193020000000002 1.205 -0.314302
256.9765625 1.528272 1.133272 -0.395
257.43359375 1.1569909999999999 0.83 -0.326991
258.265625 1.4841220000000002 1.150438 -0.333684
258.87109375 1.601937 1.273692 -0.328245
259.48828125 1.469785 1.165 -0.304785
259.97265625 1.149802 0.999837 -0.149965
261.06640625 1.489996 1.213926 -0.27607
261.76953125 1.4717580000000001 1.184622 -0.287136
262.44140625 1.463171 1.098171 -0.365
262.90234375 1.214775 1.034775 -0.18
263.8203125 1.4702 1.272128 -0.198072
264.45703125 1.554176 1.174238 -0.379938
265.15625 1.5393 1.2143 -0.325
265.8984375 1.505648 1.252707 -0.252941
266.5546875 1.5479880000000001 1.229343 -0.318645
267.19140625 1.6620759999999999 1.358854 -0.303222
267.67578125 1.2216829999999999 1.088245 -0.133438
268.65234375 1.550696 1.322688 -0.228008
269.296875 1.6084530000000001 1.329495 -0.278958
270.05078125 1.560616 1.240616 -0.32
270.84765625 1.565842 1.212619 -0.353223
271.29296875 1.23969 0.917844 -0.321846
272.21484375 1.626287 1.401873 -0.224414
272.86328125 1.656951 1.411597 -0.245354
273.4609375 1.826837 1.509729 -0.317108
274.125 1.7805240000000002 1.34 -0.440524
274.640625 1.1035739999999998 1.033359 -0.070215
275.46484375 1.774923 1.486472 -0.288451
276.03515625 1.872264 1.503018 -0.369246
276.8359375 1.806203 1.494843 -0.31136
277.5234375 1.898749 1.489124 -0.409625
278.13671875 1.9025729999999998 1.49762 -0.404953
278.61328125 1.456903 1.058908 -0.397995
279.453125 1.787223 1.361489 -0.425734
280.25 1.761257 1.415 -0.346257
280.72265625 1.48413 1.219146 -0.264984
281.73046875 1.839966 1.519966 -0.32
282.40625 1.90842 1.470192 -0.438228
283.0546875 2.01845 1.53747 -0.48098
283.6484375 2.0295389999999998 1.485517 -0.544022
284.13671875 1.019614 0.965 -0.054614
284.98046875 1.924237 1.544904 -0.379333
285.74609375 1.9498739999999999 1.525032 -0.424842
286.25 1.110125 1.095 -0.015125
287.09375 1.833848 1.405573 -0.428275
287.8125 1.8594110000000001 1.425 -0.434411
288.5859375 1.916199 1.564752 -0.351447
289.03515625 1.6989509999999999 1.287267 -0.411684
289.91796875 1.9009289999999999 1.50009 -0.400839
290.6953125 1.8893929999999999 1.512306 -0.377087
291.15625 1.434538 1.260898 -0.17364
292.171875 1.815117 1.348343 -0.466774
293.08203125 1.853516 1.418541 -0.434975
293.546875 1.5661289999999999 1.159444 -0.406685
294.72265625 1.486374 1.139707 -0.346667
295.3828125 1.268646 0.924043 -0.344603
295.96484375 1.676857 1.324355 -0.352502
296.5859375 1.858766 1.354609 -0.504157
297.06640625 1.4208319999999999 1.169848 -0.250984
297.90625 1.84703 1.467094 -0.379936
298.5859375 1.9645899999999998 1.54964 -0.41495
299.24609375 1.898583 1.373716 -0.524867
299.6953125 1.5534089999999998 1.025 -0.528409
300.5 1.935297 1.56 -0.375297
301.3515625 2.007451 1.627451 -0.38
301.796875 1.551841 1.269382 -0.282459
302.6171875 1.9804869999999999 1.58866 -0.391827
304.37109375 1.9711500000000002 1.506237 -0.464913
305.01953125 1.949983 1.524983 -0.425
305.7109375 1.814761 1.454955 -0.359806
306.15234375 1.6037670000000002 1.209707 -0.39406
306.98828125 1.670344 1.319863 -0.350481
307.578125 1.825965 1.448572 -0.377393
308.56640625 1.766635 1.477989 -0.288646
309.296875 1.8492989999999998 1.4361 -0.413199
310.10546875 1.772974 1.485 -0.287974
310.578125 1.514018 1.369444 -0.144574
311.625 1.900657 1.595 -0.305657
312.390625 1.98469 1.605752 -0.378938
312.82421875 1.713371 1.233672 -0.479699
313.54296875 1.953352 1.357963 -0.595389
314.19140625 2.070125 1.550945 -0.51918
314.9375 1.938812 1.453962 -0.48485
315.44140625 1.562532 1.135701 -0.426831
316.26171875 1.869761 1.386137 -0.483624
316.92578125 1.965007 1.45459 -0.510417
317.6171875 1.9689299999999998 1.60316 -0.36577
318.39453125 1.914015 1.534865 -0.37915
319.40625 1.8018800000000001 1.459187 -0.342693
320.02734375 1.931676 1.402737 -0.528939
320.68359375 1.940766 1.48086 -0.459906
321.40625 1.983072 1.5139 -0.469172
322.02734375 2.039012 1.579012 -0.46
322.66015625 2.050961 1.581267 -0.469694
323.16015625 1.424155 1.114953 -0.309202
323.91796875 1.881463 1.399323 -0.48214
324.5390625 1.928968 1.48462 -0.444348
325.3984375 1.958485 1.63577 -0.322715
326.78125 1.869204 1.529665 -0.339539
327.62890625 1.882735 1.418981 -0.463754
328.10546875 1.495407 1.124973 -0.370434
329.08203125 1.866875 1.411942 -0.454933
329.7421875 2.030699 1.379371 -0.651328
330.375 1.978723 1.41 -0.568723
331.21875 1.855158 1.4393 -0.415858
331.86328125 1.963134 1.393687 -0.569447
332.5 1.8576929999999998 1.41 -0.447693
332.95703125 1.493906 1.142963 -0.350943
333.953125 1.7738180000000001 1.364826 -0.408992
334.6484375 1.9168779999999999 1.487248 -0.42963
335.47265625 1.9118410000000001 1.486709 -0.425132
336.359375 1.861128 1.422885 -0.438243
336.78125 1.430336 1.185724 -0.244612
337.62890625 1.867834 1.515229 -0.352605
338.33984375 1.884485 1.412064 -0.472421
339.01953125 1.937911 1.489962 -0.447949
339.703125 1.936031 1.483845 -0.452186
340.47265625 1.85901 1.29678 -0.56223
341.57421875 1.8117009999999998 1.262363 -0.549338
342.7890625 1.768929 1.329535 -0.439394
343.4296875 1.82146 1.294105 -0.527355
344.1171875 1.680253 1.194608 -0.485645
345.40625 1.743049 1.451711 -0.291338
346.07421875 1.823954 1.529658 -0.294296
346.953125 1.748357 1.446521 -0.301836
348.1171875 1.717714 1.445781 -0.271933
348.96875 1.735426 1.399665 -0.335761
349.75390625 1.739512 1.350068 -0.389444
350.2265625 1.644898 1.146321 -0.498577
351.203125 1.6305779999999999 1.245987 -0.384591
351.83203125 1.6649589999999999 1.280679 -0.38428
352.44140625 1.675176 1.251957 -0.423219
353.109375 1.71989 1.275498 -0.444392
353.5859375 1.440077 1.07 -0.370077
354.5 1.6099999999999999 1.2 -0.41
355.67578125 1.628633 1.17583 -0.452803
356.44921875 1.640891 1.101987 -0.538904
356.921875 1.392652 1.025933 -0.366719
357.9609375 1.5727 1.181581 -0.391119
358.57421875 1.6836259999999998 1.293626 -0.39
359.203125 1.708154 1.309156 -0.398998
359.93359375 1.6764000000000001 1.25329 -0.42311
360.5859375 1.713903 1.294929 -0.418974
361.3203125 1.491734 1.11248 -0.379254
361.96484375 1.384272 1.007682 -0.37659
362.62890625 1.236284 0.830953 -0.405331
363.1484375 1.205635 0.948135 -0.2575
364.16796875 1.60762 1.248515 -0.359105
364.91015625 1.6053220000000001 1.230569 -0.374753
365.40234375 1.2799999999999998 1.015 -0.265
366.3203125 1.482779 1.094529 -0.38825
367.21875 1.4228580000000002 1.021978 -0.40088
367.8203125 1.494476 1.084476 -0.41
368.4453125 1.652207 1.207207 -0.445
369.1328125 1.589585 1.109585 -0.48
369.59765625 1.327968 0.976361 -0.351607
370.453125 1.4736259999999999 1.049372 -0.424254
371.6640625 1.534022 1.174871 -0.359151
372.30078125 1.607278 1.172278 -0.435
372.890625 1.5482319999999998 1.138232 -0.41
373.3359375 1.399226 0.990897 -0.408329
374.09765625 1.587352 1.208647 -0.378705
375.35546875 1.6209740000000001 1.304974 -0.316
376.1328125 1.724288 1.359669 -0.364619
376.8984375 1.676736 1.289175 -0.387561
377.375 1.5644779999999998 1.14 -0.424478
378.296875 1.645435 1.284822 -0.360613
378.8828125 1.65621 1.284726 -0.371484
379.51171875 1.58249 1.18749 -0.395
379.93359375 1.579617 1.17493 -0.404687
380.76953125 1.5598519999999998 1.249858 -0.309994
381.453125 1.588483 1.218483 -0.37
382.14453125 1.626777 1.199536 -0.427241
382.609375 1.381544 1.061582 -0.319962
383.53125 1.715125 1.303002 -0.412123
384.30859375 1.649026 1.249026 -0.4
384.76171875 1.382987 1.063946 -0.319041
385.58984375 1.673148 1.33 -0.343148
386.2109375 1.745275 1.409311 -0.335964
387.1171875 1.677148 1.327825 -0.349323
387.73828125 1.6218700000000001 1.33187 -0.29
388.37890625 1.6245939999999999 1.275 -0.349594
388.9921875 1.5936309999999998 1.207793 -0.385838
389.88671875 1.431291 1.101291 -0.33
390.5390625 1.579872 1.209979 -0.369893
391.11328125 1.656183 1.246377 -0.409806
391.59375 1.460521 0.951906 -0.508615
392.44140625 1.61209 1.2 -0.41209
393.38671875 1.660418 1.283582 -0.376836
394.25390625 1.639502 1.219034 -0.420468
394.7578125 1.4171360000000002 1.08 -0.337136
395.78515625 1.653014 1.195466 -0.457548
396.41796875 1.753317 1.321329 -0.431988
397.05859375 1.8324470000000002 1.457969 -0.374478
397.67578125 1.8349 1.469852 -0.365048
398.125 1.5889799999999998 1.18 -0.40898
398.94140625 1.698872 1.398872 -0.3
399.69921875 1.687579 1.40961 -0.277969
400.3671875 1.694464 1.410538 -0.283926
400.984375 1.727495 1.417559 -0.309936
401.4609375 1.480462 1.184948 -0.295514
402.25 1.6337069999999998 1.255 -0.378707
402.99609375 1.6906050000000001 1.169326 -0.521279
403.4609375 1.615018 1.204919 -0.410099
404.3515625 1.8199299999999998 1.45 -0.36993
405.140625 1.849197 1.324338 -0.524859
405.640625 1.3021610000000001 1.067231 -0.23493
406.6796875 1.824701 1.439701 -0.385
407.30859375 1.901389 1.543866 -0.357523
407.97265625 1.865498 1.437356 -0.428142
408.609375 1.837413 1.404574 -0.432839
409.1796875 1.928346 1.563346 -0.365
409.953125 1.701769 1.418579 -0.28319
410.37109375 1.043742 -0.001152 -1.044894
411.359375 1.735691 1.358826 -0.376865
412.00390625 1.895268 1.427705 -0.467563
412.6484375 1.8808189999999998 1.536806 -0.344013
413.3203125 1.930476 1.562383 -0.368093
413.94140625 1.931458 1.598085 -0.333373
414.60546875 1.8666170000000002 1.509929 -0.356688
415.0703125 1.691327 1.286853 -0.404474
415.953125 1.899379 1.508676 -0.390703
416.67578125 1.933916 1.455762 -0.478154
417.203125 1.311877 1.009365 -0.302512
418.125 1.5 1.035 -0.465
418.91796875 1.587463 1.182463 -0.405
419.73828125 1.698481 1.281316 -0.417165
420.171875 1.723067 1.209454 -0.513613
421.109375 1.810961 1.449257 -0.361704
421.78125 1.934494 1.541909 -0.392585
422.6640625 1.888835 1.569979 -0.318856
423.140625 1.640313 1.283301 -0.357012
424.15234375 1.830041 1.443887 -0.386154
424.87109375 1.928903 1.478946 -0.449957
425.37109375 1.346266 1.165403 -0.180863
426.10546875 1.841823 1.424989 -0.416834
426.8046875 1.850531 1.387084 -0.463447
427.421875 1.579885 1.19113 -0.388755
428.04296875 1.364152 1.054152 -0.31
428.51953125 1.1848619999999999 1.034946 -0.149916
429.421875 1.758804 1.478804 -0.28
430.0625 1.799554 1.485 -0.314554
430.86328125 1.754857 1.409946 -0.344911
431.5703125 1.7290050000000001 1.424457 -0.304548
432.17578125 1.7627680000000001 1.428185 -0.334583
432.87109375 1.737059 1.397233 -0.339826
433.71484375 1.927161 1.59564 -0.331521
434.15234375 1.70857 1.324862 -0.383708
435.19921875 1.8361779999999999 1.558257 -0.277921
435.9296875 1.959805 1.606236 -0.353569
436.6328125 1.993606 1.581751 -0.411855
437.23828125 1.9291260000000001 1.541717 -0.387409
437.7421875 1.399696 1.17 -0.229696
438.46484375 1.906043 1.496415 -0.409628
439.04296875 1.999072 1.67448 -0.324592
439.68359375 1.94563 1.533177 -0.412453
440.609375 1.891846 1.492135 -0.399711
441.23828125 1.9920010000000001 1.486895 -0.505106
441.94921875 2.041517 1.551517 -0.49
442.625 2.002187 1.565 -0.437187
443.3046875 2.021971 1.615261 -0.40671
443.9453125 2.036769 1.641631 -0.395138
444.57421875 1.9578440000000001 1.555117 -0.402727
445.15625 1.9081249999999998 1.613125 -0.295
445.765625 1.774096 1.424597 -0.349499
446.390625 1.8183390000000001 1.478803 -0.339536
446.8828125 1.389996 1.284996 -0.105
448.00390625 1.711128 1.544136 -0.166992
448.7265625 1.821673 1.481673 -0.34
449.36328125 1.869381 1.480019 -0.389362
449.87109375 1.42549 1.299035 -0.126455
450.578125 1.933892 1.708307 -0.225585
451.1796875 1.957211 1.800046 -0.157165
451.78125 1.914187 1.702137 -0.21205
452.29296875 1.483668 1.313668 -0.17
453.125 1.793154 1.67 -0.123154
453.78125 1.820496 1.666076 -0.15442
454.51953125 1.765662 1.54105 -0.224612
455.34375 1.5770579999999998 1.407333 -0.169725
455.77734375 1.619404 1.388687 -0.230717
456.74609375 1.692757 1.477803 -0.214954
457.421875 1.724091 1.454916 -0.269175
457.89453125 1.4852489999999998 1.304674 -0.180575
458.796875 1.7869169999999999 1.456119 -0.330798
459.58203125 1.864293 1.518384 -0.345909
460.21484375 1.9036950000000001 1.666835 -0.23686
460.88671875 1.901918 1.604206 -0.297712
461.3515625 1.559799 1.315 -0.244799
462.3515625 1.816749 1.516749 -0.3
463.0 1.804809 1.61 -0.194809
463.6953125 1.7057579999999999 1.545758 -0.16
464.19921875 1.39149 1.369462 -0.022028
465.12890625 1.741129 1.533154 -0.207975
465.8359375 1.844068 1.609844 -0.234224
466.4765625 1.7504300000000002 1.45043 -0.3
467.4453125 1.7256010000000002 1.433882 -0.291719
468.10546875 1.766862 1.501329 -0.265533
468.734375 1.751762 1.461548 -0.290214
469.1875 1.601987 1.177778 -0.424209
470.0546875 1.6224539999999998 1.329421 -0.293033
470.6640625 1.699554 1.394554 -0.305
471.3046875 1.702944 1.401234 -0.30171
471.7734375 1.420226 1.208828 -0.211398
472.66796875 1.551162 1.331899 -0.219263
473.40625 1.585799 1.333059 -0.25274
474.06640625 1.6457680000000001 1.275864 -0.369904
474.82421875 1.6423860000000001 1.375903 -0.266483
475.9453125 1.613046 1.333046 -0.28
476.875 1.625 1.27 -0.355
477.7109375 1.620781 1.359662 -0.261119
478.19921875 1.383072 1.188072 -0.195
479.28515625 1.546155 1.261155 -0.285
479.98046875 1.464821 1.179989 -0.284832
480.62890625 1.614867 1.235 -0.379867
481.28125 1.7260529999999998 1.35275 -0.373303
482.1796875 1.632872 1.352491 -0.280381
483.015625 1.7204650000000001 1.375776 -0.344689
483.5 1.41 1.26 -0.15
484.5546875 1.623206 1.345642 -0.277564
485.3671875 1.614592 1.343381 -0.271211
485.8359375 1.3683480000000001 1.234885 -0.133463
486.6484375 1.7200579999999999 1.50687 -0.213188
487.28515625 1.7036989999999999 1.448699 -0.255
488.09765625 1.63755 1.408831 -0.228719
488.79296875 1.496858 1.247807 -0.249051
489.69921875 1.412228 1.127564 -0.284664
490.3828125 1.447572 1.23641 -0.211162
491.1171875 1.556347 1.307737 -0.24861
491.76171875 1.57245 1.304973 -0.267477
492.5703125 1.516617 1.212617 -0.304
493.68359375 1.2120630000000001 0.924838 -0.287225
494.4609375 1.094918 0.71995 -0.374968
495.0 1.08 0.88 -0.2
496.0 1.459751 1.115 -0.344751
496.7109375 1.577024 1.332138 -0.244886
497.375 1.6150000000000002 1.35 -0.265
498.21875 1.5001790000000002 1.212852 -0.287327
498.83984375 1.430028 1.030458 -0.39957
499.5234375 1.4514939999999998 1.13651 -0.314984
499.94921875 1.328972 1.123982 -0.20499
500.83203125 1.4598259999999998 1.17 -0.289826
501.56640625 1.436645 1.149145 -0.2875
502.3125 1.50428 1.142882 -0.361398
502.81640625 1.288223 1.014629 -0.273594
503.76171875 1.484687 1.184863 -0.299824
504.40625 1.5863459999999998 1.379665 -0.206681
505.125 1.57279 1.385 -0.18779
505.98046875 1.5636290000000002 1.379833 -0.183796
506.4296875 1.5518779999999999 1.290862 -0.261016
507.38671875 1.429799 1.210783 -0.219016
508.2109375 1.382539 1.104496 -0.278043
508.703125 1.3267529999999998 1.235693 -0.09106
509.7109375 1.436676 1.264501 -0.172175
510.90625 1.42171 1.227647 -0.194063
511.57421875 1.4354589999999998 1.309575 -0.125884
512.16796875 1.4526160000000001 1.277616 -0.175
512.8828125 1.378212 1.158478 -0.219734
513.58203125 1.49441 1.281086 -0.213324
514.265625 1.518159 1.345934 -0.172225
514.98046875 1.543565 1.294925 -0.24864
515.4453125 1.276114 1.15707 -0.119044
516.60546875 1.400799 1.161074 -0.239725
517.328125 1.4737239999999998 1.144726 -0.328998
518.0390625 1.468 1.19661 -0.27139
518.52734375 1.392622 1.234844 -0.157778
519.35546875 1.499882 1.229882 -0.27
520.1953125 1.482356 1.272356 -0.21
520.67578125 1.465338 1.275242 -0.190096
521.7421875 1.5494569999999999 1.334514 -0.214943
522.375 1.5826000000000002 1.37 -0.2126
522.9375 1.573702 1.328702 -0.245
523.52734375 1.680847 1.398484 -0.282363
524.0078125 1.538014 1.271882 -0.266132
524.82421875 1.682927 1.46405 -0.218877
525.4921875 1.740556 1.486642 -0.253914
526.1640625 1.736162 1.469365 -0.266797
526.62890625 1.377685 1.272951 -0.104734
527.43359375 1.607345 1.324507 -0.282838
528.10546875 1.8211210000000002 1.431121 -0.39
528.8046875 1.8252140000000001 1.455521 -0.369693
529.23828125 1.6011380000000002 1.297773 -0.303365
529.96875 1.8532440000000001 1.556618 -0.296626
530.76171875 1.908174 1.658337 -0.249837
531.26953125 1.260011 1.264964 0.004953
532.28125 1.9006500000000002 1.581012 -0.319638
532.97265625 2.048728 1.541662 -0.507066
533.7265625 1.904347 1.544347 -0.36
534.171875 1.682632 1.27857 -0.404062
534.99609375 1.832599 1.386614 -0.445985
535.6796875 1.9296689999999999 1.500352 -0.429317
536.6015625 1.949047 1.770928 -0.178119
537.30859375 2.067397 1.828537 -0.23886
538.0546875 1.885784 1.615799 -0.269985
538.5703125 1.5548060000000001 1.248755 -0.306051
539.26171875 1.929533 1.596995 -0.332538
539.94921875 1.946898 1.582592 -0.364306
540.79296875 1.948551 1.734842 -0.213709
541.5078125 2.003175 1.679399 -0.323776
542.13671875 2.01714 1.655517 -0.361623
542.76171875 2.041901 1.710429 -0.331472
543.23828125 1.618001 1.308728 -0.309273
544.08984375 1.908881 1.629698 -0.279183
544.73828125 1.939665 1.517393 -0.422272
545.4140625 2.017842 1.61988 -0.397962
545.890625 1.519932 1.294141 -0.225791
546.8359375 1.8005309999999999 1.48253 -0.318001
547.578125 1.776508 1.554725 -0.221783
548.03515625 1.602065 1.288612 -0.313453
548.8203125 1.9291230000000001 1.643323 -0.2858
549.6484375 1.911169 1.71223 -0.198939
550.16015625 1.36615 1.336637 -0.029513
551.0390625 1.908323 1.609656 -0.298667
551.6953125 1.965696 1.629925 -0.335771
552.24609375 1.9794779999999998 1.679606 -0.299872
552.80859375 1.885041 1.552433 -0.332608
553.48828125 1.774573 1.405006 -0.369567
554.015625 1.844512 1.564539 -0.279973
554.6640625 1.837739 1.529063 -0.308676
555.15625 1.263763 1.178008 -0.085755
556.20703125 1.902906 1.537356 -0.36555
556.8984375 2.0583850000000004 1.579117 -0.479268
557.49609375 2.085012 1.650174 -0.434838
557.9609375 1.4356749999999998 1.194845 -0.24083
558.80859375 1.8336700000000001 1.588826 -0.244844
559.5703125 1.543006 1.274006 -0.269
560.02734375 1.131844 1.019344 -0.1125
561.04296875 1.789814 1.501145 -0.288669
561.82421875 1.789545 1.546346 -0.243199
562.51171875 1.889547 1.601895 -0.287652
563.27734375 1.7796210000000001 1.554802 -0.224819
563.76171875 1.620649 1.373312 -0.247337
564.515625 1.749349 1.514727 -0.234622
565.1171875 1.9091660000000001 1.647156 -0.26201
565.6875 1.9264750000000002 1.649949 -0.276526
566.1953125 1.508831 1.186267 -0.322564
566.921875 1.799729 1.543219 -0.25651
567.859375 1.867243 1.714085 -0.153158
568.64453125 1.798426 1.511322 -0.287104
569.27734375 1.937846 1.608277 -0.329569
569.8828125 1.954359 1.714381 -0.239978
570.34375 1.569705 1.26 -0.309705
571.140625 1.824154 1.559545 -0.264609
571.890625 1.837823 1.569267 -0.268556
572.33984375 1.594673 1.315 -0.279673
573.21875 1.731038 1.516532 -0.214506
574.03515625 1.7852 1.465482 -0.319718
574.72265625 1.8687580000000001 1.522391 -0.346367
575.2421875 1.471196 1.123611 -0.347585
576.01953125 1.871997 1.426302 -0.445695
576.63671875 1.931702 1.468718 -0.462984
577.25 1.859062 1.49 -0.369062
577.72265625 1.550193 1.118817 -0.431376
578.828125 1.7440699999999998 1.440883 -0.303187
579.4453125 1.926063 1.491601 -0.434462
580.2109375 1.829021 1.394792 -0.434229
580.671875 1.458883 1.193995 -0.264888
581.50390625 1.764744 1.365029 -0.399715
582.22265625 1.97953 1.527557 -0.451973
582.69140625 1.24328 1.139951 -0.103329
583.39453125 1.931764 1.584912 -0.346852
584.1015625 1.815603 1.535991 -0.279612
584.7421875 2.002135 1.608397 -0.393738
585.48828125 1.8791419999999999 1.5856 -0.293542
586.28125 1.8157739999999998 1.445774 -0.37
587.13671875 1.853032 1.558881 -0.294151
587.58984375 1.570592 1.206396 -0.364196
588.4765625 1.763708 1.448372 -0.315336
589.15234375 1.7933629999999998 1.386734 -0.406629
589.83203125 1.755288 1.335 -0.420288
590.328125 1.532573 1.106066 -0.426507
591.0234375 1.800653 1.389391 -0.411262
591.6640625 1.7572400000000001 1.404028 -0.353212
592.37109375 1.769186 1.459354 -0.309832
592.8515625 1.558397 1.223533 -0.334864
593.93359375 1.682445 1.349021 -0.333424
594.66796875 1.757252 1.45327 -0.303982
595.12109375 1.6079 1.218285 -0.389615
596.10546875 1.689262 1.384935 -0.304327
596.73828125 1.769017 1.439129 -0.329888
597.671875 1.7079309999999999 1.295 -0.412931
598.35546875 1.775914 1.304961 -0.470953
599.03125 1.7471590000000001 1.343082 -0.404077
599.671875 1.7275150000000001 1.359274 -0.368241
600.1328125 1.403735 1.075 -0.328735
600.8828125 1.615484 1.205484 -0.41
602.00390625 1.700037 1.301994 -0.398043
602.76171875 1.687594 1.313862 -0.373732
603.23828125 1.409366 1.101681 -0.307685
604.25 1.61 1.27 -0.34
604.9921875 1.6556700000000002 1.301419 -0.354251
605.6953125 1.6664100000000002 1.31875 -0.34766
606.17578125 1.541018 1.13018 -0.410838
606.9296875 1.718456 1.339771 -0.378685
607.5625 1.688691 1.248125 -0.440566
608.2109375 1.72201 1.369779 -0.352231
608.91015625 1.655669 1.303096 -0.352573
609.515625 1.74204 1.319761 -0.422279
610.30078125 1.629554 1.299583 -0.329971
610.77734375 1.499783 1.259068 -0.240715
611.7421875 1.68961 1.37961 -0.31
612.73046875 1.6520350000000001 1.279768 -0.372267
613.41796875 1.715325 1.296357 -0.418968
614.13671875 1.6209339999999999 1.272028 -0.348906
614.6328125 1.250397 1.074321 -0.176076
615.6328125 1.6609660000000002 1.310966 -0.35
616.34375 1.774016 1.330759 -0.443257
617.02734375 1.736506 1.279722 -0.456784
617.64453125 1.749236 1.374892 -0.374344
618.1171875 1.471649 1.175 -0.296649
618.9296875 1.600927 1.25597 -0.344957
619.5390625 1.697278 1.299957 -0.397321
620.16015625 1.643427 1.337177 -0.30625
620.6484375 1.072766 1.202009 0.129243
621.40625 1.578862 1.324316 -0.254546
622.36328125 1.624001 1.339142 -0.284859
623.125 1.708966 1.415 -0.293966
623.7890625 1.7256479999999998 1.459755 -0.265893
624.41796875 1.6500270000000001 1.335056 -0.314971
624.85546875 1.349497 1.035 -0.314497
625.6640625 1.144813 0.874813 -0.27
626.49609375 1.5056429999999998 1.222033 -0.28361
627.26953125 1.525394 1.230557 -0.294837
627.9140625 1.4656550000000002 1.154894 -0.310761
628.70703125 1.601213 1.292411 -0.308802
629.35546875 1.683266 1.334868 -0.348398
630.1796875 1.5777539999999999 1.275 -0.302754
631.42578125 1.7044350000000001 1.396017 -0.308418
632.46875 1.6275620000000002 1.372562 -0.255
633.20703125 1.675359 1.282717 -0.392642
633.90625 1.6894689999999999 1.327224 -0.362245
634.57421875 1.72301 1.383866 -0.339144
635.35546875 1.667749 1.385813 -0.281936
635.921875 1.750937 1.404177 -0.34676
636.52734375 1.624653 1.32771 -0.296943
637.234375 1.663386 1.374949 -0.288437
637.796875 1.794429 1.537386 -0.257043
638.63671875 1.6794930000000001 1.464493 -0.215
639.375 1.5099239999999998 1.305 -0.204924
640.00390625 1.6619490000000001 1.384252 -0.277697
640.83203125 1.618635 1.313635 -0.305
641.4609375 1.64928 1.305573 -0.343707
641.90625 1.289141 0.988535 -0.300606
642.8671875 1.646739 1.338071 -0.308668
643.46484375 1.654595 1.311447 -0.343148
644.7734375 1.558927 1.14007 -0.418857
645.50390625 1.5663639999999999 1.176497 -0.389867
646.4921875 1.69862 1.359479 -0.339141
647.1484375 1.7457470000000002 1.387947 -0.3578
647.8125 1.707414 1.312672 -0.394742
648.2734375 1.658824 1.185 -0.473824
649.078125 1.6320750000000002 1.289419 -0.342656
649.703125 1.695044 1.2332 -0.461844
650.37109375 1.691008 1.251119 -0.439889
650.8515625 1.1461109999999999 1.116321 -0.02979
651.91796875 1.6829939999999999 1.385605 -0.297389
652.56640625 1.728881 1.328881 -0.4
653.2890625 1.678932 1.294763 -0.384169
654.35546875 1.704043 1.359902 -0.344141
655.05859375 1.614206 1.281647 -0.332559
655.78125 1.674973 1.35 -0.324973
656.25 1.657915 1.235 -0.422915
657.16015625 1.681782 1.368173 -0.313609
657.93359375 1.771117 1.469467 -0.30165
658.43359375 1.3411270000000002 1.299832 -0.041295
659.28515625 1.902051 1.577051 -0.325
660.24609375 1.994292 1.666123 -0.328169
660.96875 1.932321 1.642031 -0.29029
661.73046875 1.951368 1.606368 -0.345
662.1640625 1.77606 1.459838 -0.316222
663.09375 1.900021 1.500189 -0.399832
663.7265625 1.954048 1.549048 -0.405
664.46484375 1.8642940000000001 1.523047 -0.341247
664.9296875 1.7313269999999998 1.302341 -0.428986
665.80859375 1.958439 1.673672 -0.284767
666.43359375 2.151534 1.760207 -0.391327
667.08984375 1.973235 1.565237 -0.407998
667.7109375 2.1745349999999997 1.579049 -0.595486
668.28125 2.148968 1.51859 -0.630378
668.94921875 2.0779129999999997 1.389587 -0.688326
669.44140625 1.4070490000000002 1.12 -0.287049
670.41015625 1.987577 1.652577 -0.335
671.19140625 1.965687 1.594718 -0.370969
671.6796875 1.619542 1.182267 -0.437275
672.47265625 1.988484 1.496414 -0.49207
673.0859375 2.134744 1.604878 -0.529866
673.671875 2.116097 1.748513 -0.367584
674.24609375 2.12459 1.684707 -0.439883
674.765625 1.286116 1.096572 -0.189544
675.62890625 2.127545 1.807557 -0.319988
676.37890625 2.0543389999999997 1.762233 -0.292106
676.92578125 1.519865 1.218174 -0.301691
677.76171875 1.917514 1.75383 -0.163684
678.43359375 1.934857 1.733786 -0.201071
679.0546875 1.89356 1.664992 -0.228568
679.6875 1.921198 1.793596 -0.127602
680.2890625 2.053372 1.789372 -0.264
681.03515625 1.886901 1.678112 -0.208789
681.5234375 1.707187 1.358945 -0.348242
682.29296875 1.924263 1.622741 -0.301522
682.953125 1.8991250000000002 1.485 -0.414125
683.62109375 1.869265 1.500425 -0.36884
684.10546875 1.835611 1.224968 -0.610643
684.9609375 1.9047390000000002 1.494844 -0.409895
685.53125 1.925922 1.512313 -0.413609
686.25 1.856119 1.475 -0.381119
687.05078125 1.778687 1.381479 -0.397208
687.85546875 1.786989 1.540829 -0.24616
688.3515625 1.828313 1.378684 -0.449629
689.21875 1.810598 1.478546 -0.332052
689.97265625 1.896511 1.577557 -0.318954
690.41796875 1.660428 1.215 -0.445428
691.30078125 1.287587 1.053657 -0.23393
692.07421875 1.553806 1.323882 -0.229924
692.55078125 1.45215 1.271379 -0.180771
693.3515625 1.759322 1.415256 -0.344066
694.05078125 1.805241 1.413049 -0.392192
694.98046875 1.7333349999999998 1.394898 -0.338437
695.76953125 1.615974 1.229785 -0.386189
696.2265625 1.611001 1.158177 -0.452824
696.98046875 1.8199670000000001 1.459967 -0.36
697.64453125 1.8096709999999998 1.419776 -0.389895
698.2578125 1.822625 1.446956 -0.375669
698.83984375 1.858269 1.490739 -0.36753
699.3359375 1.202513 1.274845 0.072332
700.359375 1.669447 1.36005 -0.309397
700.97265625 1.7297209999999998 1.240325 -0.489396
701.72265625 1.875544 1.430185 -0.445359
702.265625 1.825314 1.340722 -0.484592
702.8203125 1.927979 1.414992 -0.512987
703.40234375 1.848336 1.396304 -0.452032
703.859375 1.428632 1.074141 -0.354491
704.765625 1.725713 1.359607 -0.366106
705.5703125 1.788101 1.24257 -0.545531
706.046875 1.3885550000000002 1.059905 -0.32865
706.89453125 1.8484770000000001 1.339935 -0.508542
707.64453125 1.817348 1.334934 -0.482414
708.09765625 1.546592 1.084428 -0.462164
708.87890625 1.833043 1.317304 -0.515739
709.98828125 1.762972 1.423932 -0.33904
710.69921875 1.8664360000000002 1.404087 -0.462349
711.43359375 1.7898200000000002 1.403299 -0.386521
711.91796875 1.4966209999999998 1.13 -0.366621
712.8203125 1.974135 1.638354 -0.335781
713.58984375 1.911176 1.586801 -0.324375
714.06640625 1.6489289999999999 1.294382 -0.354547
714.84765625 1.922079 1.519787 -0.402292
715.44140625 1.893548 1.434302 -0.459246
716.078125 1.873016 1.44 -0.433016
716.69921875 1.9148699999999999 1.580369 -0.334501
717.37109375 1.8449039999999999 1.475153 -0.369751
718.0625 2.0623650000000002 1.627803 -0.434562
718.73828125 2.060816 1.687006 -0.37381
719.23046875 1.607563 1.304964 -0.302599
719.95703125 1.8359159999999999 1.45037 -0.385546
720.56640625 1.911483 1.654722 -0.256761
721.265625 1.847918 1.57795 -0.269968
721.89453125 1.8903290000000001 1.484946 -0.405383
722.546875 1.820208 1.426525 -0.393683
723.046875 1.302572 1.185 -0.117572
723.91796875 1.7602289999999998 1.330771 -0.429458
724.53515625 1.815287 1.325534 -0.489753
725.22265625 1.856557 1.401709 -0.454848
725.67578125 2.11088 1.579146 -0.531734
726.4609375 1.768997 1.319105 -0.449892
727.16015625 1.702823 1.327996 -0.374827
727.62109375 1.627647 1.20393 -0.423717
728.51953125 1.6641650000000001 1.36995 -0.294215
729.33203125 1.567463 1.217907 -0.349556
729.828125 1.334094 1.19952 -0.134574
730.75 1.7101289999999998 1.525 -0.185129
731.3984375 1.788816 1.62431 -0.164506
732.08984375 1.673941 1.432961 -0.24098
732.578125 1.592108 1.22923 -0.362878
733.6953125 1.648265 1.336186 -0.312079
734.3515625 1.681065 1.379521 -0.301544
735.04296875 1.740889 1.371365 -0.369524
735.55078125 1.296276 1.18779 -0.108486
736.3671875 1.660064 1.391024 -0.26904
737.09375 1.629835 1.329095 -0.30074
737.71484375 1.698685 1.408685 -0.29
738.3515625 1.6948189999999999 1.379883 -0.314936
738.79296875 1.5922619999999998 1.242262 -0.35
739.63671875 1.559445 1.123664 -0.435781
740.27734375 1.680667 1.371033 -0.309634
740.9921875 1.628214 1.393829 -0.234385
741.625 1.6993299999999998 1.505 -0.19433
742.25 1.641319 1.435 -0.206319
742.96875 1.601146 1.316543 -0.284603
743.64453125 1.543105 1.201079 -0.342026
744.1875 1.63054 1.260909 -0.369631
744.84375 1.701424 1.447643 -0.253781
745.47265625 1.674906 1.484077 -0.190829
746.41015625 1.628732 1.335841 -0.292891
747.1796875 1.669868 1.326992 -0.342876
747.828125 1.703169 1.388002 -0.315167
748.30859375 1.3599320000000001 1.17494 -0.184992
749.140625 1.6257220000000001 1.250776 -0.374946
749.83203125 1.5809490000000002 1.160246 -0.420703
750.4609375 1.653858 1.204763 -0.449095
750.91015625 1.6131250000000001 1.112691 -0.500434
751.70703125 1.566195 1.1813 -0.384895
752.28515625 1.6074840000000001 1.204719 -0.402765
752.96875 1.496273 1.089669 -0.406604
753.421875 1.431384 1.204794 -0.22659
754.42578125 1.587388 1.195662 -0.391726
755.58203125 1.5593819999999998 1.219326 -0.340056
756.71875 1.4224350000000001 1.072915 -0.34952
757.37890625 1.168829 0.813954 -0.354875
758.03515625 1.528194 1.148194 -0.38
758.50390625 1.332674 1.086093 -0.246581
759.2734375 1.5945209999999999 1.209854 -0.384667
759.92578125 0.724935 -0.179655 -0.90459
760.55859375 1.648776 1.228793 -0.419983
761.05078125 1.497919 1.018925 -0.478994
762.0703125 1.515609 1.102566 -0.413043
763.41015625 1.5677789999999998 1.332779 -0.235
764.4140625 1.609638 1.314638 -0.295
765.44921875 1.596919 1.417136 -0.179783
766.15234375 1.697916 1.548078 -0.149838
766.82421875 1.603435 1.403435 -0.2
767.515625 1.6733950000000002 1.538418 -0.134977
767.984375 1.53753 1.296761 -0.240769
768.7734375 1.626563 1.407765 -0.218798
769.41796875 1.7202069999999998 1.498657 -0.22155
770.08203125 1.710871 1.410942 -0.299929
770.73828125 1.7347769999999998 1.413444 -0.321333
771.38671875 1.706507 1.366406 -0.340101
771.8671875 1.538023 1.134216 -0.403807
772.69140625 1.600514 1.173746 -0.426768
773.5703125 1.6959140000000001 1.256992 -0.438922
774.30078125 1.6824450000000002 1.249691 -0.432754
774.9375 1.7540939999999998 1.320266 -0.433828
775.59765625 1.7085690000000002 1.167396 -0.541173
776.59375 1.67822 1.32822 -0.35
777.921875 1.638096 1.323096 -0.315
779.2890625 1.568909 1.26993 -0.298979
780.03515625 1.646275 1.217345 -0.42893
780.46484375 1.619737 1.204312 -0.415425
781.34375 1.6892429999999998 1.409344 -0.279899
782.04296875 1.681393 1.376441 -0.304952
782.6953125 1.710375 1.412316 -0.298059
783.68359375 1.64999 1.405 -0.24499
784.4453125 1.6207479999999999 1.293556 -0.327192
784.9453125 1.538181 1.136512 -0.401669
785.546875 2.187702 1.633928 -0.553774
785.9140625 1.739392 1.324976 -0.414416
786.8984375 1.662212 1.368359 -0.293853
787.60546875 1.613936 1.274859 -0.339077
788.2265625 1.6783519999999998 1.248352 -0.43
788.890625 1.7213770000000002 1.411963 -0.309414
789.33984375 1.4066500000000002 1.28428 -0.12237
790.4375 1.60566 1.438163 -0.167497
791.10546875 1.635 1.305 -0.33
792.24609375 1.724234 1.453873 -0.270361
792.8515625 1.765959 1.349942 -0.416017
793.89453125 1.76642 1.32473 -0.44169
794.57421875 1.9307310000000002 1.477367 -0.453364
795.22265625 1.8649339999999999 1.466807 -0.398127
796.00390625 1.7462250000000001 1.303241 -0.442984
796.84375 1.747862 1.296214 -0.451648
797.31640625 1.5283390000000001 1.149828 -0.378511
798.5 1.655183 1.235 -0.420183
799.3515625 1.807734 1.357734 -0.45
799.984375 1.807608 1.404217 -0.403391
800.65234375 1.790206 1.364466 -0.42574
801.37890625 1.8033899999999998 1.344156 -0.459234
801.83984375 1.69504 1.202329 -0.492711
803.2265625 1.7987680000000001 1.478768 -0.32
803.92578125 1.88348 1.438211 -0.445269
804.390625 1.736281 1.257676 -0.478605
805.203125 1.8408959999999999 1.529429 -0.311467
805.875 1.9166860000000001 1.495 -0.421686
806.99609375 1.8412 1.561238 -0.279962
807.72265625 1.9525290000000002 1.552529 -0.4
808.4140625 1.937862 1.49968 -0.438182
809.1015625 1.865634 1.410634 -0.455
809.55859375 1.567246 1.199683 -0.367563
810.37890625 1.717756 1.225241 -0.492515
810.8046875 1.0643770000000001 -0.160623 -1.225
811.71875 1.8413469999999998 1.387454 -0.453893
812.84375 2.059311 1.524219 -0.535092
813.546875 2.029436 1.474623 -0.554813
814.37109375 1.944357 1.459412 -0.484945
815.1796875 1.972458 1.492546 -0.479912
815.64453125 1.783385 1.179955 -0.60343
817.046875 1.89924 1.449727 -0.449513
817.7109375 1.984532 1.382097 -0.602435
818.30859375 1.981157 1.298736 -0.682421
818.97265625 2.012356 1.396081 -0.616275
819.43359375 1.380763 1.135124 -0.245639
820.2578125 1.842944 1.386977 -0.455967
820.9453125 1.996443 1.590584 -0.405859
821.578125 2.018784 1.529731 -0.489053
822.53125 1.737337 1.368115 -0.369222
823.24609375 1.535135 1.275135 -0.26
823.71875 1.7139730000000002 1.241875 -0.472098
824.6484375 2.072366 1.702366 -0.37
825.7578125 1.898895 1.609301 -0.289594
826.69140625 1.827976 1.460177 -0.367799
827.59375 1.719387 1.562333 -0.157054
828.87890625 1.80712 1.502064 -0.305056
829.8671875 1.818343 1.483943 -0.3344
830.48046875 1.890624 1.459856 -0.430768
831.359375 1.7238479999999998 1.323848 -0.4
831.9375 1.064697 1.008333 -0.056364
832.72265625 1.832284 1.450126 -0.382158
833.38671875 1.912684 1.387654 -0.52503
834.01171875 1.940967 1.39318 -0.547787
834.46875 1.5558750000000001 1.102786 -0.453089
835.28125 1.826689 1.346767 -0.479922
836.03125 1.821751 1.258684 -0.563067
836.48046875 1.521755 1.124994 -0.396761
837.57421875 1.712365 1.307758 -0.404607
838.25390625 1.8654950000000001 1.356973 -0.508522
838.95703125 1.7749169999999999 1.345 -0.429917
839.44921875 1.6683729999999999 1.230839 -0.437534
840.23046875 1.718471 1.423746 -0.294725
840.83984375 1.823739 1.41644 -0.407299
841.48046875 1.903022 1.519903 -0.383119
841.921875 1.485322 1.279689 -0.205633
842.33203125 1.03 -0.135 -1.165
842.86328125 1.456401 1.02 -0.436401
843.71484375 1.831566 1.435142 -0.396424
844.7578125 1.810607 1.533056 -0.277551
845.7421875 1.835581 1.500969 -0.334612
846.44921875 1.797736 1.381346 -0.41639
847.078125 1.883704 1.458436 -0.425268
847.7578125 1.7961179999999999 1.426887 -0.369231
848.61328125 1.799701 1.444853 -0.354848
849.07421875 1.40321 1.140964 -0.262246
849.98046875 1.7755679999999998 1.434856 -0.340712
850.9921875 1.751058 1.428883 -0.322175
851.65625 1.782979 1.394687 -0.388292
852.265625 1.825062 1.325529 -0.499533
852.85546875 1.869989 1.409989 -0.46
853.296875 1.614748 1.14991 -0.464838
854.1015625 1.7417699999999998 1.36177 -0.38
854.73046875 1.822135 1.39486 -0.427275
855.48046875 1.740545 1.334966 -0.405579
856.71484375 1.731611 1.35664 -0.374971
857.53515625 1.765088 1.372797 -0.392291
857.97265625 1.506033 1.114344 -0.391689
858.953125 1.606652 1.211122 -0.39553
859.640625 1.709117 1.24426 -0.464857
860.25390625 1.6941060000000001 1.294151 -0.399955
861.07421875 1.61707 1.312476 -0.304594
861.71484375 1.759355 1.347509 -0.411846
862.44921875 1.6796510000000002 1.325287 -0.354364
863.59765625 1.666409 1.354347 -0.312062
864.2890625 1.619755 1.259755 -0.36
865.05859375 1.62706 1.284729 -0.342331
865.51171875 1.5404209999999998 1.103136 -0.437285
866.23828125 1.512295 1.149075 -0.36322
866.87109375 1.616215 1.273793 -0.342422
867.62890625 1.500884 1.213228 -0.287656
868.1015625 1.299974 1.14998 -0.149994
869.04296875 1.576579 1.35009 -0.226489
869.69140625 1.6959060000000001 1.33 -0.365906
870.2578125 1.627196 1.212776 -0.41442
870.75 1.355962 0.89 -0.465962
871.49609375 1.557358 1.122495 -0.434863
872.0859375 1.6348340000000001 1.239929 -0.394905
872.734375 1.6017739999999998 1.219539 -0.382235
873.24609375 1.382421 1.110263 -0.272158
874.0703125 1.54582 1.211011 -0.334809
874.7890625 1.593449 1.194907 -0.398542
875.6015625 1.6 1.28 -0.32
876.21875 1.697508 1.409562 -0.287946
877.125 1.625121 1.345 -0.280121
877.8203125 1.64203 1.36703 -0.275
878.47265625 1.720765 1.386965 -0.3338
878.93359375 1.345699 1.179629 -0.16607
879.7734375 1.68327 1.345317 -0.337953
880.4765625 1.730803 1.325803 -0.405
881.31640625 1.6436739999999999 1.239193 -0.404481
881.70703125 0.999115 -0.259609 -1.258724
882.69140625 1.554458 1.059458 -0.495
883.2734375 1.642203 1.199348 -0.442855
883.8125 1.575436 1.293333 -0.282103
884.59765625 1.594043 1.352924 -0.241119
885.2578125 1.564858 1.29521 -0.269648
885.9375 1.629082 1.3725 -0.256582
886.4375 1.036222 1.169375 0.133153
887.3203125 1.588488 1.289483 -0.299005
887.984375 1.532143 1.186761 -0.345382
888.63671875 1.272278 0.940244 -0.332034
889.29296875 1.179613 0.874152 -0.305461
890.03125 1.512638 1.245703 -0.266935
890.73046875 1.474843 1.239995 -0.234848
891.51953125 1.6161789999999998 1.365295 -0.250884
892.2578125 1.571206 1.221206 -0.35
892.953125 1.450038 1.073297 -0.376741
893.41015625 1.336004 1.074323 -0.261681
894.41015625 1.6404360000000002 1.375436 -0.265
895.0390625 1.6681059999999999 1.35347 -0.314636
895.75390625 1.514952 1.149952 -0.365
896.421875 1.671951 1.327972 -0.343979
897.03515625 1.682503 1.317503 -0.365
897.671875 1.677216 1.23923 -0.437986
898.171875 1.447947 1.219888 -0.228059
899.1640625 1.567785 1.384175 -0.18361
899.9375 1.504779 1.24 -0.264779
900.37890625 1.570553 1.33393 -0.236623
901.35546875 1.678902 1.629919 -0.048983
902.05859375 1.651161 1.48374 -0.167421
902.93359375 1.58878 1.49378 -0.095
903.5625 1.6335579999999998 1.549138 -0.08442
904.19140625 1.725981 1.643731 -0.08225
904.9921875 1.571494 1.42664 -0.144854
905.46875 1.53905 1.309609 -0.229441
906.26171875 1.626938 1.526938 -0.1
907.12109375 1.6628749999999999 1.463299 -0.199576
907.546875 1.6826160000000001 1.274242 -0.408374
908.72265625 1.7103249999999999 1.510325 -0.2
909.50390625 1.6681819999999998 1.38912 -0.279062
910.15234375 1.6897060000000002 1.299868 -0.389838
910.76953125 1.651481 1.319202 -0.332279
911.234375 1.48103 1.217891 -0.263139
912.6328125 1.647538 1.390361 -0.257177
913.984375 1.6002770000000002 1.239295 -0.360982
914.9296875 1.74366 1.239457 -0.504203
915.8359375 1.804516 1.376142 -0.428374
916.5546875 1.714083 1.294174 -0.419909
917.2265625 1.8225959999999999 1.472596 -0.35
917.85546875 1.772937 1.329832 -0.443105
918.46484375 1.8151700000000002 1.500463 -0.314707
918.90234375 1.574967 1.195 -0.379967
919.73046875 1.6257970000000002 1.290855 -0.334942
920.47265625 1.682933 1.338233 -0.3447
920.94140625 1.626979 1.131295 -0.495684
922.328125 1.6974669999999998 1.457555 -0.239912
923.05078125 1.739271 1.325895 -0.413376
923.6875 1.801349 1.36206 -0.439289
924.1875 1.5012489999999998 1.153571 -0.347678
925.21484375 1.673022 1.398022 -0.275
925.796875 1.822354 1.471895 -0.350459
926.546875 1.723259 1.432461 -0.290798
927.25 1.803341 1.45 -0.353341
927.91796875 1.760047 1.32551 -0.434537
928.6171875 1.815137 1.451937 -0.3632
929.08984375 1.687108 1.251509 -0.435599
930.21875 1.7407659999999998 1.305937 -0.434829
930.80859375 1.757977 1.424902 -0.333075
931.4453125 1.776398 1.381398 -0.395
932.1640625 1.7361939999999998 1.379676 -0.356518
932.80859375 1.849468 1.414331 -0.435137
933.62109375 1.8099249999999998 1.305 -0.504925
934.39453125 1.739008 1.329458 -0.40955
935.05078125 1.821355 1.32641 -0.494945
935.7109375 1.8157359999999998 1.284447 -0.531289
936.41015625 1.865278 1.368016 -0.497262
937.4140625 1.805659 1.494797 -0.310862
938.22265625 1.78532 1.381329 -0.403991
938.66796875 1.6258890000000001 1.175105 -0.450784
939.6171875 1.777668 1.408885 -0.368783
940.2890625 1.844289 1.351126 -0.493163
940.9765625 1.841913 1.365162 -0.476751
941.62109375 1.8765040000000002 1.466325 -0.410179
942.0625 1.638208 1.25125 -0.386958
942.92578125 1.9283109999999999 1.591877 -0.336434
943.515625 1.949969 1.440215 -0.509754
944.18359375 1.943775 1.55858 -0.385195
944.828125 1.964345 1.556635 -0.40771
945.51171875 1.884483 1.58175 -0.302733
946.26171875 1.8275219999999999 1.466953 -0.360569
946.921875 1.910584 1.519013 -0.391571
947.68359375 1.829803 1.515975 -0.313828
948.14453125 1.815739 1.41 -0.405739
949.12109375 1.7156699999999998 1.539551 -0.176119
949.78125 1.739628 1.400305 -0.339323
950.8515625 1.757959 1.557959 -0.2
951.51171875 1.862825 1.509101 -0.353724
952.2265625 1.7362250000000001 1.446225 -0.29
952.69140625 1.436775 1.284949 -0.151826
953.62890625 1.738665 1.449415 -0.28925
954.265625 1.6349859999999998 1.392618 -0.242368
955.078125 1.434139 1.184139 -0.25
955.7890625 1.734597 1.429844 -0.304753
956.24609375 1.768221 1.315986 -0.452235
957.0078125 1.753611 1.454812 -0.298799
957.62109375 1.818198 1.443228 -0.37497
958.23828125 1.775601 1.445457 -0.330144
958.7421875 1.509262 1.195 -0.314262
959.57421875 1.8182809999999998 1.528393 -0.289888
960.2578125 1.9362309999999998 1.588326 -0.347905
960.921875 1.883468 1.593527 -0.289941
961.5390625 1.959627 1.674315 -0.285312
962.203125 1.92789 1.595 -0.33289
962.81640625 2.0495099999999997 1.734524 -0.314986
963.41796875 2.024359 1.684972 -0.339387
964.109375 2.002998 1.644617 -0.358381
965.19140625 1.998679 1.664148 -0.334531
965.75 2.019643 1.625 -0.394643
966.48046875 2.030677 1.639995 -0.390682
966.9609375 1.810034 1.289869 -0.520165
968.26171875 1.86272 1.549543 -0.313177
969.0859375 1.837551 1.38815 -0.449401
969.5546875 1.483539 1.151433 -0.332106
970.421875 1.823417 1.404492 -0.418925
971.16796875 1.802922 1.364952 -0.43797
971.62109375 1.54846 1.31 -0.23846
972.51171875 1.827802 1.51196 -0.315842
973.26953125 1.844262 1.394963 -0.449299
973.72265625 1.6024630000000002 1.323082 -0.279381
974.62109375 1.737731 1.49748 -0.240251
975.3203125 1.770343 1.432198 -0.338145
975.90234375 1.922722 1.508647 -0.414075
976.73046875 1.749924 1.359924 -0.39
977.40625 1.738038 1.383547 -0.354491
978.2578125 1.761492 1.503137 -0.258355
978.84765625 1.8008190000000002 1.565819 -0.235
979.43359375 1.733469 1.488526 -0.244943
979.984375 1.6760549999999999 1.381055 -0.295
980.57421875 1.696598 1.358876 -0.337722
981.26171875 1.619093 1.31687 -0.302223
982.0234375 1.6133030000000002 1.348303 -0.265
982.80859375 1.638967 1.483967 -0.155
983.2734375 1.3505909999999999 1.243264 -0.107327
984.1875 1.6285349999999998 1.422969 -0.205566
984.80859375 1.68168 1.411688 -0.269992
985.4375 1.638927 1.312857 -0.32607
985.88671875 1.49032 1.164372 -0.325948
986.85546875 1.715122 1.454961 -0.260161
987.49609375 1.773672 1.599594 -0.174078
988.21875 1.858158 1.553158 -0.305
988.84765625 1.864575 1.542467 -0.322108
989.4765625 1.851815 1.532295 -0.31952
990.0078125 1.587926 1.115 -0.472926
990.73046875 1.6474339999999998 1.164934 -0.4825
991.3828125 1.6129250000000002 1.076661 -0.536264
991.9921875 1.634728 1.109728 -0.525
992.44921875 1.460601 1.027812 -0.432789
993.3828125 1.629185 1.355725 -0.27346
994.4921875 1.661932 1.532157 -0.129775
995.42578125 1.663043 1.504602 -0.158441
996.09765625 1.612787 1.370679 -0.242108
996.6875 1.626668 1.373711 -0.252957
997.33984375 1.635283 1.437831 -0.197452
997.78515625 1.630443 1.36 -0.270443
998.52734375 1.6258679999999999 1.466791 -0.159077
999.30859375 1.594822 1.419841 -0.174981
999.78515625 1.424635 1.379993 -0.044642
1000.80859375 1.6177100000000002 1.430808 -0.186902
1001.48046875 1.668209 1.454809 -0.2134
1002.15625 1.763641 1.443912 -0.319729
1002.6015625 1.681885 1.282218 -0.399667
1003.53125 1.6346420000000002 1.359671 -0.274971
1004.203125 1.66536 1.313893 -0.351467
1005.3046875 1.617256 1.297256 -0.32
1006.078125 1.584616 1.327263 -0.257353
1006.53125 1.548368 1.196719 -0.351649
1007.43359375 1.523231 1.227623 -0.295608
1008.3203125 1.543944 1.273944 -0.27
1008.9296875 1.657011 1.407332 -0.249679
1009.64453125 1.793493 1.534963 -0.25853
1010.11328125 1.535977 1.224148 -0.311829
1010.9296875 1.895454 1.695948 -0.199506
1011.60546875 2.02177 1.724872 -0.296898
1012.23828125 2.032531 1.680124 -0.352407
1012.96875 1.864808 1.395179 -0.469629
1013.43359375 1.467946 1.054683 -0.413263
1014.30859375 1.631176 1.288919 -0.342257
1014.9765625 1.637957 1.367957 -0.27
1015.43359375 1.403266 1.134612 -0.268654
1016.33203125 1.57015 1.353421 -0.216729
1017.17578125 1.5449609999999998 1.264897 -0.280064
1017.62890625 1.310468 1.145 -0.165468
1018.59765625 1.624562 1.399562 -0.225
1019.25390625 1.688645 1.311262 -0.377383
1020.07421875 1.5303360000000001 1.24343 -0.286906
1020.5 1.47909 1.125 -0.35409
1021.3359375 1.344358 1.0099 -0.334458
1021.9921875 1.426618 1.151618 -0.275
1022.4921875 1.0553569999999999 0.541493 -0.513864
1023.28125 1.5884239999999998 1.188462 -0.399962
1023.75 1.4 1.095 -0.305
1025.0234375 1.422493 1.017522 -0.404971
1025.734375 1.562068 1.135 -0.427068
1026.51171875 1.668378 1.283378 -0.385
1026.9375 1.585861 1.048594 -0.537267
1027.7734375 1.522983 1.132983 -0.39
1028.421875 1.629254 1.238839 -0.390415
1029.078125 1.642521 1.224162 -0.418359
1029.578125 1.4652759999999998 1.079783 -0.385493
1030.58203125 1.63952 1.27 -0.36952
1031.3984375 1.5790259999999998 1.199026 -0.38
1031.8671875 1.538617 1.068045 -0.470572
1032.89453125 1.589718 1.199718 -0.39
1033.5078125 1.647465 1.151977 -0.495488
1034.125 1.644448 1.24 -0.404448
1034.8046875 1.60548 1.212481 -0.392999
1035.29296875 1.5471549999999998 1.14 -0.407155
1036.23046875 1.573358 1.189872 -0.383486
1037.1328125 1.689693 1.349381 -0.340312
1037.59375 1.585568 1.179629 -0.405939
1038.6328125 1.690598 1.275598 -0.415
1039.34765625 1.694963 1.326933 -0.36803
1040.18359375 1.644832 1.25979 -0.385042
1040.94140625 1.713033 1.289439 -0.423594
1041.6640625 1.670099 1.294099 -0.376
1042.15625 1.486613 1.140781 -0.345832
1043.140625 1.694497 1.409497 -0.285
1044.08203125 1.798428 1.543767 -0.254661
1044.734375 1.92713 1.703686 -0.223444
1045.58984375 1.9664169999999999 1.698159 -0.268258
1046.02734375 1.73327 1.195 -0.53827
1046.84765625 1.705126 1.255126 -0.45
1047.51171875 1.791977 1.442674 -0.349303
1048.1640625 1.74689 1.379785 -0.367105
1048.80859375 1.868498 1.583729 -0.284769
1049.29296875 1.4134010000000001 1.37671 -0.036691
1050.12890625 1.822089 1.562218 -0.259871
1051.19921875 1.767122 1.642122 -0.125
1051.8203125 1.920586 1.56046 -0.360126
1052.48828125 1.829682 1.702855 -0.126827
1053.03125 1.044602 1.37 0.325398
1053.7890625 1.681933 1.56257 -0.119363
1054.45703125 1.8753929999999999 1.670418 -0.204975
1055.14453125 1.8078940000000001 1.524777 -0.283117
1055.65625 1.549911 1.21 -0.339911
1056.45703125 1.854108 1.574108 -0.28
1057.0859375 2.015888 1.62482 -0.391068
1057.71484375 1.894556 1.528039 -0.366517
1058.17578125 1.460801 1.239663 -0.221138
1059.1796875 1.767493 1.525812 -0.241681
1059.8515625 1.8446850000000001 1.530933 -0.313752
1060.5390625 1.786518 1.439331 -0.347187
1060.9921875 1.761071 1.341611 -0.41946
1061.765625 1.737331 1.503 -0.234331
1062.921875 1.7015529999999999 1.483922 -0.217631
1063.5625 1.8524479999999999 1.512714 -0.339734
1064.1953125 1.807109 1.391435 -0.415674
1064.83984375 1.8999289999999998 1.607854 -0.292075
1065.32421875 1.313385 1.272233 -0.041152
1066.18359375 1.861836 1.514307 -0.347529
1067.2890625 1.917914 1.652872 -0.265042
1068.02734375 1.904594 1.563049 -0.341545
1068.68359375 2.109807 1.678818 -0.430989
1069.33984375 2.070342 1.725765 -0.344577
1070.0234375 1.9319890000000002 1.558027 -0.373962
1070.46484375 1.551541 1.281802 -0.269739
1071.41796875 1.9812750000000001 1.628867 -0.352408
1072.15625 1.978262 1.545993 -0.432269
1072.96484375 1.885678 1.600463 -0.285215
1073.43359375 1.653729 1.339946 -0.313783
1074.38671875 2.975016 2.227493 -0.747523
1075.0546875 1.890247 1.635694 -0.254553
1075.51171875 1.645 1.305 -0.34
1076.4296875 1.805016 1.587519 -0.217497
1077.5390625 1.784904 1.549904 -0.235
1078.453125 1.830703 1.547191 -0.283512
1079.17578125 1.835083 1.533471 -0.301612
1079.8125 1.8137690000000002 1.464182 -0.349587
1080.484375 1.7907330000000001 1.370921 -0.419812
1080.97265625 1.6258730000000001 1.144481 -0.481392
1081.8984375 1.6980300000000002 1.369309 -0.328721
1082.515625 1.77285 1.397895 -0.374955
1083.22265625 1.703816 1.32388 -0.379936
1083.68359375 1.655208 1.204432 -0.450776
1084.7421875 1.764999 1.389999 -0.375
1085.45703125 1.894963 1.41 -0.484963
1086.125 1.757025 1.34 -0.417025
1086.6328125 1.411672 0.966287 -0.445385
1087.53515625 1.67212 1.29712 -0.375
1088.1875 1.8491600000000001 1.395887 -0.453273
1088.8671875 1.699281 1.327855 -0.371426
1089.3515625 1.313825 1.201028 -0.112797
1090.89453125 1.6880870000000001 1.399939 -0.288148
1092.21875 1.729252 1.264252 -0.465
1093.1328125 1.883653 1.417926 -0.465727
1093.8671875 1.818244 1.438244 -0.38
1094.64453125 1.8024 1.424931 -0.377469
1095.10546875 1.4499780000000002 1.309986 -0.139992
1096.109375 1.817326 1.596633 -0.220693
1097.37890625 1.8263850000000001 1.586497 -0.239888
1098.09375 1.854166 1.400385 -0.453781
1098.53125 1.5857329999999998 1.203679 -0.382054
1099.28515625 1.88567 1.558711 -0.326959
1100.38671875 1.7767270000000002 1.536901 -0.239826
1101.1015625 1.976623 1.646623 -0.33
1101.78125 1.959845 1.6349 -0.324945
1102.4375 1.845814 1.480814 -0.365
1103.296875 1.823734 1.454917 -0.368817
1104.4453125 1.798463 1.481238 -0.317225
1105.18359375 1.7840349999999998 1.429042 -0.354993
1105.64453125 1.591612 1.17499 -0.416622
1106.75 1.8162580000000002 1.58 -0.236258
1108.09375 1.786473 1.578546 -0.207927
1108.7890625 1.734451 1.524451 -0.21
1109.546875 1.707569 1.478727 -0.228842
1109.99609375 1.61982 1.320838 -0.298982
1110.9296875 1.658343 1.56335 -0.094993
1111.6015625 1.645108 1.329846 -0.315262
1112.32421875 1.736689 1.508643 -0.228046
1112.78125 1.424121 1.254219 -0.169902
1113.640625 1.655 1.3 -0.355
1114.296875 1.592784 1.208184 -0.3846
1115.578125 1.6636170000000001 1.522294 -0.141323
1116.4296875 1.570639 1.385 -0.185639
1117.0390625 1.618169 1.384728 -0.233441
1117.66796875 1.532053 1.232053 -0.3
1118.51171875 1.542513 1.249003 -0.29351
1118.9765625 1.437138 1.177778 -0.25936
1119.89453125 1.467639 1.15496 -0.312679
1120.60546875 1.487465 1.139562 -0.347903
1121.234375 1.495832 1.169672 -0.32616
1121.85546875 1.5016500000000002 1.174886 -0.326764
1122.3125 1.546757 1.1115 -0.435257
1123.16796875 1.4322 1.031692 -0.400508
1123.953125 1.528697 1.212214 -0.316483
1124.390625 1.6200670000000001 1.092681 -0.527386
1125.203125 1.5682299999999998 1.241124 -0.327106
1125.8828125 1.565353 1.221634 -0.343719
1126.62109375 1.509773 1.249914 -0.259859
1127.109375 1.55045 1.168365 -0.382085
1128.14453125 1.657516 1.459801 -0.197715
1128.8046875 1.6242779999999999 1.295 -0.329278
1129.484375 1.4932349999999999 0.983429 -0.509806
1129.94140625 1.466496 0.974832 -0.491664
1131.078125 1.510871 1.118605 -0.392266
1131.88671875 1.53179 1.137639 -0.394151
1133.12890625 1.557034 1.2834 -0.273634
1134.328125 1.605814 1.415843 -0.189971
1135.02734375 1.701092 1.391519 -0.309573
1135.47265625 1.578872 1.154809 -0.424063
1136.30859375 1.633378 1.279514 -0.353864
1136.92578125 1.6949999999999998 1.315 -0.38
1137.6015625 1.799153 1.439321 -0.359832
1138.0859375 1.489856 1.239727 -0.250129
1139.08984375 1.757546 1.377785 -0.379761
1139.98828125 1.819286 1.449432 -0.369854
1140.44140625 1.757614 1.25 -0.507614
1141.390625 1.802179 1.513468 -0.288711
1142.03515625 1.878493 1.5258 -0.352693
1142.68359375 1.932375 1.559953 -0.372422
1143.16796875 1.77509 1.409064 -0.366026
1144.23828125 2.01303 1.696363 -0.316667
1144.91015625 2.05331 1.586267 -0.467043
1145.60546875 1.8967299999999998 1.599832 -0.296898
1146.08984375 1.7734400000000001 1.400864 -0.372576
1147.0 1.964467 1.6 -0.364467
1147.796875 1.8104740000000001 1.435909 -0.374565
1148.25390625 1.757552 1.353685 -0.403867
1149.7421875 1.744512 1.378659 -0.365853
1150.42578125 1.7744600000000001 1.321657 -0.452803
1151.07421875 1.8311320000000002 1.320977 -0.510155
1151.9296875 1.6761000000000001 1.197626 -0.478474
1152.515625 1.559339 1.158464 -0.400875
1153.30078125 1.4431690000000001 1.053169 -0.39
1153.95703125 1.75685 1.336959 -0.419891
1154.62109375 1.847302 1.487811 -0.359491
1155.3125 1.6733449999999999 1.205547 -0.467798
1155.7734375 1.431977 1.132471 -0.299506
1156.80859375 1.690547 1.408866 -0.281681
1157.21484375 0.9914840000000001 -0.08 -1.071484
1158.140625 1.6610660000000002 1.277292 -0.383774
1158.85546875 1.725077 1.2843 -0.440777
1159.484375 1.799665 1.324534 -0.475131
1160.1171875 1.7948940000000002 1.278196 -0.516698
1160.91015625 1.834562 1.475142 -0.35942
1161.66015625 1.7259790000000002 1.416212 -0.309767
1162.38671875 1.737128 1.387456 -0.349672
1163.20703125 1.723128 1.387062 -0.336066
1164.09765625 1.8046380000000002 1.459872 -0.344766
1164.74609375 1.790714 1.310749 -0.479965
1165.484375 1.688632 1.236548 -0.452084
1166.61328125 1.6043729999999998 1.224373 -0.38
1167.265625 1.768775 1.278826 -0.489949
1167.96484375 1.72302 1.35938 -0.36364
1168.7109375 1.694706 1.324766 -0.36994
1169.16796875 1.5199829999999999 1.092336 -0.427647
1170.0 1.6398519999999999 1.19 -0.449852
1170.609375 1.6908020000000001 1.347677 -0.343125
1171.3984375 1.7033209999999999 1.338512 -0.364809
1172.24609375 1.768429 1.391375 -0.377054
1172.69921875 1.5129519999999999 1.176737 -0.336215
1173.6875 1.69451 1.464349 -0.230161
1174.41796875 1.6610880000000001 1.268596 -0.392492
1175.14453125 1.829501 1.409879 -0.419622
1175.59765625 1.594868 1.284855 -0.310013
1176.484375 1.750191 1.486253 -0.263938
1177.1171875 1.835639 1.491274 -0.344365
1177.73046875 1.838382 1.429937 -0.408445
1178.390625 1.760066 1.355246 -0.40482
1178.83203125 1.442034 1.247469 -0.194565
1179.7421875 1.738508 1.462586 -0.275922
1180.46875 1.77384 1.41375 -0.36009
1180.95703125 1.5010480000000002 1.162025 -0.339023
1181.90625 2.034867 1.729409 -0.305458
1182.59765625 1.894075 1.369744 -0.524331
1183.26171875 2.045235 1.4025 -0.642735
1183.72265625 1.640755 1.151398 -0.489357
1184.734375 1.898785 1.422189 -0.476596
1185.64453125 1.774602 1.564983 -0.209619
1186.32421875 1.860643 1.506713 -0.35393
1186.96484375 1.851496 1.548779 -0.302717
1187.671875 1.857355 1.494267 -0.363088
1188.09765625 1.584212 1.215 -0.369212
1188.98828125 1.7378230000000001 1.407456 -0.330367
1189.83984375 1.814816 1.440344 -0.374472
1190.5390625 1.857376 1.499529 -0.357847
1191.66015625 1.7461030000000002 1.331447 -0.414656
1192.6015625 1.847079 1.417079 -0.43
1193.48046875 2.014989 1.624989 -0.39
1194.16796875 2.030315 1.606027 -0.424288
1194.828125 2.117497 1.664514 -0.452983
1195.63671875 2.02058 1.568674 -0.451906
1196.48828125 1.970332 1.558149 -0.412183
1196.94140625 1.7364030000000001 1.319749 -0.416654
1197.8671875 2.0071440000000003 1.591441 -0.415703
1198.56640625 2.042195 1.583881 -0.458314
1199.25390625 1.959009 1.462595 -0.496414
1199.75390625 1.722685 1.230974 -0.491711
1200.5078125 1.883403 1.488866 -0.394537
1201.12109375 2.01818 1.603299 -0.414881
1202.03515625 1.9932990000000002 1.671461 -0.321838
1202.6796875 2.088762 1.550523 -0.538239
1203.29296875 2.043206 1.453673 -0.589533
1203.84375 0.9954050000000001 1.009187 0.013782
1205.1171875 1.860719 1.472402 -0.388317
1206.33203125 1.834839 1.39053 -0.444309
1206.97265625 2.067896 1.561414 -0.506482
1207.6015625 1.996874 1.556874 -0.44
1208.7890625 1.940938 1.554003 -0.386935
1209.46484375 1.9991370000000002 1.479387 -0.51975
1210.19140625 2.037845 1.524729 -0.513116
1211.04296875 1.968292 1.533833 -0.434459
1211.73046875 2.009947 1.504947 -0.505
1212.52734375 1.904858 1.491329 -0.413529
1213.0390625 1.252733 0.999977 -0.252756
1213.91015625 1.761524 1.308124 -0.4534
1214.359375 1.693263 1.288092 -0.405171
1215.15234375 1.7164780000000002 1.326507 -0.389971
1215.8125 1.90823 1.333704 -0.574526
1216.4375 1.7982280000000002 1.307662 -0.490566
1216.96875 1.533018 1.053 -0.480018
1217.80859375 1.9665970000000002 1.524671 -0.441926
1218.48046875 1.878308 1.394975 -0.483333
1219.64453125 1.89016 1.529894 -0.360266
1220.5859375 1.973573 1.594253 -0.37932
1221.4375 1.905934 1.509512 -0.396422
1221.92578125 1.529477 1.229036 -0.300441
1222.828125 1.867613 1.552177 -0.315436
1223.95703125 2.054151 1.667045 -0.387106
1224.5703125 2.07834 1.716058 -0.362282
1225.19140625 2.127361 1.798261 -0.3291
1225.65625 1.883606 1.425312 -0.458294
1226.390625 2.017908 1.553003 -0.464905
1227.1171875 1.935846 1.555378 -0.380468
1227.6328125 1.481758 1.218535 -0.263223
1228.48046875 1.943556 1.674946 -0.26861
1229.171875 1.959057 1.626506 -0.332551
1229.94140625 1.739899 1.388217 -0.351682
1230.3828125 1.7189199999999998 1.214729 -0.504191
1231.234375 1.8115160000000001 1.448125 -0.363391
1231.89453125 1.776934 1.404904 -0.37203
1232.78125 1.69845 1.39845 -0.3
1233.4921875 1.645397 1.318604 -0.326793
1234.16796875 1.707538 1.353529 -0.354009
1234.9453125 1.537005 1.197524 -0.339481
1235.39453125 1.489773 1.130014 -0.359759
1236.20703125 1.547624 1.182662 -0.364962
1236.94140625 1.69291 1.389953 -0.302957
1237.4296875 1.605079 1.163486 -0.441593
1238.2578125 1.670755 1.363524 -0.307231
1239.44140625 1.7233450000000001 1.488345 -0.235
1240.17578125 1.587871 1.293104 -0.294767
1240.9140625 1.592108 1.312108 -0.28
1242.06640625 1.662154 1.449595 -0.212559
1242.71484375 1.6829 1.379033 -0.303867
1243.5 1.63825 1.39 -0.24825
1243.9453125 1.66688 1.291704 -0.375176
1245.50390625 1.569635 1.334635 -0.235
1246.72265625 1.5216669999999999 1.198091 -0.323576
1247.4921875 1.6035659999999998 1.221005 -0.382561
1247.9453125 1.58513 1.191512 -0.393618
1248.8125 1.614076 1.434595 -0.179481
1249.68359375 1.653277 1.389661 -0.263616
1250.12109375 1.62851 1.236642 -0.391868
1250.98046875 2.587348 1.809971 -0.777377
1251.91015625 1.549201 1.271354 -0.277847
1252.5859375 1.510752 1.199897 -0.310855
1253.26171875 1.42347 1.12847 -0.295
1253.734375 1.425128 1.067891 -0.357237
1254.5546875 1.500755 1.310972 -0.189783
1255.44921875 1.512294 1.29233 -0.219964
1255.890625 1.45077 1.204187 -0.246583
1256.81640625 1.399456 1.214837 -0.184619
1257.515625 1.414138 1.194138 -0.22
1258.87890625 1.450002 1.212033 -0.237969
1260.20703125 1.490313 1.307115 -0.183198
1260.828125 1.41667 1.186136 -0.230534
1261.84375 1.496629 1.346689 -0.14994
1263.00390625 1.464698 1.374754 -0.089944
1263.6875 1.4850770000000002 1.366 -0.119077
1264.41796875 1.3858039999999998 1.255804 -0.13
1264.89453125 1.42174 1.294943 -0.126797
1266.05078125 1.522912 1.448807 -0.074105
1266.72265625 1.51987 1.37987 -0.14
1267.41796875 1.4903790000000001 1.348718 -0.141661
1267.87109375 1.591725 1.25737 -0.334355
1268.9921875 1.568273 1.392508 -0.175765
1270.3125 1.513043 1.358043 -0.155
1271.046875 1.533701 1.326128 -0.207573
1271.84375 1.488369 1.208537 -0.279832
1272.28515625 1.6489889999999998 1.295 -0.353989
1273.40625 1.609964 1.345 -0.264964
1274.078125 1.618042 1.331074 -0.286968
1274.703125 1.768958 1.431125 -0.337833
1275.6640625 1.629611 1.289872 -0.339739
1276.55859375 1.657036 1.418542 -0.238494
1277.28515625 1.6001599999999998 1.340615 -0.259545
1277.7421875 1.6469749999999999 1.198616 -0.448359
1278.546875 1.69693 1.477853 -0.219077
1279.41015625 1.684418 1.412929 -0.271489
1279.8515625 1.616048 1.266144 -0.349904
1280.734375 1.551094 1.342969 -0.208125
1281.72265625 1.5642269999999998 1.309227 -0.255
1282.421875 1.662522 1.321018 -0.341504
1283.140625 1.6485830000000001 1.368848 -0.279735
1283.61328125 1.606496 1.249355 -0.357141
1284.4296875 1.589661 1.289661 -0.3
1285.03125 1.526768 1.231768 -0.295
1285.71484375 1.446923 1.163721 -0.283202
1286.1875 1.483031 1.243409 -0.239622
1287.046875 1.542625 1.213839 -0.328786
1287.859375 1.5573739999999998 1.249423 -0.307951
1288.58203125 1.6043880000000001 1.24947 -0.354918
1289.0625 1.585509 1.12 -0.465509
1289.86328125 1.6207829999999999 1.240783 -0.38
1290.4921875 1.681851 1.178652 -0.503199
1291.24609375 1.660666 1.336237 -0.324429
1291.671875 1.5503040000000001 1.219802 -0.330502
1292.6015625 1.616948 1.326948 -0.29
1293.27734375 1.672717 1.354868 -0.317849
1293.97265625 1.657265 1.385 -0.272265
1294.828125 1.664631 1.429631 -0.235
1295.55859375 1.619151 1.334953 -0.284198
1296.2734375 1.694578 1.370741 -0.323837
1296.97265625 1.64451 1.345467 -0.299043
1297.890625 1.671705 1.449456 -0.222249
1299.2578125 1.73878 1.535996 -0.202784
1300.83203125 1.740576 1.165614 -0.574962
1301.5234375 1.76205 1.332045 -0.430005
1301.98046875 1.436557 1.049994 -0.386563
1302.95703125 1.7124780000000002 1.408767 -0.303711
1303.5703125 1.680306 1.247084 -0.433222
1304.1640625 1.803495 1.399823 -0.403672
1305.47265625 1.7676159999999999 1.391554 -0.376062
1306.64453125 1.774983 1.454983 -0.32
1307.296875 1.813203 1.477231 -0.335972
1308.0078125 1.664439 1.329785 -0.334654
1308.45703125 1.611745 1.223795 -0.38795
1309.4765625 1.730545 1.453278 -0.277267
1310.5859375 1.67022 1.254365 -0.415855
1311.1953125 1.877659 1.362675 -0.514984
1311.8515625 1.876668 1.506668 -0.37
1312.51953125 1.835305 1.439898 -0.395407
1312.99609375 1.593514 1.18276 -0.410754
1313.87109375 1.7278120000000001 1.32796 -0.399852
1314.515625 1.7943790000000002 1.433764 -0.360615
1315.125 1.851688 1.52 -0.331688
1315.828125 1.7255289999999999 1.340955 -0.384574
1316.484375 1.844434 1.381276 -0.463158
1317.109375 1.86227 1.487062 -0.375208
1317.7578125 1.870171 1.475511 -0.39466
1318.56640625 1.738987 1.30854 -0.430447
1319.3046875 1.8295210000000002 1.494714 -0.334807
1320.23046875 1.839334 1.549773 -0.289561
1320.828125 1.897708 1.542732 -0.354976
1321.4453125 1.8013219999999999 1.351648 -0.449674
1322.25 1.795 1.49 -0.305
1322.9609375 1.649164 1.339574 -0.30959
1324.1015625 1.705534 1.441694 -0.26384
1325.3515625 1.7534070000000002 1.45903 -0.294377
1326.07421875 1.885127 1.57815 -0.306977
1326.56640625 1.609796 1.264796 -0.345
1327.296875 1.679846 1.410386 -0.26946
1327.97265625 1.797221 1.498204 -0.299017
1328.85546875 1.767083 1.424947 -0.342136
1329.55078125 1.837756 1.549645 -0.288111
1330.74609375 1.675494 1.451139 -0.224355
1331.46875 1.879395 1.550306 -0.329089
1332.5234375 1.720951 1.40841 -0.312541
1333.71875 1.596035 1.374519 -0.221516
1334.3671875 1.6164830000000001 1.381483 -0.235
1335.0078125 1.6113700000000002 1.406956 -0.204414
1335.9140625 1.651618 1.429848 -0.22177
1336.64453125 1.831942 1.505296 -0.326646
1337.51953125 1.802622 1.554907 -0.247715
1338.44921875 1.776968 1.516968 -0.26
1338.875 1.8021880000000001 1.365 -0.437188
1340.18359375 1.7588300000000001 1.51 -0.24883
1340.92578125 1.780354 1.453656 -0.326698
1341.8203125 1.766613 1.438696 -0.327917
1342.578125 1.7444849999999998 1.353951 -0.390534
1344.08203125 1.6969020000000001 1.342902 -0.354
1344.76171875 1.697598 1.308817 -0.388781
1345.6484375 1.4270260000000001 1.083118 -0.343908
1346.28125 1.597704 1.19347 -0.404234
1346.953125 1.7323760000000001 1.372953 -0.359423
1348.28125 1.71906 1.400212 -0.318848
1349.58984375 1.80226 1.490739 -0.311521
1350.22265625 1.8495869999999999 1.459733 -0.389854
1351.0546875 1.712725 1.285164 -0.427561
1351.72265625 1.588541 1.18726 -0.401281
1352.35546875 1.894073 1.484832 -0.409241
1353.109375 1.732313 1.343159 -0.389154
1353.8046875 1.75438 1.220812 -0.533568
1354.50390625 1.858838 1.421706 -0.437132
1355.37109375 1.700913 1.346018 -0.354895
1356.61328125 1.4733680000000002 1.159045 -0.314323
1357.328125 1.828482 1.344193 -0.484289
1357.77734375 1.589404 1.168641 -0.420763
1358.96875 1.68743 1.337598 -0.349832
1359.73046875 1.741149 1.274872 -0.466277
1360.421875 1.792293 1.343348 -0.448945
1360.89453125 1.527745 1.144993 -0.382752
1361.73828125 1.728425 1.290608 -0.437817
1362.26171875 1.0960619999999999 0.916245 -0.179817
1363.2890625 1.67289 1.278098 -0.394792
1363.9140625 1.699397 1.257147 -0.44225
1364.796875 1.739767 1.365 -0.374767
1365.48828125 1.6880789999999999 1.214219 -0.47386
1366.25 1.676384 1.3 -0.376384
1367.51171875 1.621661 1.250728 -0.370933
1368.23046875 1.727477 1.429989 -0.297488
1368.6875 1.556262 1.145 -0.411262
1369.5234375 1.610325 1.240706 -0.369619
1370.1640625 1.7021769999999998 1.329365 -0.372812
1370.87890625 1.621943 1.262792 -0.359151
1371.625 1.657054 1.315 -0.342054
1372.3671875 1.568433 1.209603 -0.35883
1373.14453125 1.674835 1.264893 -0.409942
1373.8125 1.734439 1.374449 -0.35999
1374.765625 1.676177 1.331896 -0.344281
1375.66015625 1.666577 1.336577 -0.33
1376.37109375 1.714046 1.36913 -0.344916
1377.15234375 1.6548660000000002 1.314866 -0.34
1378.0859375 1.754949 1.41493 -0.340019
1378.82421875 1.579421 1.224421 -0.355
1379.65234375 1.6495600000000001 1.24458 -0.40498
1380.10546875 1.517455 1.16498 -0.352475
1380.97265625 1.65103 1.328887 -0.322143
1381.66796875 1.608071 1.265701 -0.34237
1382.328125 1.566648 1.151648 -0.415
1383.19921875 1.535745 1.176092 -0.359653
1384.42578125 1.548914 1.262332 -0.286582
1385.29296875 1.491657 1.131657 -0.36
1385.73828125 1.527734 1.095 -0.432734
1386.90234375 1.571711 1.289398 -0.282313
1388.1484375 1.494646 1.273728 -0.220918
1388.87890625 1.517915 1.262942 -0.254973
1389.68359375 1.503549 1.19943 -0.304119
1390.65625 1.581659 1.277094 -0.304565
1391.45703125 1.472844 1.186512 -0.286332
1392.6484375 1.526069 1.231725 -0.294344
1393.30078125 1.586394 1.288572 -0.297822
1394.50390625 1.6387049999999999 1.351869 -0.286836
1396.03515625 1.535711 1.357148 -0.178563
1396.71484375 1.597585 1.330716 -0.266869
1397.4375 1.460345 1.147273 -0.313072
1397.87109375 1.40294 1.051846 -0.351094
1398.91015625 1.55162 1.232818 -0.318802
1400.02734375 1.5021339999999999 1.124868 -0.377266
1400.93359375 1.613683 1.316437 -0.297246
1401.84375 1.607273 1.312273 -0.295
1402.4140625 0.993541 0.854869 -0.138672
1403.4609375 1.622624 1.287624 -0.335
1404.140625 1.619996 1.303741 -0.316255
1404.94921875 1.6439720000000002 1.263972 -0.38
1406.3515625 1.6748029999999998 1.379803 -0.295
1407.09765625 1.638539 1.333539 -0.305
1407.58984375 1.383097 1.147267 -0.23583
1408.50390625 1.603171 1.298171 -0.305
1409.46484375 1.705308 1.413145 -0.292163
1410.13671875 1.671081 1.290457 -0.380624
1411.109375 1.674491 1.412348 -0.262143
1412.05859375 1.591126 1.372122 -0.219004
1412.84765625 1.403908 1.160947 -0.242961
1414.01953125 1.4707910000000002 1.245791 -0.225
1414.796875 1.618376 1.421875 -0.196501
1415.51953125 1.6689699999999998 1.470297 -0.198673
1415.99609375 1.5994599999999999 1.265777 -0.333683
1416.9609375 1.624575 1.409643 -0.214932
1417.8515625 1.504541 1.326104 -0.178437
1418.29296875 1.497431 1.302431 -0.195
1419.1171875 1.6141480000000001 1.35342 -0.260728
1419.828125 1.7333310000000002 1.458773 -0.274558
1420.6953125 1.771148 1.546165 -0.224983
1421.171875 1.403054 1.261387 -0.141667
1422.0 1.6808450000000001 1.35 -0.330845
1422.71484375 1.748371 1.42 -0.328371
1423.16015625 1.51541 1.218043 -0.297367
1424.05859375 1.682642 1.38842 -0.294222
1424.81640625 1.7694020000000001 1.438889 -0.330513
1425.65625 1.757744 1.443546 -0.314198
1426.4453125 1.813604 1.411038 -0.402566
1427.29296875 1.782604 1.421288 -0.361316
1428.09765625 1.794281 1.51858 -0.275701
1428.75 1.8649390000000001 1.455 -0.409939
1429.57421875 1.883757 1.569591 -0.314166
1430.03125 1.65807 1.30725 -0.35082
1431.09765625 1.731444 1.425325 -0.306119
1432.4296875 1.7781630000000002 1.498439 -0.279724
1433.14453125 1.8721139999999998 1.489939 -0.382175
1433.9453125 1.79357 1.48357 -0.31
1434.82421875 1.782143 1.496259 -0.285884
1435.546875 1.848706 1.504256 -0.34445
1436.30078125 1.761317 1.405 -0.356317
1437.8046875 1.761466 1.49285 -0.268616
1438.76171875 1.835016 1.512275 -0.322741
1439.48046875 1.870218 1.396096 -0.474122
1440.21484375 1.776314 1.389146 -0.387168
1440.9296875 1.855319 1.465817 -0.389502
1441.6171875 1.842338 1.481837 -0.360501
1442.27734375 1.9179309999999998 1.499968 -0.417963
1442.9765625 1.89723 1.40223 -0.495
1443.44140625 1.530784 1.270784 -0.26
1444.40625 1.823773 1.454884 -0.368889
1445.12890625 1.8898190000000001 1.461025 -0.428794
1445.79296875 1.939197 1.435229 -0.503968
1447.2578125 1.806217 1.489819 -0.316398
1448.16796875 1.874513 1.544513 -0.33
1448.91796875 1.929784 1.511679 -0.418105
1449.6328125 1.9055870000000001 1.539287 -0.3663
1450.140625 1.394624 1.187257 -0.207367
1451.0390625 1.844593 1.539334 -0.305259
1451.66015625 1.922256 1.538317 -0.383939
1452.328125 1.872522 1.457522 -0.415
1452.9453125 1.842129 1.503606 -0.338523
1453.58984375 1.904023 1.542804 -0.361219
1454.6875 1.914257 1.552963 -0.361294
1455.65625 1.855231 1.503152 -0.352079
1456.33203125 1.884306 1.483538 -0.400768
1457.16796875 1.794236 1.509655 -0.284581
1457.89453125 1.890448 1.494859 -0.395589
1458.52734375 1.895053 1.459748 -0.435305
1459.24609375 1.7958660000000002 1.358189 -0.437677
1460.3359375 1.897364 1.62958 -0.267784
1461.06640625 1.913989 1.56832 -0.345669
1461.53515625 1.6551259999999999 1.225126 -0.43
1462.72265625 1.814622 1.44253 -0.372092
1464.19140625 1.863288 1.518669 -0.344619
1465.08203125 1.91143 1.368863 -0.542567
1465.71875 2.054159 1.387208 -0.666951
1466.1875 1.6541610000000002 1.064 -0.590161
1467.3828125 1.868675 1.472429 -0.396246
1468.15625 1.880374 1.403129 -0.477245
1468.8203125 1.857756 1.387375 -0.470381
1469.32421875 1.6261290000000002 1.114548 -0.511581
1470.05859375 1.722691 1.216702 -0.505989
1470.68359375 1.889986 1.382457 -0.507529
1471.32421875 1.835761 1.434587 -0.401174
1472.01953125 1.877 1.384962 -0.492038
1472.640625 1.842673 1.418253 -0.42442
1473.27734375 1.815955 1.378976 -0.436979
1473.94921875 1.821941 1.453753 -0.368188
1474.421875 1.4887139999999999 1.278714 -0.21
1475.38671875 1.520119 1.265244 -0.254875
1476.10546875 1.689413 1.379221 -0.310192
1476.89453125 1.786063 1.461063 -0.325
1477.6640625 1.783413 1.474907 -0.308506
1478.54296875 1.738626 1.368626 -0.37
1479.4140625 1.716873 1.395586 -0.321287
1480.26171875 1.689745 1.369745 -0.32
1481.0859375 1.913198 1.544843 -0.368355
1481.7578125 1.8429520000000001 1.427634 -0.415318
1482.3984375 1.918959 1.578507 -0.340452
1483.05859375 1.8124310000000001 1.469735 -0.342696
1483.9609375 1.8782489999999998 1.569737 -0.308512
1484.84765625 1.816462 1.566462 -0.25
1485.30859375 1.480693 1.325701 -0.154992
1486.3203125 1.631828 1.376936 -0.254892
1487.03515625 1.861789 1.592282 -0.269507
1487.5 1.574219 1.33 -0.244219
1488.96875 1.7826 1.6076 -0.175
1489.65625 1.763305 1.521094 -0.242211
1490.57421875 1.7586789999999999 1.491412 -0.267267
1491.2890625 1.752466 1.49944 -0.253026
1492.51171875 1.7130290000000001 1.493576 -0.219453
1493.625 1.724506 1.485 -0.239506
1494.515625 1.69 1.39 -0.3
1495.1875 1.700082 1.408949 -0.291133
1495.94140625 1.646669 1.426669 -0.22
1496.77734375 1.635902 1.405723 -0.230179
1497.48828125 1.553997 1.303997 -0.25
1498.4453125 1.54061 1.334602 -0.206008
1499.1953125 1.434973 1.216074 -0.218899
1499.87890625 1.53068 1.335212 -0.195468
1500.55859375 1.5882 1.374079 -0.214121
1501.31640625 1.5035740000000002 1.28957 -0.214004
1501.98046875 1.5193979999999998 1.27995 -0.239448
1502.53515625 1.118072 1.02 -0.098072
1503.54296875 1.453945 1.223951 -0.229994
1504.2421875 1.446837 1.143352 -0.303485
1504.97265625 1.383445 1.107876 -0.275569
1505.6484375 1.4601659999999999 1.221725 -0.238441
1506.3125 1.458916 1.230385 -0.228531
1507.42578125 1.440692 1.200692 -0.24
1508.3515625 1.450126 1.141584 -0.308542
1509.12890625 1.443905 1.229139 -0.214766
1509.9453125 1.4752239999999999 1.225312 -0.249912
1510.78515625 1.516713 1.255323 -0.26139
1511.515625 1.630768 1.415776 -0.214992
1512.02734375 1.643783 1.299849 -0.343934
1513.01953125 1.546259 1.314893 -0.231366
1513.89453125 1.569526 1.329976 -0.23955
1514.56640625 1.567561 1.287561 -0.28
1515.328125 1.58302 1.319617 -0.263403
1516.19140625 1.5794089999999998 1.169409 -0.41
1517.15625 1.5656700000000001 1.2189 -0.34677
1517.87109375 1.595833 1.25 -0.345833
1518.515625 1.770333 1.480333 -0.29
1519.33984375 1.728797 1.44424 -0.284557
1520.34765625 1.749403 1.506278 -0.243125
1521.03125 1.7743049999999998 1.524312 -0.249993
1522.01953125 1.728743 1.414915 -0.313828
1522.94140625 1.53906 1.259841 -0.279219
1523.64453125 1.513936 1.204893 -0.309043
1524.3984375 1.4768979999999998 1.138998 -0.3379
1525.0546875 1.50258 1.17258 -0.33
1525.7890625 1.469685 1.153295 -0.31639
1526.6328125 1.57457 1.26 -0.31457
1527.328125 1.659089 1.29447 -0.364619
1528.44140625 1.631146 1.298802 -0.332344
1529.22265625 1.558194 1.224398 -0.333796
1529.6953125 1.511491 1.13707 -0.374421
1531.1328125 1.577135 1.2 -0.377135
1531.796875 1.559272 1.199272 -0.36
1532.2421875 1.562584 1.143383 -0.419201
1533.2734375 1.410554 1.091665 -0.318889
1534.0703125 1.5811410000000001 1.195071 -0.38607
1534.921875 1.568229 1.183229 -0.385
1535.6328125 1.651732 1.217586 -0.434146
1536.78515625 1.567979 1.167937 -0.400042
1537.51171875 1.7355260000000001 1.305984 -0.429542
1538.63671875 1.7178309999999999 1.350995 -0.366836
1539.45703125 1.6553360000000001 1.250464 -0.404872
1539.9453125 1.631685 1.2 -0.431685
1540.8515625 1.7319120000000001 1.336912 -0.395
1541.73828125 1.725669 1.400669 -0.325
1542.3828125 1.841847 1.497941 -0.343906
1543.13671875 1.6611 1.26153 -0.39957
1543.7890625 1.829289 1.398426 -0.430863
1544.6484375 1.779992 1.41298 -0.367012
1545.359375 1.858291 1.454388 -0.403903
1546.171875 1.649458 1.259458 -0.39
1547.0703125 1.786799 1.442584 -0.344215
1547.7578125 1.8605649999999998 1.447315 -0.41325
1548.44140625 1.790827 1.305877 -0.48495
1549.2578125 1.781078 1.291078 -0.49
1549.8984375 1.752588 1.238264 -0.514324
1550.58984375 1.656677 1.213067 -0.44361
1551.5078125 1.8287390000000001 1.385 -0.443739
1552.35546875 1.6608349999999998 1.250835 -0.41
1553.0859375 1.731757 1.311646 -0.420111
1554.1953125 1.7705250000000001 1.456072 -0.314453
1555.0 1.71 1.35 -0.36
1555.43359375 1.647341 1.215 -0.432341
1556.43359375 1.742819 1.348812 -0.394007
1557.16015625 1.874971 1.435811 -0.43916
1557.88671875 1.774637 1.377577 -0.39706
1558.7734375 1.859887 1.459887 -0.4
1559.578125 1.7890030000000001 1.355 -0.434003
1560.05859375 1.7799489999999998 1.304949 -0.475
1560.87109375 1.927396 1.619606 -0.30779
1562.07421875 1.966965 1.633281 -0.333684
1562.76171875 1.980556 1.611902 -0.368654
1563.42578125 1.916859 1.483212 -0.433647
1564.2890625 1.787368 1.35399 -0.433378
1565.6796875 1.658458 1.355668 -0.30279
1566.37109375 1.978436 1.590977 -0.387459
1566.9921875 1.9465910000000002 1.623933 -0.322658
1567.5078125 1.6100560000000002 1.185 -0.425056
1568.2421875 1.7763589999999998 1.386359 -0.39
1569.04296875 1.756389 1.356911 -0.399478
1569.78515625 1.849715 1.500534 -0.349181
1570.671875 1.842901 1.48214 -0.360761
1571.3515625 1.8063379999999998 1.436338 -0.37
1572.23046875 1.76993 1.33493 -0.435
1572.875 1.9302069999999998 1.525 -0.405207
1573.49609375 1.859137 1.496759 -0.362378
1574.109375 1.799026 1.414917 -0.384109
1574.5546875 1.765673 1.242879 -0.522794
1575.42578125 1.813746 1.406047 -0.407699
1576.7109375 1.742515 1.354429 -0.388086
1577.86328125 1.7742710000000002 1.406298 -0.367973
1578.90234375 1.844111 1.488243 -0.355868
1579.58984375 1.94549 1.511561 -0.433929
1580.20703125 1.954396 1.479432 -0.474964
1580.9296875 1.862922 1.35835 -0.504572
1581.73828125 1.857521 1.374959 -0.482562
1582.41796875 1.966876 1.418378 -0.548498
1583.08984375 1.926325 1.436611 -0.489714
1583.85546875 1.820298 1.290298 -0.53
1584.7578125 1.8936000000000002 1.409812 -0.483788
1585.453125 1.935089 1.432332 -0.502757
1586.125 1.944966 1.45 -0.494966
1587.29296875 1.9114200000000001 1.49642 -0.415
1588.3046875 1.947966 1.499095 -0.448871
1589.09375 1.8717389999999998 1.342614 -0.529125
1589.8203125 1.851096 1.342198 -0.508898
1590.55859375 1.843502 1.359953 -0.483549
1591.18359375 1.91893 1.43968 -0.47925
1591.60546875 1.747442 1.180485 -0.566957
1592.48046875 1.83293 1.34486 -0.48807
1593.17578125 1.87275 1.337321 -0.535429
1593.890625 1.862726 1.357706 -0.50502
1594.6796875 1.81667 1.362589 -0.454081
1595.4296875 1.762057 1.33502 -0.427037
1596.53125 1.772374 1.400472 -0.371902
1597.20703125 1.899442 1.382118 -0.517324
1598.0234375 1.75115 1.261393 -0.489757
1598.76171875 1.849882 1.365199 -0.484683
1599.484375 1.7713139999999998 1.314263 -0.457051
1600.3828125 1.7464279999999999 1.339397 -0.407031
1601.80859375 1.7630759999999999 1.433905 -0.329171
1602.671875 1.802368 1.368459 -0.433909
1603.2890625 1.749156 1.274328 -0.474828
1603.953125 1.8094899999999998 1.266141 -0.543349
1604.57421875 1.7982079999999998 1.350234 -0.447974
1605.23828125 1.816634 1.347151 -0.469483
1605.8984375 1.825342 1.383025 -0.442317
1606.83203125 1.764302 1.354389 -0.409913
1607.5234375 1.6515790000000001 1.272968 -0.378611
1608.1640625 1.796532 1.41498 -0.381552
1608.80078125 1.812937 1.395357 -0.41758
1609.48828125 1.767093 1.354985 -0.412108
1610.25390625 1.564506 1.190194 -0.374312
1610.95703125 1.676806 1.241907 -0.434899
1612.0078125 1.7620200000000001 1.454287 -0.307733
1613.29296875 1.5802649999999998 1.335265 -0.245
1613.9765625 1.586578 1.256578 -0.33
1614.62109375 1.61776 1.297811 -0.319949
1615.24609375 1.639742 1.355398 -0.284344
1616.08984375 1.639119 1.343426 -0.295693
1616.8046875 1.551839 1.236937 -0.314902
1617.67578125 1.554802 1.283011 -0.271791
1618.41796875 1.641578 1.381974 -0.259604
1619.0859375 1.6000269999999999 1.335583 -0.264444
1619.71875 1.5795089999999998 1.229661 -0.349848
1620.3359375 1.456206 1.054538 -0.401668
1620.92578125 1.444221 1.069585 -0.374636
1621.36328125 1.52475 1.09973 -0.42502
1622.29296875 1.612444 1.263828 -0.348616
1623.203125 1.452894 1.093359 -0.359535
1624.44921875 1.447741 1.159543 -0.288198
1625.14453125 1.492378 1.14605 -0.346328
1625.640625 1.271247 0.979121 -0.292126
1626.34765625 1.402045 0.931305 -0.47074
1626.94140625 1.155935 0.779479 -0.376456
1627.53125 1.415924 1.064119 -0.351805
1628.16015625 1.4038899999999999 1.022209 -0.381681
1628.80078125 1.313851 0.959543 -0.354308
1629.27734375 1.281035 1.116282 -0.164753
1630.34765625 1.415877 1.125877 -0.29
1630.9921875 1.3328510000000002 1.023192 -0.309659
1631.65625 1.289159 0.960302 -0.328857
1632.35546875 1.3791470000000001 1.084275 -0.294872
1633.25390625 1.124043 0.934099 -0.189944
1633.9375 1.354008 1.161 -0.193008
1635.0234375 1.4061089999999998 1.24138 -0.164729
1635.7578125 1.404736 1.241956 -0.16278
1636.23046875 1.387121 1.175381 -0.21174
1637.26953125 1.355868 1.124935 -0.230933
1637.99609375 1.464809 1.194809 -0.27
1638.8046875 1.458543 1.264392 -0.194151
1639.5 1.3800000000000001 1.165 -0.215
1640.59765625 1.3976970000000002 1.183191 -0.214506
1641.40625 0.801906 0.61745 -0.184456
1641.890625 1.3781670000000001 1.297314 -0.080853
1642.9765625 1.352418 1.136717 -0.215701
1643.60546875 1.365017 1.159322 -0.205695
1644.2265625 1.4968409999999999 1.290697 -0.206144
1644.93359375 1.380516 1.155853 -0.224663
1645.65625 1.387875 1.159312 -0.228563
1646.74609375 1.273509 1.063906 -0.209603
1647.47265625 0.674692 0.449692 -0.225
1647.94140625 1.3902279999999998 1.265637 -0.124591
1648.8671875 1.563905 1.293905 -0.27
1649.5078125 1.2698049999999999 0.975255 -0.29455
1650.1328125 1.527469 1.188125 -0.339344
1650.8203125 1.5838990000000002 1.29 -0.293899
1651.4609375 1.6573630000000001 1.372843 -0.28452
1652.11328125 1.548678 1.271881 -0.276797
1652.77734375 1.494499 1.187564 -0.306935
1654.03125 1.08383 0.86966 -0.21417
1654.8515625 1.561973 1.332167 -0.229806
1655.5 1.54279 1.36 -0.18279
1656.2421875 1.7027450000000002 1.4971 -0.205645
1656.90625 1.7143259999999998 1.479326 -0.235
1657.7734375 1.7017369999999998 1.472187 -0.22955
1658.5703125 1.694196 1.476648 -0.217548
1659.25390625 1.748982 1.505597 -0.243385
1660.1796875 1.710581 1.431724 -0.278857
1661.06640625 1.712483 1.442483 -0.27
1661.8125 1.6579419999999998 1.407949 -0.249993
1662.5625 1.773679 1.588693 -0.184986
1663.23046875 1.59422 1.33422 -0.26
1663.83984375 1.904937 1.608416 -0.296521
1664.4765625 1.779006 1.439006 -0.34
1665.20703125 1.871937 1.506997 -0.36494
1666.0234375 1.88819 1.533272 -0.354918
1666.7421875 1.750856 1.511557 -0.239299
1667.4921875 1.635044 1.401502 -0.233542
1668.14453125 1.629778 1.319803 -0.309975
1668.87890625 1.446015 1.076262 -0.369753
1669.25390625 1.0361239999999998 -0.157121 -1.193245
1670.21875 1.545536 1.080536 -0.465
1670.9375 1.50869 1.05369 -0.455
1671.8359375 1.50518 1.133659 -0.371521
1672.5078125 1.606055 1.241348 -0.364707
1673.2109375 1.6290930000000001 1.214474 -0.414619
1673.8359375 1.5733629999999998 1.184443 -0.38892
1674.46875 0.788415 0.487237 -0.301178
1675.1171875 1.7334 1.399265 -0.334135
1675.78515625 1.7618530000000001 1.398689 -0.363164
1676.95703125 1.863552 1.498552 -0.365
1677.6953125 1.682044 1.317207 -0.364837
1678.41796875 1.5674 1.177358 -0.390042
1679.08984375 1.4316520000000001 1.072648 -0.359004
1679.8125 1.737087 1.397372 -0.339715
1680.51953125 1.834152 1.504152 -0.33
1681.1640625 0.97769 0.71993 -0.25776
1681.8125 1.795269 1.500269 -0.295
1682.5859375 1.824228 1.534228 -0.29
1683.27734375 1.779152 1.445148 -0.334004
1684.17578125 1.475408 1.196682 -0.278726
1684.8984375 1.8079359999999998 1.490927 -0.317009
1685.546875 1.7661419999999999 1.431142 -0.335
1686.15234375 1.31923 0.900843 -0.418387
1686.8671875 1.818882 1.419618 -0.399264
1687.5703125 1.78931 1.435 -0.35431
1688.234375 1.909301 1.524659 -0.384642
1689.31640625 1.458066 1.083989 -0.374077
1689.99609375 1.894472 1.528004 -0.366468
1690.65625 1.8715190000000002 1.515068 -0.356451
1691.34765625 1.843 1.461401 -0.381599
1692.21875 1.821753 1.445873 -0.37588
1692.9921875 1.7616999999999998 1.502441 -0.259259
1693.6796875 1.044686 0.860266 -0.18442
1694.14453125 1.355744 0.954994 -0.40075
1695.12109375 1.789573 1.619618 -0.169955
1695.9296875 1.845861 1.635799 -0.210062
1696.63671875 0.957266 0.745 -0.212266
1697.41015625 1.7042869999999999 1.442153 -0.262134
1698.34375 1.759933 1.515518 -0.244415
1699.45703125 1.7457500000000001 1.550359 -0.195391
1700.40625 1.786325 1.576325 -0.21
1701.125 1.284865 1.025 -0.259865
1701.92578125 1.799661 1.524908 -0.274753
1702.8046875 1.760821 1.457657 -0.303164
1703.453125 1.127971 0.743085 -0.384886
1704.09375 1.8465699999999998 1.464214 -0.382356
1704.703125 1.948973 1.484618 -0.464355
1705.38671875 1.3540640000000002 0.934158 -0.419906
1706.578125 1.799064 1.434533 -0.364531
1707.3125 1.808373 1.358417 -0.449956
1708.12890625 1.732532 1.283539 -0.448993
1708.8671875 1.824136 1.314136 -0.51
1710.39453125 1.741102 1.304983 -0.436119
1711.50390625 1.799954 1.368616 -0.431338
1712.2421875 1.392015 1.056195 -0.33582
1713.25 1.8089979999999999 1.505 -0.303998
1714.578125 1.42991 1.084512 -0.345398
1715.8125 1.888111 1.63847 -0.249641
1716.484375 1.928543 1.644199 -0.284344
1717.140625 1.855108 1.595108 -0.26
1718.16015625 1.839966 1.634109 -0.205857
1718.85546875 1.740602 1.534909 -0.205693
1719.34765625 1.453954 1.37865 -0.075304
1720.359375 1.8093119999999998 1.659312 -0.15
1721.296875 1.769142 1.586525 -0.182617
1721.91015625 1.863063 1.623948 -0.239115
1722.5546875 1.383339 1.175585 -0.207754
1723.17578125 1.407229 1.13074 -0.276489
1723.75 1.764811 1.51 -0.254811
1724.59375 1.8063779999999998 1.555462 -0.250916
1725.3203125 1.8082859999999998 1.51138 -0.296906
1725.97265625 1.8018830000000001 1.469103 -0.33278
1727.19140625 1.770406 1.428181 -0.342225
1727.875 1.710295 1.355 -0.355295
1728.5390625 1.750589 1.395589 -0.355
1729.73828125 1.725488 1.400488 -0.325
1730.4453125 1.750455 1.396792 -0.353663
1730.88671875 1.474387 1.234387 -0.24
1731.796875 1.599318 1.322866 -0.276452
1732.67578125 1.6464180000000002 1.42151 -0.224908
1733.4765625 1.650007 1.36568 -0.284327
1734.29296875 1.621966 1.296966 -0.325
1734.94140625 1.6945279999999998 1.408694 -0.285834
1735.625 1.649734 1.39 -0.259734
1736.40234375 1.5919459999999999 1.354385 -0.237561
1737.1328125 1.497773 1.22871 -0.269063
1737.9453125 1.537509 1.260673 -0.276836
1739.27734375 1.547116 1.286387 -0.260729
1740.13671875 1.512909 1.234003 -0.278906
1741.0 1.422025 1.185 -0.237025
1741.640625 1.549235 1.269271 -0.279964
1742.8046875 1.426746 1.135666 -0.29108
1743.5625 1.4601650000000002 1.105266 -0.354899
1744.52734375 1.4222320000000002 1.063155 -0.359077
1745.19140625 1.431159 1.044396 -0.386763
1745.9140625 1.325376 0.889615 -0.435761
1746.5703125 1.3637160000000002 0.932783 -0.430933
1747.30078125 1.43019 1.02911 -0.40108
1748.0234375 1.386218 1.0 -0.386218
1748.765625 1.325391 0.934229 -0.391162
1749.484375 1.3060640000000001 0.985703 -0.320361
1750.4296875 1.260595 0.935673 -0.324922
1751.23046875 0.9743539999999999 0.699979 -0.274375
1751.90625 1.3666500000000001 1.011667 -0.354983
1752.7109375 1.336114 1.093996 -0.242118
1753.6015625 1.5045309999999998 1.305 -0.199531
1754.234375 1.424223 1.281445 -0.142778
1754.92578125 1.45 1.3 -0.15
1755.76953125 1.3899489999999999 1.244959 -0.14499
1756.51953125 1.408195 1.249914 -0.158281
1757.3828125 1.0565419999999999 0.903758 -0.152784
1758.046875 1.353623 1.229038 -0.124585
1758.73828125 1.350852 1.262584 -0.088268
1759.484375 1.37334 1.269902 -0.103438
1760.32421875 1.3438970000000001 1.174125 -0.169772
1760.984375 1.358139 1.169681 -0.188458
1762.03125 1.4830649999999999 1.283491 -0.199574
1762.9921875 1.428716 1.204361 -0.224355
1763.671875 1.374355 1.142866 -0.231489
1764.12890625 1.464793 1.150329 -0.314464
1765.26171875 1.362908 0.992908 -0.37
1766.390625 1.4280719999999998 1.14 -0.288072
1767.08203125 1.460192 1.145246 -0.314946
1767.828125 1.414725 1.104725 -0.31
1768.484375 1.458579 1.153826 -0.304753
1769.296875 1.4000620000000001 1.070062 -0.33
1770.65234375 1.504918 1.165433 -0.339485
1771.39453125 1.18407 0.824275 -0.359795
1772.2890625 1.539803 1.229803 -0.31
1772.96484375 1.4815170000000002 1.174813 -0.306704
1773.671875 1.567102 1.212794 -0.354308
1774.4140625 1.6356860000000002 1.309792 -0.325894
1775.38671875 1.6438769999999998 1.378877 -0.265
1776.52734375 1.5901260000000002 1.290126 -0.3
1777.3671875 1.56604 1.286321 -0.279719
1777.9765625 1.687719 1.297871 -0.389848
1778.625 1.583144 1.205 -0.378144
1779.3828125 1.621726 1.148619 -0.473107
1780.1875 1.587714 1.142714 -0.445
1781.01171875 1.628258 1.23889 -0.389368
1781.77734375 1.6194 1.231685 -0.387715
1782.46875 1.676782 1.231978 -0.444804
1783.29296875 1.641982 1.216982 -0.425
1784.07421875 1.678287 1.244923 -0.433364
1785.17578125 1.716927 1.359992 -0.356935
1786.03515625 1.654298 1.229713 -0.424585
1786.8515625 1.709179 1.284179 -0.425
1787.69140625 1.733072 1.364319 -0.368753
1788.47265625 1.68465 1.26465 -0.42
1789.15234375 1.823216 1.402467 -0.420749
1789.76953125 1.819263 1.369471 -0.449792
1790.4140625 1.6961760000000001 1.298051 -0.398125
1791.08984375 1.6480430000000001 1.280555 -0.367488
1791.81640625 1.876781 1.408982 -0.467799
1792.54296875 1.840355 1.407602 -0.432753
1793.34765625 1.8087469999999999 1.437433 -0.371314
1793.98828125 1.789618 1.389985 -0.399633
1794.66015625 1.781715 1.411811 -0.369904
1795.3671875 1.84104 1.430085 -0.410955
1796.21484375 1.7478250000000002 1.465761 -0.282064
1797.4140625 1.670586 1.3995 -0.271086
1798.11328125 1.827019 1.387591 -0.439428
1798.84765625 1.779201 1.402557 -0.376644
1799.91015625 1.854937 1.504937 -0.35
1800.80859375 1.782569 1.357876 -0.424693
1801.4921875 1.738212 1.25631 -0.481902
1802.12109375 1.8411939999999998 1.301656 -0.539538
1802.73046875 1.884906 1.389848 -0.495058
1803.4375 1.752424 1.287424 -0.465
1804.25390625 1.658087 1.211853 -0.446234
