72 
280 
485 
692 
917 
1137 
1348 
1555 
1759 
1967 
2174 
2388 
2614 
2832 
3039 
3245 
3449 
3661 
3876 
4091 
4315 
4526 
4728 
4932 
5139 
5357 
5576 
5791 
6014 
6221 
6419 
6626 
6837 
7058 
7275 
7486 
7701 
7905 
8106 
8316 
8535 
8757 
8972 
9181 
9392 
9597 
9800 
10014 
10235 
10455 
10665 
10869 
11081 
11288 
11497 
11716 
11938 
12154 
12357 
12561 
12775 
12984 
13196 
13414 
13631 
13841 
14044 
14251 
14466 
14683 
14897 
15113 
15326 
15532 
15735 
15942 
16163 
16380 
16594 
16805 
17016 
17222 
17427 
17642 
17865 
18081 
18290 
18495 
18703 
18910 
19117 
19339 
19560 
19773 
19981 
20185 
20396 
20601 
20816 
21021 
21234 
21435 
21632 
21829 
22030 
22236 
22447 
22657 
22870 
23073 
23264 
23460 
23664 
23876 
24080 
24204 
24433 
24641 
24842 
25047 
25259 
25481 
25698 
25910 
26126 
26331 
26532 
26741 
26957 
27180 
27393 
27594 
27813 
28004 
28205 
28414 
28629 
28849 
29056 
29253 
29460 
29662 
29862 
30077 
30291 
30504 
30708 
30906 
31109 
31314 
31524 
31737 
31947 
32159 
32357 
32554 
32760 
32967 
33180 
33392 
33599 
33807 
34007 
34202 
34407 
34623 
34833 
35039 
35243 
35441 
35644 
35840 
36040 
36262 
36475 
36677 
36880 
37078 
37278 
37479 
37683 
37901 
38112 
38310 
38510 
38706 
38907 
39111 
39321 
39536 
39745 
39945 
40142 
40336 
40544 
40753 
40961 
41175 
41384 
41580 
41775 
41973 
42180 
42395 
42605 
42811 
43019 
43216 
43409 
43612 
43824 
44038 
44247 
44452 
44665 
44870 
45073 
45286 
45507 
45729 
45941 
46145 
46356 
46563 
46767 
46983 
47204 
47422 
47627 
47832 
48045 
48254 
48467 
48685 
48905 
49115 
49317 
49523 
49734 
49947 
50163 
50379 
50595 
50803 
51006 
51215 
51433 
51649 
51864 
52077 
52287 
52492 
52695 
52909 
53131 
53346 
53560 
53768 
53977 
54182 
54389 
54610 
54830 
55043 
55252 
55457 
55665 
55872 
56084 
56309 
56528 
56738 
56945 
57149 
57360 
57572 
57787 
58010 
58225 
58427 
58632 
58838 
59055 
59272 
59487 
59710 
59920 
60120 
60326 
60535 
60755 
60971 
61184 
61400 
61607 
61808 
62017 
62234 
62457 
62673 
62882 
63093 
63299 
63501 
63713 
63931 
64155 
64365 
64568 
64781 
64989 
65196 
65414 
65632 
65852 
66057 
66258 
66470 
66678 
66890 
67108 
67326 
67539 
67744 
67947 
68162 
68377 
68591 
68807 
69021 
69229 
69431 
69636 
69855 
70075 
70287 
70500 
70711 
70917 
71121 
71333 
71556 
71772 
71984 
72190 
72397 
72603 
72810 
73029 
73251 
73466 
73676 
73881 
74089 
74297 
74510 
74731 
74951 
75160 
75364 
75567 
75778 
75992 
76209 
76431 
76648 
76852 
77054 
77260 
77475 
77691 
77906 
78127 
78335 
78537 
78743 
78952 
79175 
79393 
79606 
79822 
80028 
80229 
80437 
80650 
80874 
81091 
81298 
81510 
81718 
81921 
82136 
82355 
82577 
82789 
82991 
83202 
83409 
83616 
83833 
84052 
84270 
84477 
84679 
84892 
85103 
85317 
85534 
85751 
85965 
86168 
86369 
86583 
86798 
87014 
87231 
87444 
87656 
87858 
88062 
88283 
88500 
88713 
88925 
89132 
89339 
89543 
89752 
89977 
90195 
90407 
90616 
90823 
91030 
91237 
91453 
91677 
91892 
92098 
92302 
92509 
92718 
92932 
93152 
93376 
93588 
93789 
93992 
94202 
94416 
94630 
94851 
95069 
95273 
95474 
95680 
95895 
96114 
96330 
96548 
96760 
96961 
97164 
97372 
97592 
97812 
98026 
98239 
98447 
98650 
98857 
99073 
99298 
99515 
99723 
99933 
100140 
100342 
100553 
100771 
100993 
101206 
101410 
101621 
101828 
102037 
102256 
102474 
102694 
102900 
103100 
103311 
103521 
103734 
103954 
104171 
104388 
104592 
104792 
105008 
105224 
105438 
105656 
105868 
106077 
106279 
106482 
106702 
106923 
107137 
107351 
107560 
107768 
107971 
108179 
108404 
108622 
108833 
109040 
109244 
109453 
109661 
109876 
110103 
110320 
110527 
110730 
110936 
111148 
111360 
111577 
111801 
112012 
112211 
112415 
112625 
112839 
113057 
113277 
113495 
113699 
113900 
114106 
114321 
114538 
114753 
114971 
115182 
115385 
115589 
115798 
116021 
116240 
116453 
116667 
116874 
117076 
117281 
117494 
117718 
117935 
118142 
118355 
118563 
118767 
118980 
119198 
119419 
119631 
119834 
120044 
120251 
120457 
120675 
120893 
121114 
121322 
121524 
121736 
121947 
122159 
122378 
122594 
122809 
123012 
123213 
123427 
123642 
123856 
124074 
124288 
124498 
124702 
124904 
125124 
125341 
125555 
125769 
125976 
126183 
126387 
126597 
126822 
127041 
127253 
127463 
127669 
127876 
128083 
128297 
128523 
128740 
128945 
129149 
129356 
129566 
129778 
130000 
130224 
130435 
130637 
130841 
131050 
131262 
131477 
131697 
131915 
132120 
132323 
132529 
132744 
132963 
133179 
133398 
133609 
133810 
134013 
134221 
134441 
134660 
134874 
135089 
135297 
135499 
135706 
135921 
136144 
136361 
136568 
136780 
136985 
137187 
137399 
137617 
137840 
138053 
138257 
138469 
138676 
138884 
139101 
139319 
139540 
139746 
139945 
140157 
140367 
140579 
140798 
141015 
141231 
141435 
141637 
141851 
142066 
142279 
142496 
142709 
142917 
143120 
143325 
143544 
143762 
143976 
144190 
144401 
144608 
144811 
145022 
145244 
145461 
145673 
145880 
146088 
146296 
146503 
146721 
146946 
147161 
147369 
147573 
147716 
147931 
148142 
148358 
148583 
148796 
148999 
149204 
149413 
149626 
149841 
150061 
150282 
150491 
150691 
150894 
151106 
151322 
151538 
151757 
151974 
152179 
152381 
152587 
152806 
153026 
153240 
153456 
153666 
153867 
154071 
154281 
154503 
154722 
154934 
155147 
155354 
155557 
155767 
155984 
156206 
156422 
156628 
156836 
157042 
157247 
157463 
157683 
157905 
158116 
158319 
158529 
158738 
158948 
159166 
159383 
159599 
159803 
160003 
160217 
160429 
160645 
160865 
161080 
161292 
161493 
161695 
161912 
162129 
162343 
162559 
162768 
162976 
163180 
163385 
163609 
163830 
164041 
164252 
164459 
164667 
164870 
165083 
165309 
165525 
165733 
165939 
166146 
166354 
166564 
166785 
167008 
167221 
167425 
167628 
167835 
168047 
168261 
168481 
168702 
168909 
169113 
169318 
169531 
169749 
169964 
170184 
170399 
170600 
170802 
171008 
171224 
171444 
171659 
171877 
172086 
172288 
172495 
172707 
172930 
173147 
173359 
173570 
173775 
173978 
174188 
174405 
174629 
174846 
175052 
175263 
175470 
175674 
175890 
176108 
176330 
176539 
176739 
176952 
177160 
177369 
177590 
177809 
178026 
178231 
178431 
178644 
178857 
179071 
179288 
179503 
179714 
179916 
180119 
180337 
180554 
180771 
180985 
181197 
181406 
181607 
181814 
182036 
182254 
182464 
182674 
182882 
183090 
183295 
183509 
183735 
183951 
184160 
184365 
184573 
184780 
184989 
185208 
185430 
185644 
185850 
186054 
186264 
186476 
186690 
186911 
187131 
187338 
187540 
187743 
187956 
188170 
188384 
188607 
188822 
189025 
189231 
189437 
189655 
189872 
190086 
190305 
190512 
190712 
190918 
191128 
191352 
191570 
191783 
191997 
192204 
192406 
192616 
192832 
193056 
193271 
193476 
193687 
193892 
194095 
194311 
194531 
194752 
194963 
195166 
195378 
195584 
195793 
196011 
196229 
196446 
196650 
196853 
197066 
197278 
197493 
197711 
197930 
198140 
198343 
198546 
198763 
198980 
199192 
199408 
199620 
199827 
200030 
200239 
200461 
200680 
200892 
201104 
201312 
201517 
201721 
201936 
202158 
202375 
202586 
202791 
203001 
203208 
203418 
203640 
203861 
204073 
204280 
204482 
204692 
204902 
205114 
205337 
205557 
205763 
205969 
206174 
206387 
206601 
206815 
207039 
207251 
207452 
207657 
207863 
208080 
208297 
208512 
208733 
208941 
209143 
209349 
209561 
209783 
209999 
210210 
210426 
210631 
210830 
211039 
211257 
211480 
211695 
211904 
212117 
212321 
212523 
212737 
212958 
213176 
213386 
213591 
213801 
214006 
214216 
214435 
214658 
214873 
215079 
215284 
215494 
215703 
215917 
216135 
216355 
216564 
216766 
216975 
217188 
217402 
217620 
217836 
218051 
218254 
218455 
218668 
218884 
219099 
219317 
219528 
219739 
219944 
220147 
220367 
220588 
220802 
221016 
221222 
221430 
221635 
221841 
222066 
222287 
222498 
222708 
222913 
223124 
223331 
223545 
223772 
223988 
224194 
224398 
224602 
224813 
225025 
225241 
225467 
225679 
225882 
226087 
226294 
226511 
226728 
226944 
227164 
227369 
227569 
227773 
227987 
228209 
228427 
228642 
228856 
229060 
229260 
229468 
229689 
229907 
230121 
230334 
230541 
230743 
230949 
231164 
231389 
231607 
231816 
232025 
232231 
232436 
232648 
232865 
233088 
233301 
233503 
233712 
233923 
234131 
234350 
234568 
234788 
234994 
235194 
235406 
235617 
235830 
236048 
236264 
236478 
236681 
236883 
237099 
237315 
237530 
237747 
237958 
238167 
238371 
238574 
238794 
239012 
239227 
239440 
239648 
239859 
240063 
240273 
240498 
240715 
240924 
241131 
241337 
241544 
241752 
241968 
242192 
242408 
242616 
242822 
243030 
243239 
243452 
243672 
243893 
244104 
244306 
244509 
244720 
244934 
245151 
245372 
245591 
245795 
245999 
246203 
246419 
246636 
246850 
247071 
247281 
247482 
247686 
247896 
248118 
248336 
248549 
248766 
248972 
249173 
249380 
249595 
249818 
250033 
250241 
250452 
250659 
250863 
251077 
251297 
251521 
251732 
251934 
252146 
252352 
252558 
252775 
252993 
253212 
253418 
253621 
253833 
254042 
254255 
254474 
254692 
254905 
255108 
255310 
255524 
255738 
255952 
256169 
256385 
256593 
256796 
257003 
257222 
257441 
257653 
257865 
258076 
258281 
258483 
258696 
258918 
259135 
259348 
259557 
259766 
259971 
260177 
260397 
260617 
260831 
261041 
261244 
261453 
261660 
261871 
262096 
262316 
262525 
262732 
262936 
263148 
263360 
263574 
263798 
264014 
264215 
264420 
264625 
264840 
265058 
265273 
265497 
265706 
265906 
266111 
266320 
266542 
266757 
266970 
267188 
267393 
267594 
267803 
268019 
268243 
268459 
268667 
268881 
269086 
269286 
269498 
269718 
269939 
270149 
270356 
270569 
270775 
270982 
271200 
271420 
271638 
271844 
272048 
272258 
272466 
272678 
272895 
273115 
273328 
273532 
273739 
273951 
274164 
274380 
274595 
274813 
275019 
275220 
275429 
275644 
275860 
276077 
276291 
276503 
276708 
276910 
277126 
277345 
277559 
277775 
277984 
278192 
278394 
278600 
278822 
279043 
279258 
279470 
279675 
279884 
280089 
280299 
280526 
280744 
280952 
281156 
281360 
281572 
281781 
281998 
282226 
282440 
282642 
282846 
283052 
283265 
283480 
283697 
283919 
284127 
284327 
284531 
284743 
284963 
285182 
285398 
285614 
285818 
286018 
286224 
286442 
286663 
286877 
287091 
287301 
287504 
287708 
287921 
288144 
288362 
288574 
288784 
288990 
289192 
289403 
289619 
289842 
290058 
290264 
290474 
290681 
290887 
291105 
291324 
291544 
291754 
291955 
292164 
292374 
292584 
292803 
293022 
293239 
293444 
293645 
293859 
294072 
294288 
294506 
294719 
294929 
295130 
295333 
295551 
295769 
295985 
296202 
296411 
296620 
296823 
297029 
297253 
297471 
297683 
297892 
298099 
298306 
298512 
298725 
298952 
299169 
299376 
299582 
299789 
299996 
300207 
300426 
300648 
300860 
301064 
301267 
301478 
301689 
301904 
302127 
302346 
302552 
302756 
302959 
303172 
303389 
303602 
303824 
304038 
304239 
304444 
304652 
304872 
305090 
305302 
305522 
305729 
305930 
306135 
306348 
306569 
306785 
306996 
307211 
307416 
307619 
307829 
308047 
308270 
308485 
308691 
308901 
309106 
309311 
309526 
309745 
309968 
310177 
310381 
310593 
310799 
311008 
311226 
311445 
311659 
311863 
312067 
312279 
312489 
312704 
312924 
313142 
313351 
313554 
313761 
313975 
314192 
314407 
314622 
314835 
315040 
315242 
315453 
315674 
315891 
316107 
316318 
316528 
316732 
316935 
317155 
317376 
317589 
317801 
318007 
318215 
318421 
318630 
318855 
319076 
319287 
319494 
319698 
319908 
320116 
320330 
320555 
320772 
320978 
321182 
321387 
321602 
321816 
322032 
322257 
322468 
322668 
322870 
323078 
323294 
323511 
323727 
323947 
324152 
324353 
324559 
324774 
324995 
325211 
325426 
325638 
325839 
326042 
326251 
326472 
326693 
326907 
327118 
327327 
327531 
327738 
327953 
328176 
328391 
328599 
328809 
329015 
329219 
329432 
329651 
329874 
330086 
330288 
330500 
330707 
330915 
331134 
331351 
331569 
331776 
331976 
332188 
332399 
332613 
332833 
333050 
333264 
333468 
333669 
333885 
334101 
334313 
334529 
334741 
334949 
335152 
335358 
335579 
335797 
336012 
336224 
336433 
336640 
336843 
337056 
337278 
337495 
337707 
337913 
338121 
338329 
338538 
338757 
338982 
339196 
339402 
339606 
339814 
340022 
340235 
340457 
340677 
340886 
341091 
341296 
341508 
341722 
341937 
342160 
342374 
342577 
342781 
342987 
343203 
343419 
343633 
343856 
344064 
344267 
344473 
344683 
344906 
345122 
345333 
345550 
345755 
345954 
346161 
346378 
346600 
346816 
347026 
347239 
347443 
347645 
347857 
348079 
348298 
348508 
348714 
348923 
349128 
349337 
349554 
349778 
349995 
350200 
350406 
350615 
350823 
351037 
351255 
351475 
351685 
351884 
352094 
352306 
352519 
352739 
352956 
353171 
353375 
353576 
353788 
354003 
354218 
354436 
354649 
354859 
355063 
355266 
355486 
355705 
355921 
356134 
356342 
356551 
356753 
356960 
357185 
357403 
357613 
357823 
358029 
358238 
358445 
358659 
358885 
359100 
359308 
359513 
359719 
359927 
360139 
360357 
360580 
360794 
360997 
361201 
361346 
361561 
361775 
361990 
362214 
362424 
362624 
362827 
363038 
363256 
363472 
363690 
363910 
364115 
364316 
364521 
364737 
364957 
365171 
365387 
365596 
365798 
366002 
366213 
366435 
366655 
366869 
367080 
367288 
367490 
367699 
367915 
368138 
368354 
368560 
368769 
368976 
369181 
369396 
369616 
369838 
370049 
370250 
370462 
370668 
370876 
371095 
371313 
371530 
371735 
371936 
372150 
372362 
372577 
372794 
373012 
373223 
373425 
373628 
373843 
374060 
374272 
374487 
374702 
374908 
375111 
375322 
375541 
375759 
375974 
376184 
376394 
376597 
376800 
377017 
377237 
377453 
377667 
377873 
378082 
378290 
378498 
378720 
378941 
379152 
379361 
379564 
379774 
379983 
380195 
380420 
380639 
380845 
381051 
381257 
381467 
381681 
381896 
382120 
382331 
382533 
382737 
382944 
383161 
383378 
383596 
383817 
384024 
384225 
384430 
384643 
384863 
385079 
385293 
385507 
385712 
385912 
386121 
386341 
386562 
386776 
386990 
387200 
387401 
387606 
387820 
388043 
388259 
388468 
388678 
388885 
389089 
389302 
389522 
389746 
389958 
390161 
390371 
390577 
390786 
391003 
391220 
391441 
391648 
391849 
392062 
392273 
392485 
392703 
392920 
393133 
393336 
393537 
393752 
393966 
394179 
394396 
394611 
394819 
395023 
395230 
395448 
395666 
395881 
396093 
396304 
396509 
396712 
396924 
397146 
397363 
397577 
397785 
397994 
398200 
398404 
398626 
398847 
399059 
399269 
399474 
399682 
399888 
400099 
400325 
400545 
400754 
400960 
401095 
401305 
401516 
401730 
401952 
402170 
402376 
402580 
402784 
402999 
403215 
403431 
403655 
403867 
404068 
404273 
404479 
404696 
404914 
405127 
405348 
405553 
405754 
405962 
406175 
406398 
406615 
406827 
407041 
407245 
407446 
407656 
407874 
408096 
408310 
408517 
408729 
408935 
409139 
409355 
409577 
409796 
410004 
410211 
410420 
410625 
410835 
411053 
411275 
411489 
411692 
411901 
412111 
412320 
412537 
412756 
412974 
413181 
413382 
413591 
413803 
414018 
414236 
414453 
414669 
414872 
415074 
415289 
415506 
415721 
415936 
416147 
416356 
416558 
416761 
416983 
417202 
417416 
417629 
417837 
418045 
418248 
418459 
418683 
418900 
419111 
419317 
419524 
419731 
419940 
420158 
420383 
420598 
420804 
421008 
421217 
421425 
421637 
421860 
422079 
422288 
422492 
422697 
422908 
423121 
423337 
423562 
423776 
423978 
424183 
424388 
424603 
424820 
425035 
425257 
425465 
425666 
425873 
426084 
426306 
426524 
426737 
426953 
427157 
427355 
427562 
427780 
428000 
428216 
428428 
428639 
428843 
429047 
429260 
429482 
429702 
429912 
430120 
430328 
430532 
430741 
430958 
431181 
431398 
431604 
431811 
432022 
432228 
432444 
432662 
432883 
433091 
433292 
433502 
433712 
433919 
434140 
434358 
434575 
434778 
434979 
435193 
435407 
435622 
435840 
436053 
436263 
436465 
436667 
436887 
437106 
437322 
437537 
437745 
437954 
438157 
438364 
438588 
438806 
439016 
439225 
439432 
439639 
439846 
440063 
440287 
440502 
440711 
440916 
441125 
441331 
441540 
441762 
441983 
442194 
442400 
442605 
442817 
443028 
443241 
443467 
443684 
443888 
444092 
444296 
444510 
444724 
444938 
445163 
445375 
445576 
445781 
445990 
446208 
446425 
446640 
446858 
447063 
447263 
447467 
447682 
447904 
448122 
448336 
448547 
448751 
448955 
449164 
449385 
449606 
449818 
450028 
450237 
450439 
450646 
450862 
451085 
451303 
451510 
451720 
451926 
452131 
452347 
452565 
452786 
452997 
453199 
453408 
453617 
453828 
454048 
454267 
454486 
454691 
454891 
455104 
455316 
455529 
455748 
455963 
456176 
456377 
456580 
456799 
457016 
457230 
457447 
457658 
457865 
458067 
458273 
458496 
458714 
458926 
459138 
459346 
459552 
459759 
459973 
460197 
460414 
460624 
460829 
461039 
461244 
461451 
461673 
461894 
462106 
