42 
236 
426 
614 
798 
984 
1172 
1357 
1550 
1742 
1926 
2110 
2293 
2477 
2663 
2850 
3045 
3237 
3428 
3625 
3819 
4014 
4203 
4392 
4581 
4775 
4970 
5153 
5339 
5517 
5695 
5871 
6049 
6233 
6425 
6622 
6813 
7007 
7209 
7409 
7608 
7802 
7995 
8189 
8383 
8578 
8776 
8978 
9178 
9379 
9586 
9787 
9983 
10179 
10377 
10566 
10763 
10964 
11158 
11354 
11557 
11771 
11983 
12193 
12398 
12595 
12794 
12986 
13186 
13393 
13595 
13793 
13990 
14196 
14403 
14609 
14804 
15000 
15203 
15411 
15631 
15846 
16056 
16269 
16486 
16695 
16897 
17096 
17303 
17517 
17728 
17940 
18152 
18354 
18540 
18728 
18920 
19106 
19302 
19507 
19715 
19923 
20134 
20349 
20555 
20761 
20963 
21168 
21380 
21593 
21798 
21998 
22190 
22386 
22594 
22801 
23011 
23222 
23441 
23661 
23870 
24074 
24277 
24479 
24678 
24883 
25098 
25318 
25550 
25773 
25997 
26222 
26430 
26638 
26842 
27050 
27263 
27484 
27705 
27911 
28114 
28316 
28520 
28718 
28918 
29119 
29315 
29520 
29731 
29951 
30166 
30385 
30611 
30831 
31042 
31238 
31432 
31623 
31815 
32010 
32199 
32390 
32584 
32779 
32977 
33170 
33374 
33605 
33836 
34072 
34297 
34510 
34717 
34928 
35135 
35337 
35539 
35736 
35935 
36139 
36345 
36554 
36764 
36968 
37175 
37388 
37598 
37802 
38002 
38197 
38393 
38583 
38776 
38971 
39165 
39366 
39576 
39782 
39977 
40171 
40358 
40546 
40733 
40923 
41118 
41313 
41509 
41701 
41903 
42110 
42314 
42507 
42687 
42864 
43036 
43206 
43376 
43553 
43725 
43901 
44076 
44258 
44443 
44620 
44801 
44976 
45149 
45327 
45498 
45674 
45850 
46019 
46186 
46354 
46519 
46687 
46851 
47012 
47167 
47322 
47477 
47643 
47814 
47999 
48197 
48397 
48592 
48775 
48955 
49130 
49293 
49458 
49618 
49779 
49945 
50114 
50288 
50475 
50661 
50847 
51032 
51227 
51418 
51600 
51786 
51965 
52143 
52322 
52501 
52687 
52880 
53067 
53252 
53437 
53625 
53814 
53998 
54186 
54374 
54557 
54735 
54913 
55090 
55262 
55429 
55594 
55758 
55924 
56097 
56270 
56450 
56625 
56805 
56988 
57174 
57356 
57539 
57715 
57892 
58066 
58238 
58413 
58580 
58745 
58906 
59073 
59250 
59429 
59612 
59797 
59980 
60156 
60326 
60503 
60678 
60849 
61022 
61195 
61381 
61572 
61750 
61927 
62104 
62281 
62456 
62630 
62804 
62982 
63156 
63333 
63507 
63693 
63889 
64073 
64263 
64460 
64641 
64821 
64999 
65184 
65379 
65572 
65757 
65937 
66120 
66304 
66494 
66686 
66872 
67052 
67230 
67418 
67630 
67848 
68070 
68288 
68497 
68688 
68878 
69062 
69236 
69411 
69584 
69755 
69929 
70098 
70270 
70439 
70616 
70795 
70967 
71145 
71317 
71495 
71682 
71869 
72066 
72254 
72430 
72615 
72808 
73010 
73222 
73464 
73691 
73927 
74164 
74414 
74671 
74899 
75115 
75338 
75572 
75824 
76081 
76331 
76579 
76822 
77065 
77302 
77534 
77782 
78034 
78270 
78501 
78745 
78975 
79215 
79464 
79696 
79917 
80159 
80413 
80654 
80899 
81114 
81330 
81560 
81788 
82018 
82259 
82504 
82753 
82995 
83237 
83486 
83727 
83958 
84195 
84441 
84699 
84960 
85204 
85443 
85692 
85935 
86181 
86428 
86671 
86923 
87175 
87392 
87612 
87838 
88085 
88324 
88549 
88767 
88985 
89209 
89448 
89693 
89918 
90132 
90347 
90575 
90822 
91075 
91324 
91570 
91795 
92006 
92207 
92411 
92618 
92840 
93086 
93333 
93581 
93807 
94032 
94239 
94446 
94664 
94897 
95133 
95391 
95656 
95911 
96159 
96408 
96647 
96884 
97110 
97345 
97593 
97830 
98069 
98310 
98561 
98812 
99060 
99302 
99528 
99745 
99962 
100184 
100413 
100652 
100891 
101139 
101395 
101637 
101875 
102122 
102386 
102648 
102887 
103130 
103386 
103629 
103877 
104127 
104376 
104640 
104876 
105106 
105336 
105571 
105821 
106053 
106279 
106511 
106743 
106980 
107208 
107436 
107673 
107920 
108166 
108394 
108621 
108855 
109073 
109312 
109567 
109827 
110092 
110323 
110555 
110788 
111018 
111232 
111439 
111659 
111887 
112119 
112358 
112608 
112851 
113093 
113310 
113525 
113742 
113972 
114201 
114431 
114641 
114843 
115041 
115248 
115471 
115690 
115921 
116157 
116395 
116605 
116809 
117012 
117211 
117414 
117629 
117860 
118095 
118315 
118542 
118771 
118987 
119206 
119424 
119645 
119873 
120104 
120318 
120536 
120759 
120994 
121223 
121441 
121655 
121878 
122112 
122348 
122574 
122806 
123042 
123290 
123534 
123768 
123997 
124220 
124433 
124651 
124881 
125117 
125361 
125616 
125873 
126106 
126321 
126544 
126774 
127023 
127267 
127508 
127731 
127963 
128183 
128414 
128642 
128876 
129128 
129355 
129582 
129812 
130045 
130292 
130533 
130777 
131009 
131242 
131478 
131697 
131911 
132113 
132309 
132522 
132746 
132980 
133215 
133460 
133682 
133910 
134145 
134367 
134588 
134813 
135048 
135282 
135518 
135762 
135986 
136219 
136460 
136704 
136951 
137185 
137420 
137660 
137894 
138138 
138373 
138605 
138843 
139084 
139332 
139584 
139816 
140048 
140285 
140522 
140751 
140983 
141214 
141435 
141653 
141876 
142090 
142314 
142543 
142782 
143002 
143231 
143460 
143681 
143902 
144131 
144365 
144599 
144822 
145043 
145259 
145466 
145665 
145849 
146027 
146202 
146381 
146557 
146730 
146916 
147149 
147396 
147637 
147890 
148135 
148374 
148611 
148843 
149067 
149291 
149519 
149759 
149998 
150241 
150474 
150706 
150941 
151182 
151411 
151642 
151861 
152071 
152270 
152469 
152683 
152921 
153164 
153411 
153643 
153872 
154097 
154335 
154579 
154818 
155054 
155291 
155525 
155760 
155994 
156229 
156463 
156700 
156925 
157157 
157390 
157608 
157822 
158045 
158275 
158507 
158728 
158952 
159174 
159401 
159625 
159843 
160067 
160291 
160516 
160745 
160977 
161204 
161440 
161670 
161908 
162147 
162379 
162604 
162839 
163072 
163301 
163527 
163758 
163994 
164223 
164431 
164637 
164843 
165071 
165310 
165539 
165763 
165990 
166215 
166437 
166655 
166877 
167108 
167348 
167587 
167826 
168066 
168303 
168526 
168751 
168983 
169209 
169433 
169677 
169921 
170151 
170378 
170613 
170834 
171049 
171269 
171493 
171724 
171954 
172173 
172392 
172613 
172839 
173055 
173267 
173485 
173697 
173905 
174113 
174332 
174552 
174778 
175002 
175223 
175431 
175641 
175853 
176060 
176273 
176503 
176747 
176982 
177211 
177458 
177698 
177936 
178172 
178393 
178614 
178848 
179093 
179332 
179585 
179836 
180069 
180295 
180520 
180736 
180952 
181171 
181395 
181623 
181852 
182081 
182301 
182524 
182751 
182976 
183188 
183405 
183630 
183843 
184061 
184284 
184514 
184748 
184969 
185180 
185387 
185587 
185807 
186044 
186271 
186486 
186709 
186932 
187156 
187382 
187602 
187824 
188035 
188246 
188461 
188682 
188903 
189127 
189328 
189532 
189740 
189944 
190147 
190350 
190554 
190765 
190983 
191203 
191426 
191636 
191852 
192064 
192271 
192482 
192700 
192931 
193170 
193412 
193653 
193891 
194109 
194321 
194535 
194752 
194985 
195223 
195461 
195695 
195920 
196146 
196368 
196581 
196794 
197012 
197239 
197475 
197706 
197939 
198166 
198396 
198610 
198827 
199052 
199278 
199504 
199728 
199958 
200187 
200413 
200634 
200861 
201095 
201330 
201544 
201760 
201981 
202219 
202445 
202665 
202890 
203117 
203351 
203584 
203796 
204005 
204208 
204428 
204651 
204884 
205124 
205347 
205575 
205812 
206046 
206269 
206493 
206724 
206959 
207187 
207410 
207616 
207815 
208020 
208237 
208464 
208699 
208926 
209153 
209378 
209604 
209836 
210075 
210314 
210539 
210753 
210959 
211178 
211408 
211637 
211848 
212050 
212250 
212451 
212662 
212867 
213072 
213291 
213510 
213736 
213953 
214174 
214396 
214602 
214806 
215016 
215234 
215456 
215679 
215895 
216114 
216326 
216541 
216761 
216975 
217177 
217377 
217583 
217796 
218005 
218226 
218463 
218681 
218897 
219118 
219342 
219558 
219761 
219956 
220150 
220344 
220551 
220773 
221005 
221236 
221478 
221720 
221956 
222193 
222407 
222623 
222840 
223055 
223277 
223509 
223746 
223985 
224212 
224438 
224674 
224880 
225079 
225288 
225499 
225715 
225941 
226170 
226389 
226618 
226848 
227070 
227275 
227492 
227716 
227937 
228162 
228377 
228583 
228783 
228987 
229196 
229399 
229605 
229819 
230047 
230285 
230519 
230760 
230997 
231236 
231471 
231694 
231910 
232125 
232343 
232561 
232786 
233002 
233224 
233446 
233669 
233894 
234102 
234305 
234515 
234730 
234952 
235180 
235401 
235625 
235855 
236081 
236315 
236551 
236790 
237034 
237275 
237513 
237744 
237965 
238189 
238420 
238655 
238893 
239139 
239378 
239604 
239818 
240030 
240235 
240449 
240679 
240914 
241145 
241381 
241623 
241862 
242095 
242328 
242553 
242780 
243004 
243214 
243411 
243609 
243815 
244029 
244262 
244496 
244723 
244950 
245190 
245427 
245657 
245881 
246095 
246304 
246505 
246701 
246905 
247125 
247359 
247588 
247819 
248040 
248258 
248484 
248701 
248920 
249135 
249345 
249548 
249748 
249945 
250131 
250315 
250498 
250685 
250892 
251114 
251323 
251538 
251756 
251969 
252172 
252370 
252571 
252767 
252971 
253183 
253400 
253623 
253845 
254066 
254285 
254507 
254736 
254966 
255182 
255392 
255595 
255793 
255982 
256175 
256389 
256618 
256838 
257055 
257276 
257488 
257708 
257914 
258117 
258317 
258519 
258724 
258931 
259133 
259322 
259508 
259691 
259880 
260082 
260285 
260489 
260698 
260911 
261112 
261314 
261510 
261704 
261905 
262110 
262322 
262526 
262722 
262916 
263115 
263314 
263518 
263720 
263919 
264116 
264312 
264519 
264737 
264963 
265193 
265428 
265645 
265854 
266065 
266276 
266485 
266687 
266894 
267102 
267315 
267531 
267750 
267974 
268193 
268419 
268644 
268858 
269061 
269259 
269456 
269663 
269876 
270098 
270324 
270558 
270794 
271011 
271224 
271440 
271665 
271887 
272109 
272341 
272574 
272815 
273043 
273253 
273462 
273667 
273885 
274102 
274330 
274552 
274769 
274985 
275208 
275437 
275670 
275903 
276141 
276370 
276600 
276827 
277060 
277291 
277523 
277752 
277978 
278180 
278378 
278577 
278760 
278949 
279144 
279356 
279578 
279794 
280002 
280201 
280403 
280594 
280786 
280977 
281154 
281330 
281504 
281677 
281847 
282018 
282188 
282361 
282526 
282692 
282854 
283017 
283179 
283336 
283493 
283646 
283802 
283961 
284127 
284297 
284469 
284651 
284826 
285007 
285186 
285375 
285570 
285764 
285953 
286137 
286316 
286502 
286692 
286875 
287052 
287226 
287392 
287561 
287736 
287917 
288103 
288291 
288484 
288681 
288873 
289066 
289256 
289431 
289604 
289764 
289927 
290087 
290247 
290410 
290581 
290758 
290941 
291125 
291328 
291528 
291719 
291910 
292094 
292279 
292465 
292644 
292825 
293004 
293185 
293371 
293559 
293747 
293939 
294131 
294318 
294507 
294695 
294876 
295053 
295222 
295398 
295573 
295748 
295926 
296100 
296274 
296448 
296625 
296801 
296989 
297175 
297359 
297540 
297715 
297887 
298060 
298237 
298411 
298585 
298763 
298943 
299124 
299309 
299492 
299679 
299854 
300038 
300216 
300389 
300569 
300740 
300909 
301077 
301242 
301410 
301580 
301757 
301934 
302108 
302283 
302463 
302643 
302828 
303026 
303223 
303421 
303616 
303809 
304009 
304199 
304394 
304596 
304790 
304983 
305183 
305377 
305570 
305764 
305948 
306143 
306340 
306534 
306732 
306920 
307109 
307302 
307495 
307696 
307897 
308097 
308300 
308512 
308712 
308911 
309116 
309329 
309546 
309770 
309987 
310196 
310408 
310609 
310812 
311019 
311230 
311441 
311655 
311877 
312099 
312314 
312530 
312748 
312958 
313171 
313386 
313602 
313811 
314020 
314232 
314440 
314642 
314839 
315029 
315223 
315420 
315623 
315823 
316028 
316239 
316453 
316669 
316880 
317092 
317293 
317491 
317688 
317887 
318087 
318295 
318506 
318724 
318941 
319156 
319371 
319576 
319778 
319985 
320202 
320410 
320622 
320839 
321064 
321288 
321517 
321748 
321971 
322186 
322408 
322628 
322833 
323037 
323248 
323444 
323641 
323840 
324034 
324214 
324388 
324566 
324753 
324949 
325153 
325355 
325561 
325771 
325978 
326174 
326360 
326546 
326732 
326924 
327117 
327303 
327498 
327687 
327883 
328088 
328296 
328507 
328711 
328910 
329109 
329318 
329525 
329730 
329937 
330151 
330354 
330557 
330756 
330946 
331131 
331316 
331512 
331718 
331922 
332135 
332354 
332565 
332773 
332982 
333180 
333372 
333563 
333748 
333942 
334142 
334345 
334537 
334740 
334944 
335143 
335350 
335560 
335770 
335974 
336181 
336389 
336594 
336793 
336995 
337198 
337393 
337584 
337772 
337953 
338143 
338334 
338535 
338745 
338954 
339159 
339359 
339564 
339763 
339961 
340164 
340362 
340560 
340759 
340957 
341156 
341353 
341551 
341755 
341961 
342167 
342372 
342575 
342772 
342963 
343155 
343350 
343538 
343724 
343922 
344130 
344338 
344552 
344769 
344979 
345188 
345386 
345581 
345768 
345957 
346148 
346335 
346526 
346713 
346908 
347113 
347316 
347521 
347728 
347936 
348136 
348335 
348524 
348714 
348906 
349106 
349305 
349503 
349709 
349911 
350115 
350321 
350521 
350720 
350918 
351108 
351300 
351502 
351713 
351912 
352114 
352312 
352518 
352728 
352946 
353155 
353364 
353564 
353764 
353960 
354147 
354342 
354539 
354742 
354953 
355164 
355367 
355580 
355795 
356007 
356216 
356422 
356619 
356813 
357009 
357205 
357388 
357573 
357753 
357933 
358118 
358309 
358506 
358701 
358889 
359073 
359264 
359451 
359633 
359818 
359998 
360175 
360357 
360541 
360723 
360902 
361082 
361261 
361435 
361606 
361777 
361945 
362111 
362279 
362450 
362628 
362805 
362989 
363173 
363348 
363521 
363698 
363876 
364055 
364234 
364416 
364592 
364771 
364960 
365156 
365354 
365551 
365756 
365966 
366171 
366386 
366606 
366824 
367036 
367257 
367473 
367687 
367902 
368111 
368307 
368509 
368709 
368895 
369080 
369260 
369449 
369647 
369852 
370053 
370260 
370470 
370674 
370894 
371120 
371348 
371572 
371793 
372015 
372244 
372456 
372661 
372862 
373059 
373264 
373462 
373653 
373836 
374019 
374199 
374377 
374552 
374732 
374905 
375085 
375268 
375451 
375645 
375834 
376031 
376229 
376432 
376622 
376810 
376998 
377181 
377367 
377549 
377736 
377929 
378120 
378309 
378496 
378678 
378861 
379052 
379252 
379451 
379650 
379840 
380029 
380222 
380410 
380596 
380778 
380969 
381175 
381388 
381590 
381793 
382002 
382205 
382404 
382605 
382803 
383003 
383200 
383397 
383585 
383779 
383971 
384157 
384343 
384530 
384722 
384925 
385127 
385327 
385527 
385730 
385924 
386120 
386313 
386500 
386692 
386889 
387101 
387317 
387537 
387748 
387956 
388151 
388342 
388532 
388725 
388925 
389127 
389340 
389562 
389782 
389987 
390193 
390396 
390588 
390777 
390961 
391139 
391315 
391497 
391694 
391893 
392089 
392282 
392478 
392673 
392872 
393077 
393279 
393472 
393667 
393861 
394054 
394248 
394438 
394628 
394819 
395007 
395202 
395402 
395601 
395799 
396001 
396208 
396414 
396620 
396828 
397033 
397247 
397461 
397683 
397897 
398105 
398308 
398517 
398732 
398950 
399174 
399390 
399601 
399796 
399984 
400165 
400333 
400499 
400664 
400831 
401003 
401177 
401359 
401538 
401724 
401911 
402096 
402273 
402446 
402612 
402779 
402949 
403124 
403303 
403485 
403678 
403875 
404080 
404286 
404498 
404711 
404909 
405107 
405309 
405504 
405696 
405885 
406070 
406248 
406430 
406611 
406797 
406990 
407181 
407378 
407574 
407780 
407984 
408185 
408378 
408571 
408768 
408955 
409146 
409330 
409512 
409698 
409883 
410071 
410265 
410450 
410636 
410818 
410999 
411181 
411360 
411541 
411723 
411905 
412083 
412263 
412444 
412629 
412813 
412996 
413183 
413368 
413551 
413736 
413918 
414097 
414274 
414449 
414623 
414801 
414979 
415153 
415325 
415497 
415669 
415841 
416017 
416196 
416379 
416557 
416737 
416918 
417099 
417274 
417447 
417617 
417782 
417949 
418120 
418292 
418469 
418654 
418836 
419011 
419183 
419361 
419538 
419710 
419882 
420053 
420230 
420414 
420591 
420774 
420954 
421131 
421311 
421492 
421678 
421863 
422049 
422231 
422417 
422607 
422805 
423008 
423219 
423418 
423611 
423796 
423982 
424166 
424347 
424528 
424713 
424900 
425083 
425274 
425473 
425660 
425855 
426031 
426210 
426385 
426556 
426727 
426891 
427059 
427229 
427395 
427568 
427740 
427911 
428076 
428242 
428409 
428579 
428752 
428929 
429110 
429303 
429504 
429712 
429929 
430145 
430352 
430557 
430760 
430965 
431164 
431362 
431557 
431753 
431951 
432150 
432338 
432522 
432713 
432899 
433091 
433290 
433490 
433692 
433884 
434072 
434255 
434438 
434609 
434783 
434952 
435125 
435294 
435470 
435651 
435830 
436010 
436188 
436366 
436543 
436719 
436894 
437070 
437240 
437410 
437581 
437756 
437929 
438096 
438268 
438438 
438611 
438796 
438984 
439176 
439374 
439571 
439764 
439952 
440138 
440321 
440499 
440677 
440860 
441039 
441216 
441397 
441579 
441760 
441945 
442131 
442326 
442527 
442721 
442916 
443107 
443300 
443489 
443673 
443856 
444039 
444218 
444399 
444577 
444760 
444949 
445130 
445313 
445500 
445687 
445875 
446068 
446261 
446450 
446642 
446834 
447021 
447207 
447383 
447527 
447706 
447874 
448045 
448210 
448384 
448561 
448736 
448915 
449096 
449281 
449488 
449693 
449907 
450109 
450308 
450507 
450709 
450917 
451111 
451304 
451498 
451696 
451898 
452095 
452283 
452469 
452653 
452834 
453019 
453211 
453394 
453582 
453763 
453949 
454144 
454335 
454457 
454561 
454701 
454884 
455065 
455247 
455425 
455601 
455770 
455952 
456134 
456328 
456522 
456721 
456915 
457119 
457332 
457545 
457753 
457954 
458151 
458349 
458542 
458738 
458926 
459116 
459306 
459502 
459704 
459900 
460102 
460300 
460496 
460688 
460875 
461061 
461234 
461407 
461574 
461739 
461906 
462073 
