47 
246 
449 
624 
838 
1043 
1254 
1463 
1650 
1870 
2080 
2259 
2493 
2715 
2911 
3122 
3326 
3527 
3712 
3952 
4180 
4393 
4600 
4808 
4989 
5203 
5401 
5603 
5821 
6019 
6221 
6421 
6599 
6819 
7042 
7240 
7467 
7657 
7863 
8066 
8267 
8458 
8695 
8912 
9106 
9323 
9522 
9713 
9918 
10124 
10337 
10562 
10754 
10957 
11160 
11340 
11563 
11774 
11979 
12184 
12373 
12591 
12787 
12971 
13198 
13402 
13610 
13811 
14007 
14212 
14413 
14598 
14837 
15046 
15248 
15446 
15666 
15851 
16050 
16283 
16489 
16683 
16905 
17116 
17304 
17507 
17711 
17923 
18148 
18341 
18569 
18763 
18963 
19181 
19389 
19619 
19827 
20036 
20227 
20447 
20646 
20856 
21084 
21291 
21487 
21710 
21910 
22098 
22318 
22527 
22732 
22942 
23149 
23333 
23547 
23734 
23953 
24163 
24375 
24588 
24807 
25014 
25223 
25449 
25677 
25898 
26118 
26342 
26527 
26751 
26984 
27210 
27441 
27662 
27880 
28095 
28305 
28526 
28763 
28984 
29172 
29402 
29618 
29719 
29815 
30047 
30265 
30469 
30694 
30900 
31095 
31311 
31519 
31733 
31961 
32159 
32366 
32580 
32766 
32968 
33186 
33396 
33601 
33803 
33991 
34194 
34391 
34582 
34808 
35003 
35207 
35408 
35607 
35822 
36011 
36227 
36444 
36658 
36854 
37080 
37277 
37470 
37705 
37914 
38130 
38335 
38558 
38743 
38968 
39179 
39385 
39615 
39825 
40036 
40241 
40454 
40645 
40864 
41086 
41301 
41500 
41722 
41911 
42119 
42336 
42552 
42749 
42975 
43166 
43386 
43577 
43788 
43998 
44215 
44421 
44644 
44844 
45045 
45265 
45470 
45706 
45927 
46147 
46359 
46577 
46793 
47018 
47225 
47457 
47675 
47866 
48095 
48284 
48501 
48731 
48944 
49155 
49365 
49549 
49771 
49975 
50188 
50420 
50624 
50813 
51034 
51229 
51431 
51649 
51858 
52065 
52287 
52473 
52692 
52892 
53082 
53323 
53560 
53774 
53976 
54172 
54376 
54586 
54804 
55024 
55217 
55446 
55641 
55853 
56079 
56291 
56524 
56721 
56954 
57156 
57352 
57575 
57774 
58015 
58233 
58445 
58629 
58855 
59066 
59285 
59506 
59727 
59913 
60137 
60329 
60543 
60756 
60951 
61190 
61396 
61593 
61817 
62007 
62212 
62444 
62658 
62848 
63077 
63291 
63480 
63699 
63915 
64131 
64354 
64554 
64745 
64969 
65164 
65373 
65589 
65803 
66004 
66195 
66415 
66603 
66806 
67020 
67221 
67443 
67648 
67845 
68045 
68235 
68449 
68662 
68856 
69080 
69288 
69477 
69699 
69893 
70108 
70326 
70539 
70736 
70944 
71150 
71333 
71567 
71790 
71989 
72198 
72400 
72599 
72802 
73012 
73226 
73461 
73649 
73876 
74081 
74284 
74510 
74725 
74932 
75163 
75378 
75566 
75791 
76000 
76214 
76451 
76643 
76853 
77075 
77263 
77481 
77696 
77893 
78123 
78328 
78534 
78737 
78917 
79142 
79352 
79562 
79774 
79978 
80177 
80380 
80583 
80784 
81023 
81224 
81434 
81640 
81846 
82030 
82273 
82507 
82735 
82962 
83184 
83397 
83603 
83825 
84026 
84271 
84498 
84712 
84920 
85130 
85364 
85590 
85809 
85995 
86220 
86439 
86625 
86851 
87067 
87278 
87503 
87714 
87902 
88122 
88312 
88554 
88760 
88989 
89184 
89402 
89594 
89802 
90021 
90223 
90438 
90640 
90829 
91050 
91239 
91449 
91660 
91867 
92073 
92276 
92462 
92683 
92866 
93084 
93298 
93509 
93695 
93923 
94119 
94301 
94536 
94746 
94940 
95166 
95364 
95553 
95775 
95971 
96184 
96392 
96601 
96810 
97014 
97225 
97408 
97624 
97841 
98043 
98255 
98458 
98644 
98868 
99061 
99295 
99494 
99702 
99907 
100108 
100311 
100493 
100731 
100950 
101150 
101375 
101585 
101773 
101985 
102198 
102423 
102623 
102849 
103053 
103254 
103450 
103677 
103885 
104098 
104320 
104519 
104727 
104943 
105135 
105348 
105580 
105794 
105988 
106209 
106409 
106594 
106828 
107030 
107263 
107462 
107670 
107875 
108064 
108299 
108531 
108751 
108968 
109188 
109406 
109624 
109843 
110062 
110289 
110485 
110722 
110953 
111165 
111391 
111623 
111849 
112065 
112273 
112482 
112670 
112899 
113136 
113359 
113573 
113768 
113992 
114179 
114401 
114606 
114845 
115041 
115265 
115459 
115663 
115864 
116065 
116304 
116504 
116702 
116926 
117132 
117344 
117544 
117761 
117967 
118195 
118389 
118622 
118806 
119035 
119238 
119493 
119720 
119919 
120130 
120317 
120551 
120754 
120992 
121201 
121409 
121615 
121835 
122023 
122244 
122466 
122660 
122891 
123083 
123301 
123498 
123692 
123933 
124141 
124333 
124545 
124745 
124927 
125151 
125355 
125566 
125772 
125964 
126172 
126357 
126557 
126760 
126971 
127186 
127393 
127587 
127808 
127999 
128187 
128429 
128633 
128847 
129035 
129263 
129450 
129650 
129870 
130082 
130276 
130501 
130700 
130902 
131103 
131303 
131500 
131734 
131930 
132143 
132346 
132530 
132734 
132950 
133169 
133365 
133589 
133784 
133984 
134193 
134387 
134619 
134821 
135024 
135235 
135443 
135626 
135850 
136083 
136305 
136523 
136637 
136910 
137083 
137379 
137636 
137757 
138040 
138161 
138409 
138527 
138789 
138909 
139162 
139283 
139427 
139549 
139682 
139814 
139952 
140060 
140329 
140611 
140898 
141173 
141439 
141703 
141954 
142173 
142386 
142606 
142795 
143009 
143198 
143315 
143620 
143883 
144130 
144356 
144580 
144765 
144965 
145151 
145502 
145635 
145911 
146027 
146264 
146382 
146521 
146638 
146852 
146973 
147060 
147183 
147314 
147482 
147630 
147754 
147882 
148011 
148146 
148261 
148406 
148543 
148674 
148910 
149049 
149162 
149279 
149402 
149648 
149929 
150225 
150540 
150861 
151120 
151350 
151615 
151832 
152043 
152255 
152467 
152668 
152884 
153087 
153319 
153518 
153741 
153936 
154132 
154352 
154572 
154793 
154992 
155215 
155425 
155612 
155832 
156057 
156252 
156484 
156595 
156870 
157040 
157305 
157497 
157739 
157861 
158136 
158419 
158537 
158806 
158933 
159226 
159360 
159605 
159724 
159993 
160112 
160248 
160399 
160514 
160633 
160745 
160843 
160996 
161139 
161243 
161363 
161485 
161629 
161758 
161871 
162014 
162148 
162328 
162495 
162645 
162859 
162987 
163124 
163260 
163464 
163753 
164031 
164327 
164620 
164894 
165170 
165448 
165710 
165932 
166137 
166330 
166521 
166733 
166946 
167149 
167352 
167549 
167731 
167949 
168144 
168354 
168567 
168761 
168965 
169175 
169370 
169563 
169775 
169989 
170194 
170416 
170619 
170816 
171016 
171203 
171424 
171639 
171830 
172051 
172249 
172430 
172645 
172761 
173038 
173164 
173396 
173516 
173776 
173939 
174183 
174302 
174558 
174679 
174943 
175124 
175388 
175503 
175749 
175874 
176150 
176361 
176468 
176747 
176965 
177080 
177344 
177523 
177640 
177932 
178056 
178194 
178365 
178489 
178620 
178740 
178855 
179082 
179196 
179342 
179469 
179601 
179729 
179851 
179962 
180073 
180195 
180329 
180606 
180879 
181200 
181529 
181837 
182135 
182377 
182496 
182787 
182908 
183190 
183309 
183432 
183570 
183859 
183981 
184293 
184415 
184591 
184697 
184836 
184990 
185187 
185367 
185526 
185662 
185786 
185938 
186102 
186216 
186357 
186473 
186591 
186730 
186862 
186988 
187127 
187246 
187368 
187494 
187606 
187735 
187865 
187988 
188212 
188349 
188536 
188697 
188834 
189106 
189396 
189718 
190036 
190162 
190446 
190740 
191014 
191288 
191410 
191679 
191939 
192189 
192302 
192527 
192670 
192772 
193026 
193148 
193250 
193347 
193440 
193569 
193699 
193794 
193900 
194012 
194126 
194252 
194391 
194511 
194839 
195078 
195356 
195650 
195961 
196268 
196403 
196610 
196724 
196989 
197256 
197384 
197673 
197800 
197903 
198007 
198098 
198197 
198290 
198390 
198493 
198756 
199035 
199307 
199567 
199801 
200009 
200205 
200406 
200619 
200831 
201039 
201249 
201443 
201644 
201847 
202055 
202277 
202496 
202686 
202912 
203024 
203309 
203429 
203635 
203966 
204102 
204444 
204621 
204831 
205155 
205286 
205464 
205576 
205725 
205889 
206045 
206165 
206292 
206443 
206578 
206706 
206982 
207246 
207502 
207749 
207986 
208235 
208486 
208696 
208902 
209103 
209313 
209503 
209715 
209948 
210154 
210364 
210573 
210780 
210980 
211211 
211436 
211642 
211876 
211991 
212167 
212272 
212392 
212521 
212633 
212752 
212870 
213011 
213324 
213584 
213859 
214121 
214398 
214675 
214792 
215036 
215172 
215352 
215595 
215846 
216098 
216240 
216337 
216482 
216598 
216723 
216979 
217230 
217471 
217694 
217912 
218106 
218306 
218503 
218691 
218890 
219111 
219322 
219508 
219731 
219927 
220112 
220342 
220460 
220756 
220884 
220992 
221225 
221338 
221495 
221643 
221864 
221981 
222147 
222276 
222391 
222514 
222627 
222747 
223017 
223249 
223549 
223875 
223996 
224321 
224469 
224608 
224906 
225033 
225212 
225326 
225487 
225600 
225717 
225820 
225921 
226025 
226214 
226314 
226471 
226623 
226797 
227112 
227404 
227667 
227918 
228040 
228304 
228562 
228795 
229034 
229261 
229456 
229677 
229877 
230084 
230289 
230493 
230683 
230879 
231075 
231271 
231496 
231612 
231892 
232018 
232188 
232413 
232521 
232693 
232806 
232909 
233010 
233197 
233449 
233710 
233925 
234152 
234383 
234624 
234844 
235068 
235283 
235493 
235707 
235904 
236025 
236316 
236583 
236697 
236872 
236984 
237085 
237218 
237323 
237476 
237598 
237726 
237845 
238003 
238103 
238297 
238433 
238581 
238777 
238906 
239029 
239250 
239400 
239553 
239699 
239956 
240216 
240486 
240805 
241091 
241363 
241628 
241884 
242098 
242314 
242514 
242748 
242946 
243147 
243347 
243556 
243760 
244073 
244381 
244646 
244758 
245046 
245172 
245268 
245426 
245543 
245674 
245790 
245902 
246019 
246125 
246240 
246368 
246543 
246669 
247021 
247307 
247599 
247910 
248030 
248207 
248357 
248487 
248615 
248799 
249040 
249181 
249312 
249462 
249572 
249735 
249878 
250031 
250187 
250306 
250464 
250588 
250735 
250892 
251051 
251219 
251329 
251461 
251629 
251763 
251917 
252103 
252225 
252368 
252480 
252656 
252967 
253147 
253296 
253424 
253632 
253838 
253975 
254154 
254299 
254513 
254700 
254868 
255061 
255203 
255366 
255532 
255716 
255859 
256010 
256228 
256387 
256518 
256624 
256728 
256824 
256972 
257098 
257286 
257435 
257556 
257674 
257780 
257893 
258020 
258178 
258359 
258520 
258709 
258900 
259053 
259167 
259277 
259375 
259533 
259758 
259871 
260030 
260192 
260324 
260505 
260642 
260819 
260967 
261150 
261355 
261532 
261654 
261814 
261955 
262095 
262256 
262404 
262616 
262741 
262842 
263052 
263163 
263261 
263470 
263653 
263765 
263874 
263995 
264112 
264216 
264375 
264502 
264634 
264788 
264903 
265008 
265190 
265300 
265487 
265634 
265768 
265874 
265981 
266168 
266331 
266502 
266721 
266938 
267070 
267279 
267437 
267565 
267718 
267843 
267944 
268049 
268293 
268471 
268588 
268782 
268967 
269135 
269236 
269340 
269532 
269658 
269783 
269945 
270199 
270368 
270536 
270646 
270796 
270894 
271101 
271305 
271431 
271535 
271672 
271820 
271933 
272099 
272249 
272440 
272626 
272789 
272897 
272994 
273135 
273237 
273343 
273527 
273712 
273859 
273967 
274126 
274242 
274347 
274457 
274645 
274767 
274935 
275121 
275265 
275585 
275911 
276049 
276283 
276568 
276693 
276985 
277103 
277423 
277549 
277857 
278151 
278420 
278676 
278789 
279049 
279310 
279501 
279714 
279904 
280098 
280302 
280506 
280723 
280941 
281139 
281337 
281555 
281749 
281962 
282181 
282385 
282594 
282803 
282982 
283196 
283394 
283609 
283818 
284036 
284236 
284436 
284622 
284842 
285046 
285254 
285468 
285678 
285869 
286088 
286280 
286494 
286689 
286799 
287112 
287237 
287508 
287672 
287912 
288101 
288210 
288498 
288681 
288904 
289112 
289325 
289430 
289705 
289828 
290083 
290309 
290521 
290732 
290935 
291158 
291382 
291606 
291803 
292019 
292204 
292421 
292610 
292955 
293232 
293348 
293606 
293832 
294037 
294151 
294428 
294606 
294890 
295135 
295246 
295509 
295632 
295894 
296022 
296281 
296399 
296669 
296830 
297117 
297315 
297631 
297758 
298011 
298131 
298396 
298513 
298764 
298887 
299167 
299287 
299558 
299679 
299928 
300040 
300312 
300438 
300701 
300823 
301002 
301297 
301575 
301727 
301841 
302091 
302216 
302459 
302584 
302841 
302964 
303207 
303330 
303587 
303746 
303999 
304162 
304404 
304527 
304753 
304892 
305141 
305301 
305403 
305624 
305770 
305990 
306142 
306371 
306514 
306759 
306907 
307150 
307294 
307529 
307662 
307892 
308035 
308136 
308380 
308529 
308771 
308891 
309127 
309258 
309521 
309649 
309926 
310044 
310304 
310427 
310670 
310783 
311046 
311169 
311435 
311556 
311819 
311937 
312193 
312307 
312408 
312567 
312683 
312837 
312965 
313185 
313303 
313401 
313592 
313733 
313843 
313961 
314086 
314358 
314596 
314867 
315155 
315441 
315730 
315890 
316187 
316308 
316441 
316729 
316843 
316981 
317267 
317386 
317573 
317685 
317810 
317916 
318025 
318140 
318251 
318360 
318490 
318836 
319094 
319434 
319769 
319886 
320023 
320346 
320475 
320664 
320953 
321074 
321251 
321520 
321630 
321824 
321963 
322120 
322230 
322338 
322445 
322616 
322743 
322849 
323099 
323209 
323328 
323656 
323943 
324243 
324524 
324792 
325065 
325334 
325477 
325717 
325864 
325958 
326104 
326333 
326576 
326731 
326836 
326934 
327066 
327193 
327320 
327453 
327567 
327689 
327777 
327887 
328047 
328245 
328461 
328693 
328922 
329009 
329130 
329233 
329341 
329506 
329677 
329785 
329967 
330199 
330427 
330644 
330838 
331045 
331247 
331454 
331561 
331654 
331764 
331888 
332106 
332340 
332579 
332817 
333030 
333131 
333227 
333473 
333694 
333801 
333901 
334000 
334200 
334406 
334629 
334822 
335018 
335216 
335395 
335602 
335717 
336013 
336134 
336315 
336427 
336526 
336789 
336900 
337032 
337299 
337418 
337562 
337833 
337974 
338240 
338413 
338510 
338776 
338907 
339003 
339134 
339263 
339483 
339699 
339897 
340126 
340239 
340343 
340449 
340583 
340734 
340831 
340952 
341133 
341241 
341352 
341571 
341814 
342080 
342325 
342561 
342814 
343027 
343132 
343236 
343335 
343467 
343616 
343790 
343917 
344049 
344174 
344281 
344396 
344506 
344758 
345010 
345301 
345547 
345862 
346169 
346285 
346588 
346719 
346941 
347055 
347213 
347333 
347451 
347561 
347659 
347865 
348058 
348196 
348305 
348427 
348729 
348959 
349224 
349548 
349873 
350165 
350284 
350551 
350670 
350863 
350979 
351170 
351310 
351440 
351544 
351708 
351861 
351981 
352116 
352233 
352373 
352473 
352743 
353003 
353257 
353567 
353887 
354158 
354275 
354437 
354552 
354663 
354778 
354896 
355008 
355170 
355317 
355437 
355722 
355994 
356328 
356648 
356904 
357140 
357408 
357524 
357817 
358076 
358188 
358359 
358460 
358603 
358709 
359010 
359247 
359474 
359690 
359898 
360109 
360328 
360541 
360737 
360960 
361066 
361343 
361618 
361740 
361918 
362030 
362171 
362301 
362430 
362582 
362831 
363084 
363358 
363570 
363779 
363994 
364197 
364390 
364580 
364802 
365019 
365218 
365445 
365556 
365740 
366087 
366275 
366589 
366714 
366894 
367197 
367450 
367560 
367713 
367824 
367969 
368133 
368355 
368653 
368946 
369072 
369254 
369567 
369872 
370018 
370126 
370238 
370495 
370780 
370913 
371058 
371347 
371468 
371598 
371757 
371872 
371978 
372081 
372183 
372348 
372697 
373030 
373337 
373618 
373764 
373871 
374138 
374263 
374544 
374709 
374816 
374960 
375075 
375225 
375319 
375432 
375529 
375718 
376013 
376292 
376407 
376588 
376693 
376821 
377142 
377443 
377741 
378018 
378282 
378538 
378782 
378899 
378996 
379132 
379272 
379389 
379530 
379653 
379765 
379892 
380032 
380158 
380384 
380635 
380899 
381138 
381369 
381511 
381614 
381701 
381801 
381902 
382002 
382227 
382470 
382665 
382867 
383063 
383272 
383385 
383479 
383604 
383700 
383803 
383937 
384098 
384235 
384354 
384516 
384635 
384733 
384872 
384974 
385133 
385281 
385395 
385610 
385733 
385875 
386019 
386109 
386364 
386629 
386879 
387124 
387360 
387554 
387749 
387950 
388148 
388346 
388538 
388727 
388910 
389096 
389279 
389481 
389676 
389879 
390074 
390269 
390456 
390642 
390843 
391050 
391252 
391455 
391654 
391834 
392054 
392246 
392440 
392654 
392861 
392968 
393144 
393254 
393355 
393466 
393582 
393717 
393824 
393936 
394072 
394211 
394327 
394458 
394556 
394665 
394773 
394889 
395003 
395120 
395267 
395441 
395570 
395907 
396146 
396437 
396763 
397083 
397368 
397607 
397854 
398054 
398247 
398435 
398642 
398845 
399070 
399283 
399470 
399672 
399876 
400078 
400294 
400512 
400716 
400910 
401135 
401335 
401533 
401752 
401863 
402020 
402141 
402250 
402370 
402475 
402583 
402684 
402799 
402903 
403016 
403130 
403242 
403364 
403483 
403610 
403724 
403859 
404082 
404370 
404690 
405032 
405354 
405627 
405854 
405963 
406106 
406224 
406330 
406481 
406782 
407068 
407338 
407599 
407864 
408128 
408348 
408454 
408556 
408801 
409015 
409119 
409213 
409312 
409431 
409578 
409717 
409879 
409983 
410133 
410319 
410462 
410587 
410680 
410790 
410975 
411130 
411354 
411455 
411548 
411650 
411751 
411854 
411971 
412139 
412267 
412387 
412528 
412705 
412846 
412958 
413062 
413169 
413311 
413476 
413623 
413752 
413904 
414069 
414282 
414458 
414556 
414723 
414867 
415033 
415219 
415359 
415490 
415692 
415836 
415990 
416140 
416296 
416482 
416603 
416785 
416921 
417100 
417362 
417495 
417592 
417688 
417845 
417996 
418174 
418379 
418546 
418725 
418839 
419004 
419160 
419339 
419504 
419620 
419747 
419870 
420046 
420231 
420388 
420521 
420702 
420889 
421127 
421296 
421408 
421520 
421737 
421893 
421991 
422086 
422177 
422356 
422537 
422636 
422780 
422934 
423058 
423169 
423280 
423397 
423563 
423690 
423848 
424000 
424160 
424336 
424463 
424579 
424716 
424830 
425030 
425166 
425265 
425383 
425593 
425794 
425962 
426085 
426280 
426391 
426573 
426720 
426847 
427061 
427269 
427413 
427507 
427708 
427886 
428041 
428251 
428376 
428571 
428735 
428853 
429015 
429120 
429308 
429433 
429575 
429784 
429999 
430140 
430264 
430476 
430590 
430743 
430893 
431033 
431146 
431347 
431469 
431657 
431796 
431941 
432092 
432268 
432409 
432528 
432728 
432860 
432973 
433082 
433248 
433425 
433626 
433758 
433874 
434013 
434196 
434346 
434518 
434721 
434835 
434980 
435140 
435245 
435355 
435560 
435734 
435845 
436057 
436211 
436311 
436468 
436586 
436740 
436900 
437050 
437232 
437352 
437535 
437646 
437786 
437883 
437977 
438118 
438332 
438532 
438736 
438962 
439112 
439295 
439419 
439526 
439707 
439829 
439934 
440035 
440197 
440410 
440530 
440699 
440833 
440935 
441084 
441242 
441353 
441554 
441669 
441875 
442004 
442129 
442228 
442369 
442491 
442674 
442848 
443036 
443201 
443366 
443592 
443712 
443877 
444038 
444142 
444320 
444526 
444683 
444784 
444969 
445088 
445293 
445396 
445497 
445656 
445826 
446063 
446230 
446390 
446532 
446678 
446870 
447053 
447189 
447353 
447571 
447710 
447817 
447912 
448111 
448281 
448433 
448617 
448833 
448989 
449160 
449287 
449392 
449571 
449734 
449866 
450059 
450219 
450378 
450502 
450691 
450897 
451073 
451197 
451362 
451472 
451694 
451820 
451989 
452140 
452281 
452472 
452694 
452863 
453008 
453141 
453270 
453405 
453548 
453711 
453940 
454051 
454185 
454382 
454483 
454675 
454859 
455007 
455124 
455288 
455464 
455607 
455772 
455977 
456106 
456214 
456305 
456452 
456602 
456753 
456991 
457189 
457341 
457496 
457633 
457856 
457975 
458122 
458220 
458396 
458527 
458640 
458829 
458967 
459061 
459245 
459355 
459581 
459694 
459851 
460062 
460174 
460353 
460472 
460592 
460828 
460960 
461141 
461301 
461491 
461612 
461726 
461927 
462112 
